-0.0000000 -0.0000000 -0.0000000 -0.0000000 -0.0000000 -0.0000000 -0.0000000 -0.0000000 -0.0000000 -0.0000000 -0.0000000 -0.0000000 -0.0000000 -0.0000000 -0.0000000 -0.0000000 -0.0000000 -0.0000000 -0.0000000 -0.0000000 -0.0000000 -0.0000000 -0.0000000 -0.0000000 -0.0000000 -0.0000000 -0.0000000 -0.0000000 -0.0000000 -0.0000000 -0.0000000 -0.0000000 -0.0000000 -0.0000000 -0.0000000 -0.0000000 -0.0000000 -0.0000000 -0.0000000 -0.0000000 -0.0000000 -0.0000000 -0.0000000 -0.0000000 -0.0000000 -0.0000000 -0.0000000 -0.0000000 -0.0000000 -0.0000000 -0.0000000 -0.0000000 -0.0000000 -0.0000000 -0.0000000 -0.0000000 -0.0000000 -0.0000000 -0.0000000 -0.0000000 -0.0000000 -0.0000000 -0.0000000 -0.0000000 -0.0000000 -0.0000000 -0.0000000 -0.0000000 -0.0000000 -0.0000000 -0.0000000 -0.0000000 -0.0000000 -0.0000000 -0.0000000 -0.0000000 -0.0000000 -0.0000000 -0.0000000 -0.0000000 -0.0000000 -0.0000000 -0.0000000 -0.0000000 -0.0000000 -0.0000000 -0.0000000 -0.0000000 -0.0000000 -0.0000000 -0.0000000 -0.0000000 -0.0000000 -0.0000000 -0.0000000 -0.0000000 -0.0000000 -0.0000000 -0.0000000 -0.0000000 -0.0000000 -0.0000000 -0.0000000 -0.0000000 -0.0000000 -0.0000000 -0.0000000 -0.0000000 -0.0000000 -0.0000000 -0.0000000 -0.0000000 -0.0000000 -0.0000000 -0.0000000 -0.0000000 -0.0000000 -0.0000000 -0.0000000 -0.0000000 -0.0000000 -0.0000000 -0.0000000 -0.0000000 -0.0000000 -0.0000000 -0.0000000 -0.0000000 -0.0000000 -0.0000000 -0.0000000 -0.0000000 -0.0000000 -0.0000000 -0.0000000 -0.0000000 -0.0000000 -0.0000000 -0.0000000 -0.0000000
-0.0000000 -0.0000000 -0.0000000 -0.0000000 -0.0000000 -0.0000000 -0.0000000 -0.0000000 -0.0000000 -0.0000000 -0.0000000 -0.0000000 -0.0000000 -0.0000000 -0.0000000 -0.0000000 -0.0000000 -0.0000000 -0.0000000 -0.0000000 -0.0000000 -0.0000000 -0.0000000 -0.0000000 -0.0000000 -0.0000000 -0.0000000 -0.0000000 -0.0000000 -0.0000000 -0.0000000 -0.0000000 -0.0000000 -0.0000000 -0.0000000 -0.0000000 -0.0000000 -0.0000000 -0.0000000 -0.0000000 -0.0000000 -0.0000000 -0.0000000 -0.0000000 -0.0000000 -0.0000000 -0.0000000 -0.0000000 -0.0000000 -0.0000000 -0.0000000 -0.0000000 -0.0000000 -0.0000000 -0.0000000 -0.0000000 -0.0000000 -0.0000000 -0.0000000 -0.0000000 -0.0000000 -0.0000000 -0.0000000 -0.0000000 -0.0000000 -0.0000000 -0.0000000 -0.0000000 -0.0000000 -0.0000000 -0.0000000 -0.0000000 -0.0000000 -0.0000000 -0.0000000 -0.0000000 -0.0000000 -0.0000000 -0.0000000 -0.0000000 -0.0000000 -0.0000000 -0.0000000 -0.0000000 -0.0000000 -0.0000000 -0.0000000 -0.0000000 -0.0000000 -0.0000000 -0.0000000 -0.0000000 -0.0000000 -0.0000000 -0.0000000 -0.0000000 -0.0000000 -0.0000000 -0.0000000 -0.0000000 -0.0000000 -0.0000000 -0.0000000 -0.0000000 -0.0000000 -0.0000000 -0.0000000 -0.0000000 -0.0000000 -0.0000000 -0.0000000 -0.0000000 -0.0000000 -0.0000000 -0.0000000 -0.0000000 -0.0000000 -0.0000000 -0.0000000 -0.0000000 -0.0000000 -0.0000000 -0.0000000 -0.0000000 -0.0000000 -0.0000000 -0.0000000 -0.0000000 -0.0000000 -0.0000000 -0.0000000 -0.0000000 -0.0000000 -0.0000000 -0.0000000 -0.0000000 -0.0000000 -0.0000000 -0.0000000 -0.0000000
-0.0000069 0.0000079 -0.0000162 0.0000454 -0.0000286 -0.0000814 -0.0000176 -0.0000109 -0.0000174 0.0000511 0.0000093 0.0001272 0.0000081 0.0001069 0.0000006 0.0000566 0.0000035 0.0000751 -0.0000209 -0.0000225 -0.0000120 0.0000510 -0.0000056 0.0000195 -0.0000112 0.0000016 -0.0000034 0.0000259 -0.0000186 -0.0000158 0.0000081 0.0000712 -0.0000263 -0.0000351 -0.0000088 -0.0000071 -0.0000083 -0.0000025 -0.0000008 0.0000307 -0.0000215 -0.0000642 0.0000262 0.0000897 -0.0000928 -0.0002829 0.0000271 0.0000299 -0.0000292 -0.0000481 0.0000471 0.0000038 0.0000036 0.0000098 -0.0000121 -0.0001653 -0.0000178 -0.0000455 0.0000437 0.0000496 0.0000792 -0.0000590 0.0001368 -0.0001142 0.0000656 0.0001167 0.0000458 -0.0000881 0.0000163 0.0000761 0.0013759 -0.0008222 0.0000054 -0.0000411 0.0003855 0.0005568 0.0001635 -0.0001923 0.0033652 -0.0014611 0.0001231 0.0000142 0.0000025 0.0000779 0.0001005 0.0000770 0.0001334 0.0000904 0.0000076 -0.0000363 0.0000020 0.0000085 0.0000026 -0.0000395 0.0001012 0.0006463 0.0000620 0.0003689 0.0000219 0.0001038 -0.0000275 0.0000224 0.0000002 0.0000295 -0.0000028 0.0000545 0.0000142 0.0000606 0.0000091 0.0000395 -0.0000004 0.0000101 -0.0000705 0.0001020 -0.0000514 -0.0001042 0.0014365 -0.0030975 -0.0002006 -0.0005525 0.0005581 0.0003305 0.0000721 -0.0000706 -0.0006140 0.0007177 0.0003578 0.0004166 -0.0000524 -0.0001833 0.0000168 -0.0003301 0.0000795 0.0001601 0.0005726 0.0002705 0.0000360 -0.0002735 -0.0003597 0.0001819
-0.0000201 -0.0000372 -0.0000283 0.0000152 -0.0000760 -0.0003588 -0.0000425 -0.0000142 -0.0000249 0.0000015 -0.0000180 0.0000853 0.0000422 0.0002302 0.0000075 0.0000559 -0.0000052 0.0001124 -0.0000484 -0.0001335 -0.0000341 0.0000225 -0.0000278 -0.0000212 -0.0000322 -0.0001157 0.0000190 0.0001113 -0.0001115 -0.0002937 0.0000232 0.0000624 -0.0000391 -0.0000911 -0.0000036 0.0000049 -0.0000282 -0.0000469 -0.0000073 0.0000331 -0.0000535 -0.0001916 0.0000389 0.0000462 -0.0000955 -0.0002599 0.0000935 0.0000571 -0.0001668 -0.0000177 0.0000450 0.0000841 -0.0000154 -0.0000746 -0.0000109 -0.0003734 -0.0000033 -0.0001503 0.0000085 0.0000871 0.0000415 0.0000578 -0.0003140 0.0001810 0.0000435 0.0000578 -0.0001275 -0.0001834 0.0000119 0.0000054 -0.0011457 0.0017247 -0.0002456 0.0001355 0.0005576 0.0007700 0.0002478 -0.0002624 0.0045973 -0.0016776 -0.0002384 0.0001887 -0.0000351 0.0001413 0.0002011 -0.0000030 0.0001235 -0.0001372 0.0000342 -0.0001275 -0.0000006 -0.0000712 0.0000725 -0.0001384 0.0002543 0.0011987 0.0002070 0.0008797 0.0000794 0.0001523 0.0000121 0.0000845 -0.0000043 -0.0000369 0.0000163 0.0001324 0.0000403 -0.0000003 0.0000209 -0.0000516 0.0000296 -0.0000213 -0.0001049 0.0001857 -0.0000290 0.0000975 -0.0137671 0.0159897 0.0004822 0.0009919 0.0006281 0.0006770 0.0000551 -0.0000013 -0.0055945 0.0049589 0.0014469 0.0004897 0.0001830 0.0007419 -0.0003784 -0.0007135 0.0005375 0.0015136 -0.0000167 0.0013544 0.0003235 0.0000729 -0.0000703 -0.0004931
-0.0000078 -0.0001075 -0.0000256 -0.0000679 -0.0000822 -0.0005128 -0.0000581 -0.0000496 -0.0000381 -0.0001288 -0.0000361 -0.0000250 0.0000905 0.0003376 0.0000241 0.0000015 -0.0000214 0.0000755 -0.0000667 -0.0002072 -0.0000386 -0.0000550 -0.0000272 -0.0000210 -0.0000225 -0.0002015 0.0000284 0.0001829 -0.0001875 -0.0005345 0.0000317 0.0000394 -0.0000494 -0.0001088 -0.0000071 -0.0000345 -0.0000375 -0.0000873 -0.0000085 0.0000646 -0.0000656 -0.0002563 0.0000445 0.0000137 -0.0000747 -0.0001078 0.0001354 0.0002047 -0.0003210 0.0000523 0.0000668 0.0002145 -0.0000348 -0.0000258 0.0000538 -0.0004512 -0.0000161 -0.0001767 -0.0000413 0.0002686 0.0000896 0.0001906 -0.0000977 0.0002342 0.0000757 0.0002456 -0.0001115 -0.0001443 0.0000083 0.0000947 0.0003017 0.0008167 -0.0000768 -0.0000447 0.0004815 0.0006726 0.0002291 -0.0001752 0.0024838 -0.0018206 -0.0012433 0.0012722 0.0000640 0.0003512 -0.0001039 -0.0001777 -0.0000289 -0.0004398 0.0000688 -0.0000137 -0.0000265 -0.0001269 0.0000671 -0.0001549 0.0002380 0.0013471 0.0002463 0.0010660 0.0001344 0.0000176 0.0000921 0.0003298 -0.0000551 -0.0001209 0.0000627 0.0003150 0.0000516 0.0001081 0.0000164 -0.0001158 0.0000586 -0.0000144 -0.0001114 0.0003330 -0.0000215 0.0002346 -0.0057726 0.0180385 0.0012226 0.0041207 0.0016444 0.0029326 -0.0000970 0.0000450 -0.0011817 0.0018250 0.0040230 0.0006948 0.0008185 0.0025883 -0.0008908 -0.0009815 0.0011577 0.0037612 0.0003916 0.0012922 0.0004059 0.0013442 -0.0004981 0.0000891
-0.0000094 -0.0001211 -0.0000352 -0.0000544 -0.0000398 -0.0003566 -0.0000840 -0.0000981 -0.0000432 -0.0001320 -0.0000220 0.0000087 0.0001136 0.0004349 0.0000263 0.0000241 -0.0000163 0.0000768 -0.0000751 -0.0002164 -0.0000505 -0.0000842 -0.0000015 -0.0000125 -0.0000089 -0.0002077 0.0000365 0.0001715 -0.0002031 -0.0006239 0.0000331 0.0000275 -0.0000431 -0.0000762 -0.0000062 -0.0000674 -0.0000341 -0.0001066 0.0000003 0.0000942 -0.0000840 -0.0002669 0.0000314 -0.0000794 -0.0000544 -0.0000385 0.0001192 0.0002494 -0.0004132 0.0000783 0.0001650 0.0001309 -0.0000440 -0.0000535 0.0000723 -0.0005113 -0.0000475 -0.0002651 -0.0000017 0.0001815 -0.0000272 0.0001741 0.0000395 0.0001287 0.0001050 0.0002351 0.0000083 -0.0003234 0.0000008 0.0000583 0.0016710 -0.0022283 -0.0004728 0.0000290 0.0003236 -0.0002889 0.0001669 -0.0001025 0.0028218 -0.0039454 -0.0013043 0.0008800 0.0001218 0.0003697 -0.0001914 -0.0004573 -0.0002642 -0.0009616 0.0000937 0.0000820 -0.0000681 -0.0003087 0.0000669 -0.0004894 0.0002073 0.0013687 0.0003451 0.0012550 0.0002374 0.0000700 0.0001955 0.0005152 -0.0001201 -0.0003260 0.0000522 0.0001653 0.0000894 0.0002000 0.0000172 -0.0001066 0.0000802 -0.0000391 -0.0000869 0.0003358 -0.0000139 0.0000694 -0.0047528 0.0191949 0.0004949 0.0028288 0.0049045 0.0052796 -0.0001859 -0.0003100 -0.0000812 0.0016406 0.0051444 0.0020088 0.0012694 0.0039327 -0.0010148 -0.0002637 0.0013334 0.0049929 0.0027059 -0.0002817 0.0005726 0.0018149 -0.0004201 0.0003058
-0.0000237 -0.0002351 -0.0000443 -0.0001135 -0.0000133 -0.0003792 -0.0000859 -0.0001863 -0.0000191 -0.0002423 -0.0000019 -0.0000545 0.0001150 0.0003999 0.0000403 -0.0000656 -0.0000040 -0.0000193 -0.0000686 -0.0002622 -0.0000445 -0.0001688 0.0000083 -0.0000822 -0.0000154 -0.0003131 0.0000377 0.0000438 -0.0002245 -0.0009064 0.0000448 -0.0000468 -0.0000256 -0.0001131 0.0000099 -0.0001164 -0.0000301 -0.0001911 0.0000044 0.0000534 -0.0000890 -0.0003142 0.0000124 -0.0002330 -0.0000341 -0.0000582 0.0001929 0.0001081 -0.0004785 0.0000765 0.0002127 -0.0000035 -0.0000273 -0.0001102 0.0001477 -0.0004670 -0.0000039 -0.0003443 0.0000103 -0.0000485 -0.0001338 -0.0000353 0.0003921 -0.0003776 0.0000559 0.0000671 -0.0001554 -0.0003666 -0.0000058 -0.0001064 -0.0011453 -0.0010919 -0.0001787 -0.0004118 0.0001769 -0.0016928 0.0001051 0.0000288 0.0024140 -0.0049014 -0.0010816 0.0002809 0.0001837 0.0003009 -0.0000863 -0.0005794 -0.0004265 -0.0012688 0.0001658 0.0002694 -0.0001091 -0.0003689 -0.0000592 -0.0006260 0.0002083 0.0014478 0.0004165 0.0012287 0.0002943 0.0002492 0.0003124 0.0006467 -0.0001292 -0.0004100 0.0000392 0.0001161 0.0001499 0.0003136 0.0000378 -0.0000079 0.0001037 0.0001252 -0.0000358 0.0003735 0.0000315 0.0002068 -0.0071610 0.0117454 -0.0022356 -0.0019871 0.0063218 0.0057766 -0.0003315 -0.0007030 -0.0005077 0.0024293 0.0040004 0.0027467 0.0013679 0.0040731 -0.0006860 0.0004884 0.0011228 0.0048377 0.0010910 0.0009709 0.0004479 0.0019244 -0.0004860 0.0006363
-0.0000200 -0.0001719 -0.0000299 -0.0001162 -0.0000246 -0.0003314 -0.0000680 -0.0001673 -0.0000173 -0.0000989 -0.0000067 -0.0000694 0.0000911 0.0003038 0.0000444 0.0000097 0.0000105 0.0000877 -0.0000542 -0.0001626 -0.0000587 -0.0001280 -0.0000021 -0.0000284 -0.0000308 -0.0003993 0.0000106 -0.0001039 -0.0002515 -0.0012213 0.0000236 -0.0000779 -0.0000205 -0.0000945 0.0000272 0.0000073 -0.0000105 -0.0001219 0.0000038 0.0000372 -0.0000582 -0.0001085 -0.0000094 -0.0003069 0.0000149 0.0000939 0.0002809 0.0001337 0.0001164 0.0001619 0.0001581 0.0001220 0.0000587 0.0003539 0.0002609 0.0001619 0.0001138 0.0000993 -0.0000727 -0.0003077 -0.0000370 -0.0002956 0.0003069 -0.0005053 -0.0000295 -0.0001355 0.0000703 -0.0004004 -0.0000137 -0.0002466 -0.0006642 -0.0013848 -0.0005618 -0.0001274 0.0000633 -0.0017771 0.0001054 -0.0001470 -0.0000415 -0.0041179 -0.0002569 -0.0003355 0.0003154 0.0003549 0.0000243 -0.0009339 -0.0006692 -0.0013226 0.0002642 0.0003359 -0.0001654 -0.0005342 -0.0001112 -0.0008106 0.0000927 0.0009139 0.0004644 0.0009292 0.0002614 -0.0000263 0.0004140 0.0006468 -0.0001178 -0.0004098 0.0000649 0.0001841 0.0001602 0.0002742 0.0000488 -0.0000474 0.0001176 0.0001878 -0.0000026 0.0003402 0.0000755 0.0002760 -0.0008460 -0.0007067 -0.0018044 -0.0038350 0.0049703 0.0062764 -0.0002943 -0.0013441 0.0006408 0.0030351 0.0040721 0.0042600 0.0012639 0.0037166 -0.0003518 0.0010696 0.0010116 0.0042586 -0.0017302 0.0030113 0.0001543 0.0020004 -0.0006035 0.0014404
-0.0000047 -0.0001328 0.0000028 -0.0001300 -0.0000128 -0.0003154 -0.0000023 -0.0000493 0.0000013 -0.0000609 -0.0000107 -0.0002068 0.0000620 0.0000895 0.0000523 0.0000354 0.0000465 0.0000538 -0.0000027 -0.0000748 -0.0000310 -0.0001422 0.0000076 0.0000311 -0.0000338 -0.0004208 0.0000103 -0.0001758 -0.0001613 -0.0009461 -0.0000087 -0.0001980 0.0000304 -0.0000277 0.0000338 -0.0000148 0.0000304 -0.0000821 0.0000161 -0.0000511 -0.0000218 0.0000799 0.0000043 -0.0003155 0.0000611 0.0000861 0.0002143 -0.0001072 0.0005121 0.0004901 0.0001543 0.0000552 0.0001580 0.0005738 0.0003370 0.0004574 0.0001871 0.0003602 -0.0001156 -0.0005971 -0.0000354 -0.0002503 -0.0002646 -0.0000036 -0.0000851 -0.0002236 0.0001529 -0.0002832 -0.0000173 -0.0002293 0.0021446 -0.0029920 -0.0008535 0.0003536 0.0004997 -0.0000920 -0.0000246 -0.0013511 0.0036158 -0.0056156 0.0005968 -0.0010502 0.0006284 0.0003795 0.0000285 -0.0016244 -0.0008405 -0.0016478 0.0003759 0.0006869 -0.0002942 -0.0009164 -0.0002452 -0.0011246 -0.0000701 0.0002955 0.0008450 0.0014877 0.0002304 -0.0006985 0.0007378 0.0011557 -0.0001749 -0.0004197 0.0001475 0.0005388 0.0001409 0.0003414 0.0000714 -0.0001951 0.0000962 0.0003587 0.0000465 0.0007569 0.0000742 0.0004600 -0.0058906 0.0148142 -0.0032273 -0.0059990 0.0048636 0.0074457 -0.0001973 -0.0019753 0.0000191 0.0099063 0.0045263 0.0089226 0.0012296 0.0037635 -0.0000030 0.0016480 0.0008032 0.0041138 0.0009803 0.0014823 0.0001524 0.0019435 -0.0002847 0.0020031
-0.0000076 -0.0003012 0.0000162 -0.0001829 -0.0000183 -0.0004574 0.0000502 -0.0000164 0.0000315 -0.0001302 0.0000065 -0.0003573 0.0000366 -0.0001516 0.0000696 -0.0000545 0.0000779 -0.0000843 0.0000419 -0.0000777 0.0000203 -0.0001582 0.0000577 -0.0000273 -0.0000163 -0.0003027 0.0000219 -0.0001570 0.0000038 -0.0002113 -0.0000093 -0.0002645 0.0000691 0.0000127 0.0000255 -0.0001760 0.0000552 -0.0001195 0.0000227 -0.0001331 0.0000136 0.0000771 0.0000342 -0.0002232 0.0000504 -0.0000927 0.0000410 -0.0004752 0.0009525 0.0004804 0.0001590 -0.0000926 0.0001670 0.0005253 0.0003284 0.0004753 0.0001805 0.0004282 -0.0000348 -0.0006848 -0.0000010 -0.0001471 -0.0003815 0.0000667 -0.0000456 -0.0000515 -0.0000689 0.0001435 -0.0000105 -0.0000482 0.0024108 -0.0019242 -0.0006002 0.0004128 0.0012932 0.0011219 -0.0003630 -0.0028456 0.0027524 -0.0041175 -0.0000071 -0.0014540 0.0008788 -0.0002085 0.0002474 -0.0022521 -0.0008495 -0.0020329 0.0005680 0.0011455 -0.0003902 -0.0011776 -0.0003078 -0.0012363 -0.0000314 0.0003929 0.0013439 0.0022305 0.0003194 -0.0009986 0.0011680 0.0018685 -0.0002639 -0.0005698 0.0002004 0.0007122 0.0001633 0.0003818 0.0001106 -0.0003256 0.0001035 0.0004569 0.0001134 0.0011431 0.0000187 0.0002612 -0.0027422 0.0093268 -0.0056169 -0.0078393 0.0050791 0.0073980 -0.0001598 -0.0024713 0.0006234 0.0126604 0.0038968 0.0115072 0.0012690 0.0035686 0.0001761 0.0017193 0.0007058 0.0038993 0.0031034 -0.0009596 0.0002927 0.0017139 -0.0001868 0.0021837
-0.0000109 -0.0001797 0.0000213 -0.0000756 -0.0000411 -0.0003696 0.0000638 0.0000794 0.0000185 0.0001065 0.0000071 -0.0002083 0.0000142 -0.0001306 0.0000632 0.0001135 0.0000777 0.0000716 0.0000316 0.0000319 0.0000251 0.0000240 0.0000525 0.0000520 -0.0000039 -0.0000729 0.0000161 -0.0000540 0.0000824 0.0002774 -0.0000095 -0.0001732 0.0000523 0.0000792 0.0000090 -0.0001069 0.0000544 -0.0000265 0.0000158 -0.0000825 0.0000301 0.0001690 0.0000333 -0.0001169 0.0000339 -0.0000746 -0.0000296 -0.0006048 0.0006487 0.0007464 0.0000819 -0.0001222 0.0001172 0.0005669 0.0002864 0.0004477 0.0001743 0.0004907 -0.0001016 -0.0006809 0.0000490 -0.0002174 0.0000952 -0.0004014 0.0000020 -0.0000598 0.0000961 0.0001102 -0.0000096 0.0000149 0.0030011 -0.0006580 -0.0005234 0.0001453 0.0015224 0.0009075 -0.0004324 -0.0030466 0.0017308 -0.0021333 0.0002100 -0.0021645 0.0007273 -0.0010608 0.0005827 -0.0023657 -0.0009177 -0.0019920 0.0007537 0.0010676 -0.0003210 -0.0011300 -0.0001821 -0.0011565 0.0001423 0.0007246 0.0014734 0.0022318 0.0004135 -0.0006639 0.0012640 0.0020502 -0.0002803 -0.0006833 0.0001845 0.0004402 0.0002139 0.0003827 0.0000954 -0.0002926 0.0001416 0.0004004 0.0001561 0.0010447 -0.0000046 -0.0000489 0.0033984 -0.0139925 -0.0053497 -0.0087343 0.0046674 0.0069208 -0.0000624 -0.0027982 0.0013056 0.0111782 0.0030114 0.0115562 0.0012125 0.0035166 0.0002775 0.0016231 0.0007290 0.0035762 0.0016977 0.0001249 0.0004376 0.0016021 -0.0000649 0.0017253
-0.0000133 -0.0001401 0.0000162 -0.0000313 -0.0000472 -0.0003884 0.0000688 0.0000949 0.0000076 0.0000549 0.0000140 -0.0001391 0.0000141 -0.0000943 0.0000604 0.0000853 0.0000731 0.0000549 0.0000302 0.0000432 0.0000352 0.0000620 0.0000416 0.0000694 0.0000028 -0.0000227 0.0000123 -0.0000035 0.0001069 0.0003821 -0.0000086 -0.0001635 0.0000594 0.0000891 0.0000039 -0.0001138 0.0000543 -0.0000354 0.0000059 -0.0000741 0.0000352 0.0001507 0.0000314 -0.0000897 0.0000352 -0.0000588 -0.0000544 -0.0006762 0.0004803 0.0007082 0.0000044 -0.0001792 0.0001394 0.0004666 0.0002380 0.0003278 0.0001672 0.0004210 -0.0001115 -0.0006744 0.0000015 -0.0003215 0.0003507 -0.0007247 0.0000109 -0.0000670 0.0001276 -0.0000586 -0.0000099 0.0000051 0.0042183 -0.0003509 0.0000544 -0.0010667 0.0011124 0.0004104 -0.0003875 -0.0024348 0.0027823 -0.0016043 0.0013770 -0.0026329 0.0006142 -0.0011994 0.0003159 -0.0019544 -0.0007528 -0.0013015 0.0008163 0.0012586 -0.0001877 -0.0008539 -0.0000138 -0.0008593 0.0001090 0.0002298 0.0014672 0.0022367 0.0003365 -0.0001225 0.0013137 0.0023206 -0.0002446 -0.0005637 0.0000940 0.0001702 0.0002529 0.0004773 -0.0000097 -0.0001491 0.0002662 0.0005101 0.0001225 0.0007700 0.0000704 0.0000158 0.0050751 -0.0229879 -0.0050513 -0.0091863 0.0049295 0.0057674 0.0000061 -0.0035851 0.0027636 0.0087136 0.0013234 0.0094851 0.0009931 0.0029950 -0.0003272 -0.0000985 0.0006182 0.0030053 -0.0005911 0.0019558 0.0001670 0.0013978 -0.0010124 0.0019460
-0.0000265 -0.0002144 0.0000134 -0.0000435 -0.0000616 -0.0005563 0.0000077 -0.0000642 0.0000037 -0.0000769 0.0000201 -0.0001733 0.0000294 -0.0001064 0.0000561 -0.0000464 0.0000723 -0.0000323 0.0000242 -0.0000217 0.0000519 0.0000170 0.0000376 0.0000100 0.0000168 -0.0000281 0.0000126 0.0000006 0.0000953 0.0003029 -0.0000093 -0.0001458 0.0000551 0.0000531 0.0000029 -0.0001605 0.0000394 -0.0000771 -0.0000030 -0.0000613 0.0000235 0.0000475 0.0000697 -0.0000179 0.0000118 -0.0000019 -0.0000714 -0.0006120 0.0007688 0.0002434 0.0000138 -0.0001111 0.0001448 0.0005378 0.0001550 0.0003647 0.0001253 0.0005102 -0.0000612 -0.0005485 0.0000119 -0.0003211 0.0000603 -0.0001534 -0.0000096 0.0001924 0.0000632 -0.0000198 -0.0000046 0.0001345 0.0027492 0.0011335 0.0003445 -0.0025599 0.0007329 0.0000646 -0.0003961 -0.0021362 0.0044175 -0.0039146 0.0012034 -0.0024455 0.0005574 -0.0011989 0.0003079 -0.0018027 -0.0004750 -0.0003153 0.0009093 0.0015879 -0.0000272 -0.0006499 0.0001238 -0.0005755 -0.0000676 -0.0009932 0.0014723 0.0022962 0.0001832 0.0003686 0.0013933 0.0025542 -0.0001355 -0.0004724 0.0000041 -0.0002534 0.0003304 0.0003812 -0.0001176 -0.0001390 0.0004530 0.0006424 0.0000410 0.0001971 0.0001536 -0.0000868 -0.0046700 -0.0062407 -0.0035292 -0.0121807 0.0049016 0.0027036 -0.0000478 -0.0044518 0.0042316 0.0026233 -0.0022990 0.0043910 0.0007471 0.0023748 -0.0013729 -0.0027736 0.0006407 0.0023109 0.0010598 0.0000613 -0.0001192 0.0007648 -0.0005839 0.0002137
-0.0000404 -0.0001780 0.0000167 0.0000161 -0.0000638 -0.0006376 -0.0000704 -0.0000795 -0.0000081 -0.0001077 -0.0000064 -0.0001776 0.0000491 0.0000203 0.0000348 -0.0000360 0.0000557 -0.0000364 -0.0000025 -0.0000716 0.0000425 0.0000184 0.0000102 0.0000190 0.0000257 0.0000045 0.0000308 0.0000573 0.0000283 0.0000769 0.0000008 -0.0001277 0.0000501 0.0000538 -0.0000066 -0.0002074 0.0000112 -0.0001381 0.0000019 -0.0000325 -0.0000166 -0.0001234 0.0001594 0.0000188 0.0000118 0.0001623 -0.0000533 -0.0005344 0.0007442 -0.0000819 0.0000627 -0.0001297 0.0000742 0.0004309 0.0000812 0.0001097 0.0000850 0.0003954 -0.0000463 -0.0005109 -0.0000466 -0.0002576 0.0001797 -0.0002669 0.0000140 0.0001460 0.0001427 -0.0001239 -0.0000093 0.0001786 0.0020963 0.0021275 0.0002699 -0.0031876 0.0006376 0.0000675 -0.0003090 -0.0017603 0.0027546 -0.0011183 0.0004453 -0.0020786 0.0004965 -0.0013797 0.0007065 -0.0016275 -0.0000048 0.0002959 0.0009692 0.0016989 0.0001205 -0.0003862 0.0001904 -0.0003618 -0.0001671 -0.0018875 0.0012871 0.0018644 0.0000316 0.0006432 0.0013125 0.0024918 -0.0000058 -0.0002787 -0.0000602 -0.0004750 0.0003894 0.0004283 -0.0001321 -0.0000747 0.0005379 0.0008816 -0.0000618 -0.0001686 0.0001537 -0.0002024 -0.0031008 0.0006953 -0.0045359 -0.0114853 0.0022944 -0.0031626 0.0001437 -0.0041361 -0.0002653 -0.0056356 -0.0053751 -0.0019686 0.0005176 0.0015132 -0.0014565 -0.0034626 0.0005303 0.0005714 0.0028909 -0.0009676 -0.0003458 -0.0001290 -0.0012247 -0.0005909
-0.0000496 -0.0003584 0.0000093 -0.0000555 -0.0000352 -0.0007476 -0.0001041 0.0000851 -0.0000281 -0.0003239 -0.0000198 -0.0002989 0.0000854 0.0001376 0.0000381 -0.0001691 0.0000311 -0.0001135 0.0000016 -0.0002044 0.0000271 -0.0000313 0.0000048 0.0000337 0.0000342 -0.0001065 0.0000586 0.0000328 -0.0000957 -0.0005545 0.0000202 -0.0001855 0.0000596 0.0000304 -0.0000150 -0.0003328 -0.0000270 -0.0002742 0.0000104 -0.0000264 -0.0000575 -0.0003437 0.0002540 0.0000046 0.0000866 0.0004322 0.0000208 -0.0004605 0.0006801 -0.0003219 0.0001160 -0.0001674 0.0000538 0.0001499 0.0000544 -0.0002101 0.0000862 0.0001695 -0.0000486 -0.0005026 -0.0001501 -0.0001516 0.0002572 -0.0005238 0.0000270 0.0000619 0.0002837 -0.0003246 0.0000006 0.0001466 0.0043511 0.0064424 -0.0001619 -0.0022801 0.0029417 0.0042280 -0.0001645 -0.0010550 0.0040561 0.0067284 0.0007421 -0.0008222 0.0004610 -0.0013347 0.0009256 -0.0008516 0.0005823 0.0012577 0.0006921 0.0012877 0.0002239 0.0000071 0.0002080 -0.0001238 -0.0000545 -0.0020390 0.0008004 0.0006140 -0.0001536 0.0003000 0.0008777 0.0014463 0.0001046 0.0000540 -0.0000872 -0.0004573 0.0003209 0.0002366 -0.0001006 0.0001162 0.0005070 0.0008980 -0.0002266 -0.0005269 0.0001045 -0.0004230 0.0044203 -0.0088598 -0.0067940 -0.0148130 -0.0048068 -0.0112492 0.0001712 -0.0025873 -0.0040412 -0.0184675 -0.0094089 -0.0095421 -0.0002090 -0.0017276 -0.0011698 -0.0040025 0.0001332 -0.0030445 0.0017584 -0.0004761 -0.0008531 -0.0012701 -0.0020167 -0.0016900
-0.0000555 -0.0004432 -0.0000088 -0.0001401 0.0000071 -0.0005921 -0.0001229 0.0004438 -0.0000569 -0.0002998 -0.0000447 -0.0003157 0.0000926 0.0002067 0.0000380 -0.0001950 0.0000021 -0.0000275 -0.0000245 -0.0002438 0.0000045 0.0000130 -0.0000183 0.0000291 0.0000044 -0.0003135 0.0000142 -0.0002216 -0.0002580 -0.0014826 0.0000110 -0.0001746 0.0000125 -0.0000191 -0.0000238 -0.0002936 -0.0000773 -0.0002709 0.0000041 0.0000030 -0.0001095 -0.0004011 0.0002839 0.0000326 0.0001434 0.0007315 0.0001003 -0.0002374 0.0002433 -0.0001451 0.0001126 -0.0000275 0.0000367 0.0002334 0.0000906 -0.0001323 0.0001209 0.0002555 -0.0000871 -0.0004436 -0.0003348 -0.0003033 0.0002324 -0.0006561 -0.0000231 0.0001189 0.0001047 -0.0004686 -0.0000567 -0.0000340 0.0053379 0.0112641 0.0001106 -0.0009107 0.0053086 0.0092860 -0.0000382 -0.0008503 0.0054828 0.0130671 0.0014516 0.0018735 0.0002076 -0.0008744 0.0005469 0.0000053 0.0012227 0.0030864 -0.0000399 -0.0000395 0.0002439 0.0004383 0.0002270 0.0005301 0.0001921 -0.0019239 -0.0002661 -0.0019182 -0.0003539 -0.0000032 -0.0002260 -0.0007961 0.0001681 0.0004335 -0.0001419 -0.0003805 0.0000921 -0.0002253 -0.0000243 0.0003301 0.0003852 0.0006473 -0.0003721 -0.0007392 -0.0000075 -0.0005995 -0.0064752 0.0037030 -0.0094602 -0.0326551 -0.0101109 -0.0140518 0.0000468 -0.0007127 0.0005235 -0.0234714 -0.0122592 -0.0124547 -0.0011753 -0.0051268 -0.0013432 -0.0044567 -0.0003244 -0.0056829 0.0018326 -0.0004835 -0.0011789 -0.0028184 -0.0006589 -0.0033645
-0.0000616 -0.0003905 -0.0000344 -0.0002341 0.0000351 -0.0004732 -0.0001259 0.0005311 -0.0000837 -0.0002760 -0.0000997 -0.0004439 0.0000614 0.0001461 0.0000080 -0.0001656 -0.0000286 -0.0000675 -0.0000760 -0.0003306 -0.0000418 -0.0000081 -0.0000508 -0.0001639 -0.0000855 -0.0007351 -0.0000909 -0.0008252 -0.0003970 -0.0024688 -0.0000154 -0.0002631 -0.0000317 -0.0001277 0.0000003 -0.0002558 -0.0001099 -0.0003047 0.0000142 -0.0000739 -0.0001448 -0.0004979 0.0002601 -0.0000196 0.0001454 0.0007502 0.0001476 -0.0001093 -0.0001108 0.0000870 0.0000603 -0.0000027 0.0000565 0.0002595 0.0001000 0.0000408 0.0001260 0.0003892 -0.0001130 -0.0006246 -0.0004501 -0.0010769 0.0003932 -0.0010557 -0.0000336 -0.0000111 -0.0000596 -0.0007800 -0.0001101 -0.0003472 0.0043297 0.0110057 0.0000741 0.0003374 0.0055035 0.0106448 -0.0000720 -0.0009038 0.0044114 0.0155985 0.0023162 0.0037501 -0.0000875 0.0002262 -0.0001218 0.0010071 0.0017593 0.0038955 -0.0007152 -0.0012326 0.0001686 0.0007913 0.0002626 0.0011968 0.0003949 -0.0013447 -0.0013273 -0.0039903 -0.0004236 0.0000811 -0.0013392 -0.0025573 0.0001998 0.0006595 -0.0001249 -0.0000351 -0.0000993 -0.0003067 0.0000349 0.0004163 0.0002333 0.0005938 -0.0003815 -0.0004818 -0.0001178 -0.0004551 -0.0094104 0.0092223 -0.0138287 -0.0429201 -0.0107569 -0.0138261 0.0002027 0.0005092 -0.0045461 -0.0186668 -0.0137795 -0.0108974 -0.0016792 -0.0061283 -0.0016548 -0.0045060 -0.0005274 -0.0062027 0.0017970 -0.0001520 -0.0010898 -0.0036567 0.0000659 -0.0041614
-0.0000563 -0.0003724 -0.0000596 -0.0003399 0.0000545 -0.0004378 -0.0001247 0.0002936 -0.0000807 -0.0002729 -0.0001431 -0.0006358 0.0000326 0.0000524 0.0000024 -0.0001631 -0.0000519 -0.0001497 -0.0000909 -0.0004059 -0.0000680 -0.0000312 -0.0000987 -0.0002986 -0.0001667 -0.0011287 -0.0002123 -0.0015493 -0.0004762 -0.0032402 -0.0000362 -0.0003897 -0.0000551 -0.0002091 0.0000270 -0.0002216 -0.0001180 -0.0003222 0.0000348 -0.0001527 -0.0001531 -0.0005675 0.0002490 -0.0000600 0.0001360 0.0007079 0.0002170 -0.0000737 -0.0000197 0.0000936 0.0001155 -0.0000138 0.0000565 0.0002300 0.0001959 0.0002384 0.0001220 0.0005505 -0.0002225 -0.0006088 -0.0005280 -0.0015478 0.0002098 -0.0008697 -0.0000348 0.0000575 0.0000352 -0.0009101 -0.0001237 -0.0003027 0.0017892 0.0098327 -0.0001964 0.0003783 0.0045489 0.0097986 -0.0001573 -0.0007722 0.0026847 0.0148590 0.0026867 0.0038010 -0.0000760 0.0009847 0.0000001 0.0013723 0.0018855 0.0034516 -0.0008515 -0.0015914 0.0001273 0.0007739 0.0002487 0.0013156 0.0004213 -0.0008958 -0.0015272 -0.0039869 -0.0003504 0.0000467 -0.0015715 -0.0030197 0.0002008 0.0005794 0.0000026 0.0001828 -0.0001204 -0.0005116 0.0000494 0.0002989 0.0001604 0.0004568 -0.0003339 -0.0002426 -0.0001093 -0.0002936 -0.0056736 0.0130136 -0.0091588 -0.0418358 -0.0099649 -0.0111152 0.0002780 0.0011143 -0.0021151 -0.0172713 -0.0137234 -0.0076124 -0.0016119 -0.0059469 -0.0017618 -0.0047006 -0.0004075 -0.0056911 0.0013576 0.0008271 -0.0011238 -0.0031487 -0.0009806 -0.0049083
-0.0000455 -0.0002060 -0.0000702 -0.0002720 0.0000754 -0.0001738 -0.0001169 0.0002758 -0.0000863 -0.0000046 -0.0001613 -0.0005181 0.0000197 0.0001197 0.0000008 0.0000208 -0.0000385 0.0000055 -0.0000963 -0.0002589 -0.0000673 0.0001449 -0.0001276 -0.0001722 -0.0002070 -0.0012451 -0.0003038 -0.0020127 -0.0005070 -0.0035616 -0.0000608 -0.0003611 -0.0000707 -0.0001354 0.0000200 -0.0000819 -0.0001179 -0.0002025 0.0000410 -0.0001290 -0.0001628 -0.0004193 0.0002136 -0.0000928 0.0001249 0.0006597 0.0002672 -0.0000261 0.0003088 -0.0000437 0.0001786 -0.0000079 0.0000574 0.0002072 0.0002761 0.0003426 0.0001610 0.0005738 -0.0002518 -0.0005003 -0.0005697 -0.0013119 0.0004897 -0.0008278 0.0000430 0.0001467 0.0000715 -0.0005299 -0.0000970 -0.0001403 0.0005173 0.0085916 -0.0000426 -0.0002568 0.0036907 0.0089215 0.0001579 -0.0007492 0.0014716 0.0124952 0.0023338 0.0036494 0.0002157 0.0018336 0.0000120 0.0014968 0.0017093 0.0032373 -0.0008273 -0.0016398 0.0001346 0.0006454 0.0002396 0.0012309 0.0007037 0.0003743 -0.0015014 -0.0034330 -0.0004665 0.0000516 -0.0017236 -0.0032374 0.0002152 0.0006317 0.0000539 0.0003818 -0.0001060 -0.0006611 0.0000453 0.0003454 0.0002014 0.0004611 -0.0003470 0.0001255 -0.0001773 -0.0003119 -0.0030002 0.0099298 -0.0073769 -0.0405209 -0.0089695 -0.0077206 0.0002942 0.0014643 0.0032556 -0.0207766 -0.0114497 -0.0076051 -0.0014052 -0.0051379 -0.0018141 -0.0045187 -0.0003960 -0.0048953 0.0003953 0.0026086 -0.0012503 -0.0021885 -0.0029177 -0.0044595
-0.0000271 -0.0002719 -0.0000811 -0.0002960 0.0000800 -0.0001937 -0.0000813 -0.0000927 -0.0000718 0.0000225 -0.0001114 -0.0004139 0.0000398 0.0002166 -0.0000064 0.0000037 -0.0000014 0.0000257 -0.0000801 -0.0001654 -0.0000221 0.0002614 -0.0000918 -0.0000102 -0.0002062 -0.0011819 -0.0003093 -0.0018329 -0.0004798 -0.0032231 -0.0000348 -0.0002748 -0.0000506 -0.0001068 0.0000176 -0.0000700 -0.0001024 -0.0001101 0.0000431 -0.0000882 -0.0001499 -0.0003036 0.0001026 -0.0001537 0.0000843 0.0003907 0.0002698 0.0000605 0.0003194 -0.0000482 0.0001794 -0.0000142 0.0000311 -0.0000423 0.0001353 0.0001611 0.0001121 0.0003383 -0.0001538 -0.0004161 -0.0004182 -0.0009978 0.0002509 -0.0002481 0.0001090 0.0002931 0.0001329 -0.0001355 -0.0000262 0.0000507 -0.0014758 0.0063043 -0.0003413 -0.0005274 0.0028424 0.0072268 0.0006833 -0.0005283 0.0009551 0.0096095 0.0017329 0.0040193 0.0002676 0.0025270 -0.0002748 0.0016469 0.0015619 0.0030206 -0.0008926 -0.0017177 0.0001098 0.0006195 0.0003394 0.0010720 0.0008379 0.0016583 -0.0014542 -0.0025110 -0.0004282 0.0001914 -0.0019600 -0.0035062 0.0002467 0.0007333 0.0001162 0.0007087 -0.0001277 -0.0005811 0.0000309 0.0004510 0.0002141 0.0006006 -0.0003591 0.0005585 -0.0002729 -0.0003806 0.0000764 -0.0101645 -0.0077052 -0.0340181 -0.0083245 -0.0044949 0.0002116 0.0016985 -0.0082529 -0.0106169 -0.0093847 -0.0075000 -0.0013471 -0.0046653 -0.0016547 -0.0041523 -0.0004633 -0.0042623 -0.0004528 0.0037242 -0.0011979 -0.0017349 -0.0040375 -0.0033205
-0.0000264 -0.0003782 -0.0000976 -0.0002656 0.0000877 -0.0001570 0.0000068 -0.0004171 -0.0000422 -0.0000423 -0.0000421 -0.0001900 0.0000705 0.0003249 -0.0000036 -0.0000772 0.0000208 0.0000377 -0.0000635 -0.0001027 0.0000220 0.0003017 -0.0000358 0.0001226 -0.0001737 -0.0008955 -0.0002614 -0.0013054 -0.0004047 -0.0023958 0.0000129 -0.0000934 -0.0000511 -0.0000893 0.0000240 -0.0000011 -0.0001026 0.0000106 0.0000352 -0.0000018 -0.0001375 -0.0001720 -0.0000650 -0.0001299 0.0000187 0.0001129 0.0002441 0.0001714 0.0000967 0.0000831 0.0001801 0.0000529 -0.0001045 -0.0006204 0.0000106 -0.0001334 -0.0000285 0.0000123 -0.0001410 -0.0000264 -0.0003797 -0.0007314 -0.0000532 0.0001480 0.0001156 0.0006345 0.0000926 -0.0000789 0.0000162 0.0003072 -0.0024186 0.0048024 -0.0001336 -0.0010793 0.0023875 0.0062953 0.0006801 -0.0009328 0.0006874 0.0085226 0.0016424 0.0037895 -0.0000008 0.0023404 -0.0005932 0.0015378 0.0014651 0.0028205 -0.0009529 -0.0017044 0.0000980 0.0005957 0.0003627 0.0011535 0.0006283 0.0015879 -0.0013536 -0.0017690 -0.0001933 0.0005827 -0.0019120 -0.0033955 0.0002348 0.0006748 0.0001533 0.0007487 -0.0001098 -0.0006208 0.0000311 0.0004229 0.0002005 0.0005756 -0.0003085 0.0007527 -0.0002227 -0.0002894 -0.0100574 0.0060303 -0.0077715 -0.0299356 -0.0082901 -0.0022249 0.0002644 0.0016136 -0.0121166 -0.0053635 -0.0086004 -0.0066715 -0.0012748 -0.0043956 -0.0017420 -0.0039184 -0.0004230 -0.0037405 -0.0010492 0.0044795 -0.0009361 -0.0017314 -0.0043646 -0.0026707
-0.0000522 -0.0003206 -0.0001281 -0.0000622 0.0000911 -0.0001379 0.0000721 -0.0002140 -0.0000321 -0.0000186 -0.0000059 0.0000902 0.0000974 0.0004863 -0.0000043 -0.0000325 0.0000157 0.0000669 -0.0000792 -0.0000878 0.0000279 0.0002975 -0.0000220 0.0001346 -0.0001345 -0.0005810 -0.0001900 -0.0008585 -0.0003304 -0.0015595 0.0000460 0.0000463 -0.0000505 -0.0000624 0.0000389 0.0000829 -0.0001205 0.0000417 0.0000235 0.0000287 -0.0001633 -0.0001657 -0.0001357 -0.0001174 -0.0000369 -0.0001496 0.0002238 0.0000857 -0.0001048 -0.0000547 0.0002040 -0.0000206 -0.0002770 -0.0011964 -0.0000318 -0.0002492 -0.0000607 -0.0002660 -0.0000415 0.0000361 -0.0003882 -0.0006262 0.0002552 -0.0000466 0.0001581 0.0006853 0.0000618 -0.0001126 0.0000529 0.0003525 -0.0006562 0.0039939 -0.0003546 -0.0011689 0.0026288 0.0076344 0.0004617 -0.0017799 -0.0013407 0.0099042 0.0012233 0.0040681 0.0000083 0.0024241 -0.0005110 0.0013537 0.0013509 0.0026726 -0.0009097 -0.0014609 0.0000378 0.0005537 0.0002804 0.0012166 0.0005635 0.0015944 -0.0013204 -0.0014177 -0.0002134 0.0005608 -0.0018477 -0.0030672 0.0002251 0.0007920 0.0001284 0.0009888 -0.0000944 -0.0003217 0.0000182 0.0005343 0.0002157 0.0008064 -0.0002693 0.0014163 -0.0003278 -0.0002966 -0.0061207 0.0029539 -0.0109201 -0.0252324 -0.0083213 -0.0014754 0.0004549 0.0015081 0.0000344 -0.0135739 -0.0071240 -0.0072751 -0.0011265 -0.0039273 -0.0019710 -0.0038478 -0.0002695 -0.0032571 -0.0015642 0.0037648 -0.0009918 -0.0012857 -0.0032197 -0.0035097
-0.0000576 -0.0003243 -0.0001417 0.0000194 0.0000667 -0.0004208 0.0000636 -0.0001451 -0.0000176 -0.0000812 0.0000097 0.0001839 0.0001378 0.0006352 0.0000078 -0.0000457 0.0000101 0.0000672 -0.0000880 -0.0001537 0.0000172 0.0002848 -0.0000147 0.0001210 -0.0000889 -0.0003420 -0.0001016 -0.0003775 -0.0002749 -0.0009383 0.0000792 0.0001133 -0.0000390 -0.0000896 0.0000497 0.0000848 -0.0001266 -0.0000236 0.0000189 0.0000133 -0.0001989 -0.0002760 -0.0000958 -0.0001149 -0.0000628 -0.0002779 0.0002307 0.0000308 -0.0002246 -0.0003300 0.0002956 -0.0000252 -0.0003439 -0.0011811 0.0000940 -0.0002490 -0.0000191 -0.0002479 -0.0000257 0.0000080 -0.0003356 -0.0006174 0.0002442 0.0000661 0.0001895 0.0006010 0.0000776 -0.0000962 0.0000295 0.0003865 -0.0014757 0.0052247 -0.0009458 -0.0009870 0.0027571 0.0077807 0.0004781 -0.0019462 -0.0015304 0.0098036 0.0003551 0.0045388 0.0000906 0.0022738 -0.0002563 0.0013024 0.0013252 0.0024361 -0.0007974 -0.0013892 0.0000361 0.0005398 0.0002368 0.0011337 0.0005428 0.0015752 -0.0012407 -0.0010974 -0.0001727 0.0008088 -0.0017635 -0.0028330 0.0002038 0.0008050 0.0001075 0.0009292 -0.0000606 -0.0002626 0.0000099 0.0006114 0.0002560 0.0008617 -0.0002779 0.0015670 -0.0004419 -0.0006222 0.0060652 -0.0280355 -0.0085705 -0.0216264 -0.0079364 -0.0017905 0.0004908 0.0013662 0.0000888 -0.0144665 -0.0065111 -0.0071050 -0.0010030 -0.0035957 -0.0018552 -0.0038915 -0.0001585 -0.0027879 -0.0009163 0.0028869 -0.0011636 -0.0007276 -0.0029821 -0.0034088
-0.0000573 -0.0002011 -0.0001219 0.0000755 0.0000710 -0.0003073 0.0000390 -0.0000817 -0.0000203 0.0000650 0.0000052 0.0003178 0.0001671 0.0008011 0.0000156 0.0000797 0.0000021 0.0002623 -0.0001146 -0.0000766 -0.0000078 0.0003991 -0.0000266 0.0002601 -0.0000548 -0.0001811 -0.0000433 -0.0000205 -0.0002960 -0.0008632 0.0000812 0.0002080 -0.0000430 -0.0000291 0.0000487 0.0001594 -0.0001243 -0.0000039 0.0000148 0.0000737 -0.0001968 -0.0002923 -0.0000436 -0.0001141 -0.0000443 -0.0001450 0.0002686 0.0001228 -0.0000229 -0.0005233 0.0003503 0.0001267 -0.0002763 -0.0011218 0.0002364 -0.0003050 0.0000007 -0.0002448 -0.0000902 0.0000733 -0.0000950 -0.0006448 -0.0000119 0.0003931 0.0001797 0.0005345 -0.0000984 -0.0000611 0.0000205 0.0003797 -0.0009341 0.0050032 -0.0005898 -0.0013000 0.0026424 0.0070342 0.0004510 -0.0019002 0.0030450 0.0068593 0.0006071 0.0041228 0.0000937 0.0019349 -0.0001888 0.0011472 0.0013087 0.0022824 -0.0007983 -0.0013119 0.0000760 0.0006007 0.0001936 0.0011558 0.0005275 0.0014088 -0.0012074 -0.0010746 -0.0000714 0.0012576 -0.0016233 -0.0025998 0.0001887 0.0006535 0.0001251 0.0006947 -0.0000337 -0.0003248 0.0000299 0.0005658 0.0002650 0.0008246 -0.0002690 0.0011886 -0.0003976 -0.0006976 -0.0123080 0.0122487 -0.0068680 -0.0200698 -0.0077551 -0.0024294 0.0004631 0.0014650 0.0021704 -0.0146046 -0.0076706 -0.0056667 -0.0010300 -0.0030174 -0.0016784 -0.0036403 -0.0001857 -0.0022583 0.0001357 0.0030835 -0.0008401 -0.0006921 -0.0027717 -0.0034079
-0.0000606 -0.0002824 -0.0001184 0.0000388 0.0001109 -0.0002680 0.0000315 -0.0001008 -0.0000257 0.0000149 0.0000048 0.0002572 0.0001971 0.0008225 0.0000160 0.0000659 -0.0000115 0.0002357 -0.0001037 -0.0000899 -0.0000100 0.0003523 -0.0000367 0.0002621 -0.0000539 -0.0003089 -0.0000311 -0.0000180 -0.0003597 -0.0012884 0.0000830 0.0001704 -0.0000365 -0.0000338 0.0000508 0.0001292 -0.0001186 -0.0000795 0.0000082 0.0000897 -0.0001856 -0.0003605 -0.0000421 -0.0002263 -0.0000414 -0.0002178 0.0003741 0.0002526 -0.0002225 -0.0004521 0.0003869 0.0002106 -0.0002981 -0.0014378 0.0002174 -0.0004526 -0.0000305 -0.0005111 -0.0001301 0.0002062 -0.0001106 -0.0007629 -0.0003232 0.0008274 0.0001744 0.0004961 -0.0000970 -0.0004283 0.0000435 0.0002542 -0.0004849 0.0043546 -0.0003502 -0.0012999 0.0024857 0.0064404 0.0004010 -0.0017926 0.0040025 0.0063089 0.0009005 0.0038201 0.0000190 0.0019779 -0.0000722 0.0009086 0.0012495 0.0022263 -0.0008754 -0.0011468 0.0000793 0.0006548 0.0001889 0.0011505 0.0004580 0.0012322 -0.0011997 -0.0010496 -0.0000300 0.0012259 -0.0015379 -0.0024739 0.0001873 0.0006453 0.0001587 0.0007548 -0.0000422 -0.0002695 0.0000309 0.0005668 0.0002505 0.0008728 -0.0002213 0.0011733 -0.0003651 -0.0006870 -0.0053678 0.0096175 -0.0046947 -0.0215324 -0.0079967 -0.0032028 0.0003893 0.0017047 0.0041071 -0.0136829 -0.0093794 -0.0041063 -0.0009944 -0.0029798 -0.0015914 -0.0035401 -0.0001256 -0.0021855 0.0004876 0.0029331 -0.0004729 -0.0007545 -0.0023894 -0.0030268
-0.0000666 -0.0003766 -0.0001353 -0.0000224 0.0001474 -0.0002849 0.0000148 -0.0003123 -0.0000225 -0.0001087 -0.0000070 0.0001268 0.0002021 0.0007071 0.0000287 -0.0000364 -0.0000506 0.0001525 -0.0000943 -0.0001631 -0.0000369 0.0001832 -0.0000435 0.0001165 -0.0001016 -0.0006780 -0.0001007 -0.0004927 -0.0004277 -0.0020121 0.0000698 0.0000794 -0.0000374 -0.0001218 0.0000563 0.0001201 -0.0001283 -0.0001752 0.0000066 0.0000590 -0.0002141 -0.0004354 -0.0000755 -0.0003448 -0.0000603 -0.0003120 0.0005920 0.0005759 -0.0004096 -0.0003904 0.0005037 0.0004593 -0.0003035 -0.0013134 0.0003459 -0.0000981 0.0000268 -0.0003773 -0.0000968 0.0001706 -0.0003623 -0.0008885 -0.0002268 0.0007272 0.0001516 0.0005198 -0.0000725 -0.0006715 0.0000621 0.0001415 -0.0013951 0.0046867 -0.0005420 -0.0011786 0.0022822 0.0058185 0.0003729 -0.0017867 0.0006102 0.0078554 0.0008222 0.0034355 -0.0000248 0.0018377 -0.0000245 0.0009117 0.0012426 0.0021358 -0.0008033 -0.0011451 0.0000903 0.0006678 0.0002180 0.0011507 0.0004004 0.0009438 -0.0011812 -0.0011600 -0.0000385 0.0010948 -0.0014933 -0.0024541 0.0001775 0.0006121 0.0001831 0.0006845 -0.0000233 -0.0003240 0.0000335 0.0005537 0.0002589 0.0008144 -0.0001840 0.0010877 -0.0003454 -0.0007777 0.0090647 -0.0153117 -0.0069514 -0.0198223 -0.0081838 -0.0031599 0.0004676 0.0016346 0.0028836 -0.0125059 -0.0103940 -0.0025887 -0.0010011 -0.0028757 -0.0015690 -0.0034447 -0.0000726 -0.0020926 0.0007593 0.0027171 -0.0007366 -0.0003704 -0.0028846 -0.0021778
-0.0000694 -0.0003164 -0.0001413 -0.0000614 0.0001693 -0.0002711 0.0000011 -0.0004834 -0.0000274 -0.0001000 -0.0000320 -0.0000040 0.0001894 0.0005666 0.0000267 -0.0000617 -0.0000624 0.0001186 -0.0001090 -0.0002123 -0.0000695 0.0000590 -0.0000753 0.0000563 -0.0001640 -0.0011005 -0.0002058 -0.0011729 -0.0004827 -0.0027287 0.0000462 -0.0000272 -0.0000264 -0.0001889 0.0000653 0.0001013 -0.0001315 -0.0002837 0.0000121 -0.0000079 -0.0001973 -0.0005552 -0.0000727 -0.0004774 -0.0000590 -0.0003557 0.0007725 0.0006517 0.0001629 -0.0007184 0.0005909 0.0005254 -0.0002201 -0.0009529 0.0006653 0.0001627 0.0001766 -0.0002114 -0.0000895 -0.0000875 -0.0004099 -0.0009964 -0.0000578 0.0002563 0.0001792 0.0003308 -0.0002160 -0.0006315 0.0000648 -0.0000078 -0.0017040 0.0047059 -0.0009562 -0.0008792 0.0020275 0.0052452 0.0003413 -0.0016947 -0.0016068 0.0087324 0.0008729 0.0031556 0.0000389 0.0017019 -0.0001364 0.0010181 0.0011207 0.0021826 -0.0007435 -0.0010498 0.0000672 0.0007780 0.0002303 0.0012489 0.0003537 0.0008770 -0.0011987 -0.0012514 -0.0000147 0.0008553 -0.0014663 -0.0022861 0.0001768 0.0006500 0.0001888 0.0007925 -0.0000271 -0.0000763 0.0000408 0.0006195 0.0002548 0.0009704 -0.0001721 0.0011382 -0.0003434 -0.0006391 0.0032912 -0.0153125 -0.0147518 -0.0119994 -0.0081089 -0.0006454 0.0003893 0.0020287 0.0054250 -0.0142241 -0.0089527 -0.0033726 -0.0009808 -0.0025912 -0.0014437 -0.0032993 -0.0001221 -0.0018297 0.0000944 0.0030419 -0.0007358 -0.0003048 -0.0035064 -0.0018751
-0.0000522 -0.0003779 -0.0001213 -0.0001545 0.0001543 -0.0004856 0.0000091 -0.0005168 -0.0000129 -0.0001844 -0.0000321 -0.0001531 0.0001875 0.0004021 0.0000333 -0.0001375 -0.0000141 0.0000148 -0.0000757 -0.0002809 -0.0000450 0.0000027 -0.0000745 0.0000768 -0.0001926 -0.0013926 -0.0002594 -0.0016700 -0.0004861 -0.0030757 0.0000570 -0.0001356 0.0000002 -0.0002576 0.0000772 0.0000034 -0.0001123 -0.0004158 0.0000168 -0.0000703 -0.0001814 -0.0006462 -0.0000525 -0.0005967 -0.0000374 -0.0004374 0.0007870 0.0004866 0.0003866 -0.0006669 0.0005612 0.0004208 -0.0002095 -0.0011348 0.0006837 -0.0000394 0.0001699 -0.0004046 -0.0001640 -0.0000491 -0.0004137 -0.0009905 -0.0000126 0.0002439 0.0002412 0.0003993 -0.0000726 -0.0006592 0.0000852 0.0000533 -0.0013602 0.0031994 -0.0011737 -0.0005374 0.0014742 0.0042698 0.0002009 -0.0015827 -0.0005741 0.0065373 0.0012068 0.0030556 0.0000785 0.0018336 -0.0000589 0.0010205 0.0009799 0.0021592 -0.0007855 -0.0010311 0.0000687 0.0007790 0.0001815 0.0013046 0.0003055 0.0009722 -0.0011368 -0.0009907 0.0000741 0.0001375 -0.0014932 -0.0024673 0.0001633 0.0006224 0.0002077 0.0008627 0.0000100 -0.0001423 0.0000352 0.0006251 0.0002406 0.0009043 -0.0001319 0.0011369 -0.0003128 -0.0006757 0.0022020 -0.0120384 -0.0080525 -0.0154420 -0.0064491 0.0049457 0.0003549 0.0025311 0.0038722 -0.0115747 -0.0076236 -0.0040330 -0.0007899 -0.0025477 -0.0016172 -0.0031139 -0.0001396 -0.0016717 0.0003991 0.0025817 -0.0009140 -0.0000362 -0.0034413 -0.0019504
-0.0000466 -0.0004087 -0.0001100 -0.0001164 0.0001347 -0.0004681 0.0000147 -0.0004613 0.0000019 -0.0001175 -0.0000180 -0.0000419 0.0001933 0.0003903 0.0000522 -0.0001113 -0.0000095 0.0001393 -0.0000562 -0.0002374 -0.0000260 0.0001337 -0.0000453 0.0001740 -0.0002011 -0.0015006 -0.0003026 -0.0019862 -0.0004941 -0.0032545 0.0000621 -0.0001374 0.0000084 -0.0002446 0.0000742 0.0000239 -0.0000971 -0.0003712 0.0000205 -0.0000570 -0.0001998 -0.0005722 -0.0000323 -0.0006072 0.0000120 -0.0003439 0.0007190 0.0004541 -0.0001629 -0.0001299 0.0005675 0.0003514 -0.0002690 -0.0012833 0.0004731 -0.0001199 0.0001510 -0.0004969 -0.0001227 -0.0000862 -0.0004155 -0.0009310 -0.0000007 0.0004078 0.0002342 0.0004793 0.0000149 -0.0004236 0.0001205 0.0001701 -0.0006497 -0.0006982 -0.0013804 -0.0005969 0.0009101 0.0023961 -0.0002268 -0.0022613 0.0031582 0.0000433 0.0014498 0.0023093 0.0000509 0.0021853 -0.0000237 0.0007906 0.0009608 0.0016706 -0.0007369 -0.0012155 0.0000392 0.0006914 0.0001818 0.0011815 0.0002319 0.0011802 -0.0010866 -0.0005055 0.0001596 -0.0009959 -0.0016225 -0.0029210 0.0001590 0.0005462 0.0002962 0.0010918 0.0000404 -0.0002819 0.0000270 0.0005915 0.0002415 0.0007564 -0.0000087 0.0013756 -0.0002628 -0.0006861 0.0044454 -0.0002796 -0.0070021 -0.0124686 -0.0033868 0.0087488 0.0004397 0.0030441 -0.0019175 -0.0048856 -0.0067577 -0.0032778 -0.0007202 -0.0020234 -0.0021613 -0.0034676 -0.0000593 -0.0013538 0.0009508 0.0021230 -0.0009517 0.0005034 -0.0043955 -0.0006832
-0.0000587 -0.0005610 -0.0001085 -0.0001631 0.0001418 -0.0005215 0.0000359 -0.0004543 0.0000099 -0.0002658 -0.0000019 -0.0001174 0.0002232 0.0003180 0.0000643 -0.0002166 0.0000103 0.0000898 -0.0000370 -0.0002872 -0.0000215 0.0001383 0.0000318 0.0001810 -0.0001881 -0.0016472 -0.0003058 -0.0021074 -0.0004920 -0.0032739 0.0000626 -0.0002326 0.0000198 -0.0003152 0.0000780 -0.0000711 -0.0000880 -0.0004190 0.0000235 -0.0001111 -0.0001693 -0.0005874 0.0000028 -0.0006514 0.0000535 -0.0003039 0.0006963 0.0003267 -0.0001365 -0.0000645 0.0005796 0.0003001 -0.0002847 -0.0011967 0.0004721 -0.0001789 0.0001999 -0.0005382 -0.0001572 -0.0000797 -0.0003554 -0.0007696 0.0001961 0.0001941 0.0002142 0.0004098 -0.0000375 -0.0002806 0.0001370 0.0002470 -0.0008682 -0.0077756 -0.0013569 -0.0024257 0.0008419 -0.0003657 -0.0014863 -0.0042300 0.0045954 -0.0054429 0.0011539 0.0003717 -0.0004207 0.0026827 -0.0008097 0.0003806 0.0001607 -0.0003686 -0.0007998 -0.0014457 -0.0000523 0.0005483 0.0001129 0.0009133 0.0001079 0.0015732 -0.0013496 -0.0003465 0.0002566 -0.0020520 -0.0020112 -0.0036346 0.0001479 0.0005497 0.0004454 0.0016132 0.0000316 -0.0002931 0.0000114 0.0006664 0.0002237 0.0007197 0.0001502 0.0018234 -0.0002292 -0.0006770 0.0030981 0.0011911 -0.0060139 -0.0075032 -0.0002415 0.0086337 0.0005606 0.0034906 -0.0009012 -0.0031858 -0.0061759 -0.0023088 -0.0008014 -0.0018998 -0.0024451 -0.0051248 0.0000178 -0.0012803 -0.0006568 0.0028161 -0.0005486 0.0004058 -0.0048455 -0.0002542
-0.0000736 -0.0006798 -0.0001015 -0.0002673 0.0001481 -0.0006031 0.0000555 -0.0004225 0.0000111 -0.0004393 0.0000088 -0.0002547 0.0002440 0.0002030 0.0000663 -0.0003545 0.0000418 -0.0000131 -0.0000194 -0.0003845 0.0000007 0.0000946 0.0000321 0.0001975 -0.0001758 -0.0017613 -0.0002923 -0.0021468 -0.0005052 -0.0032888 0.0000666 -0.0003279 0.0000143 -0.0004013 0.0000788 -0.0001795 -0.0000873 -0.0004820 0.0000149 -0.0001333 -0.0001546 -0.0006112 0.0000447 -0.0006357 0.0000697 -0.0002364 0.0007144 0.0003272 -0.0001204 -0.0001392 0.0005483 0.0004520 -0.0002356 -0.0011482 0.0004744 -0.0002447 0.0001874 -0.0004711 -0.0000994 0.0002041 -0.0002486 -0.0004030 0.0001883 0.0004428 0.0002402 0.0005903 -0.0000524 -0.0002380 0.0001519 0.0005057 -0.0024206 -0.0255520 -0.0004108 -0.0064037 -0.0025415 -0.0100310 -0.0033679 -0.0064285 0.0046831 -0.0201412 -0.0028417 -0.0029578 -0.0019032 0.0022812 -0.0027486 -0.0004293 -0.0020061 -0.0046795 -0.0011295 -0.0019820 -0.0001805 0.0003709 -0.0000187 0.0004537 -0.0000597 0.0014920 -0.0018732 -0.0007850 0.0003416 -0.0028964 -0.0027329 -0.0049938 0.0001089 0.0004671 0.0006177 0.0019756 0.0000198 -0.0005280 -0.0000213 0.0006497 0.0001951 0.0005912 0.0002233 0.0019972 -0.0002420 -0.0008249 0.0073008 -0.0037856 -0.0019126 -0.0058556 0.0020447 0.0081140 0.0009724 0.0041430 -0.0002905 0.0017912 -0.0069790 -0.0002753 -0.0009281 -0.0021185 -0.0027477 -0.0071374 -0.0000813 -0.0014374 -0.0017238 0.0031230 -0.0005510 0.0003301 -0.0038254 -0.0009388
-0.0000970 -0.0007595 -0.0001043 -0.0002836 0.0001426 -0.0006110 0.0000562 -0.0003000 -0.0000023 -0.0005176 0.0000132 -0.0002762 0.0002589 0.0001967 0.0000474 -0.0003749 0.0000254 -0.0000341 -0.0000327 -0.0004607 0.0000237 0.0000327 0.0000372 0.0001746 -0.0001754 -0.0018527 -0.0003046 -0.0021140 -0.0005307 -0.0033344 0.0000611 -0.0003924 0.0000051 -0.0004615 0.0000685 -0.0002320 -0.0000920 -0.0005091 0.0000068 -0.0001466 -0.0001835 -0.0006775 0.0000431 -0.0006711 0.0000784 -0.0002334 0.0006631 0.0002584 0.0000558 -0.0005113 0.0005627 0.0003676 -0.0002026 -0.0012925 0.0005006 -0.0006113 0.0001604 -0.0005422 -0.0000301 0.0002482 -0.0001347 -0.0004472 0.0002346 0.0003712 0.0002453 0.0005524 0.0001379 -0.0004105 0.0001507 0.0005426 0.0001536 -0.0638602 0.0007270 -0.0099366 -0.0146419 -0.0277313 -0.0047046 -0.0081482 0.0044894 -0.0531617 -0.0103911 -0.0087306 -0.0051963 0.0010190 -0.0070843 -0.0021463 -0.0048314 -0.0103032 -0.0016950 -0.0025249 -0.0005228 -0.0000658 -0.0003448 -0.0002861 -0.0001452 0.0012885 -0.0026260 -0.0016808 0.0003215 -0.0035396 -0.0038987 -0.0070616 0.0000565 0.0003983 0.0008594 0.0026347 -0.0000444 -0.0006647 -0.0001610 0.0004770 0.0001002 0.0006051 0.0002541 0.0023995 -0.0003473 -0.0007277 0.0013308 0.0057649 -0.0026292 -0.0018112 0.0035928 0.0082244 0.0014721 0.0047200 -0.0005781 0.0072398 -0.0061149 0.0002073 -0.0009692 -0.0024114 -0.0028600 -0.0090688 -0.0002149 -0.0014265 -0.0019866 0.0034552 -0.0007428 0.0004863 -0.0036995 -0.0003915
-0.0001161 -0.0008850 -0.0001056 -0.0003053 0.0001257 -0.0007240 0.0000702 -0.0003173 -0.0000213 -0.0006206 0.0000104 -0.0003633 0.0002605 0.0001140 0.0000406 -0.0004331 0.0000118 -0.0000939 -0.0000431 -0.0005209 0.0000118 -0.0000544 0.0000576 0.0000794 -0.0001710 -0.0019246 -0.0002900 -0.0020309 -0.0005280 -0.0032508 0.0000607 -0.0004551 0.0000069 -0.0005544 0.0000774 -0.0002710 -0.0000868 -0.0005826 0.0000044 -0.0002116 -0.0001761 -0.0007788 0.0000105 -0.0007449 0.0000694 -0.0003027 0.0006157 0.0000278 -0.0000159 -0.0002908 0.0006089 0.0001743 -0.0001501 -0.0013967 0.0005487 -0.0008841 0.0001428 -0.0006423 -0.0000023 0.0001264 -0.0002035 -0.0005725 0.0002694 0.0001881 0.0002419 0.0005304 0.0002061 -0.0003903 0.0001316 0.0005774 0.0021190 -0.0859089 0.0003074 -0.0141517 -0.0192927 -0.0330915 -0.0055043 -0.0098856 -0.0022901 -0.0596299 -0.0132244 -0.0154945 -0.0082109 0.0004228 -0.0112315 -0.0041001 -0.0061855 -0.0135673 -0.0020793 -0.0029232 -0.0009529 -0.0009008 -0.0007625 -0.0010556 -0.0001609 0.0013317 -0.0032228 -0.0022698 0.0003679 -0.0036218 -0.0047641 -0.0087126 0.0000309 0.0001090 0.0010847 0.0031324 -0.0000748 -0.0010002 -0.0003344 0.0001215 0.0000118 0.0004630 0.0003815 0.0027693 -0.0004053 -0.0008901 -0.0070609 0.0112505 -0.0035915 -0.0012828 0.0042796 0.0066398 0.0015336 0.0046563 0.0028883 0.0056044 -0.0048385 -0.0008142 -0.0010681 -0.0027723 -0.0025813 -0.0103149 -0.0001103 -0.0015395 -0.0013289 0.0029043 -0.0009818 0.0004951 -0.0028172 -0.0007836
-0.0001319 -0.0008539 -0.0001006 -0.0002425 0.0001044 -0.0005854 0.0000674 -0.0003019 -0.0000450 -0.0004495 -0.0000103 -0.0002845 0.0002497 0.0000919 0.0000428 -0.0003604 -0.0000047 0.0000751 -0.0000594 -0.0004484 -0.0000130 0.0000398 -0.0000027 0.0001487 -0.0001547 -0.0017876 -0.0002886 -0.0020609 -0.0005055 -0.0031106 0.0000466 -0.0003665 0.0000003 -0.0004708 0.0000684 -0.0001643 -0.0000813 -0.0005107 0.0000003 -0.0001776 -0.0001774 -0.0006789 -0.0000006 -0.0006789 0.0000669 -0.0002133 0.0006068 0.0000839 -0.0003147 0.0000662 0.0005723 0.0002153 -0.0001460 -0.0013753 0.0004689 -0.0009672 0.0000794 -0.0006833 0.0001769 0.0001484 -0.0001013 -0.0004793 0.0001930 0.0003892 0.0002406 0.0006228 -0.0000052 -0.0001009 0.0001296 0.0007103 -0.0014234 -0.0893581 -0.0006242 -0.0169211 -0.0189917 -0.0324754 -0.0063242 -0.0105937 0.0112760 -0.0795844 -0.0133584 -0.0172349 -0.0090980 -0.0006373 -0.0122327 -0.0057146 -0.0056379 -0.0131066 -0.0021206 -0.0031856 -0.0010871 -0.0012243 -0.0009380 -0.0012938 -0.0002108 0.0012846 -0.0032747 -0.0024914 0.0004016 -0.0033549 -0.0046016 -0.0086283 0.0000157 -0.0001749 0.0011295 0.0030910 -0.0000643 -0.0011072 -0.0003963 -0.0001544 0.0000100 0.0004169 0.0002210 0.0021611 -0.0005842 -0.0015414 0.0015824 -0.0008794 -0.0013450 0.0004416 0.0043277 0.0001754 0.0014835 0.0041194 0.0014581 0.0021776 -0.0054142 -0.0016763 -0.0011319 -0.0031879 -0.0025876 -0.0103376 0.0000051 -0.0014803 0.0004497 0.0015464 -0.0009301 0.0006439 -0.0025566 -0.0012136
-0.0001370 -0.0009124 -0.0000966 -0.0002606 0.0000993 -0.0005528 0.0000650 -0.0003513 -0.0000397 -0.0004782 -0.0000089 -0.0002901 0.0002552 0.0000602 0.0000469 -0.0003877 0.0000134 0.0000423 -0.0000250 -0.0004223 0.0000012 0.0000325 0.0000265 0.0001591 -0.0001315 -0.0016428 -0.0002786 -0.0019754 -0.0004433 -0.0027804 0.0000478 -0.0003315 0.0000418 -0.0003745 0.0000623 -0.0001693 -0.0000675 -0.0005069 0.0000076 -0.0001773 -0.0001584 -0.0006153 -0.0000415 -0.0006117 0.0000498 -0.0003359 0.0005875 0.0001657 0.0000799 -0.0003794 0.0005229 0.0002220 -0.0002048 -0.0013138 0.0004011 -0.0009269 0.0001070 -0.0006758 0.0002227 0.0002193 0.0001323 -0.0005288 0.0000837 0.0005579 0.0002178 0.0005926 -0.0001623 0.0001782 0.0001404 0.0006636 0.0115406 -0.0927415 -0.0023752 -0.0209881 -0.0202064 -0.0337492 -0.0063985 -0.0017927 0.0254596 -0.1001500 -0.0110667 -0.0178767 -0.0091244 -0.0033723 -0.0109495 -0.0071013 -0.0055015 -0.0123579 -0.0019201 -0.0029620 -0.0009064 -0.0008502 -0.0007571 -0.0009786 -0.0003253 0.0008497 -0.0033457 -0.0034299 0.0003052 -0.0033348 -0.0042290 -0.0080075 -0.0000007 -0.0003364 0.0010749 0.0028126 -0.0000421 -0.0009695 -0.0003654 -0.0003864 -0.0000318 0.0004163 -0.0006038 0.0004994 -0.0011645 -0.0027844 0.0043596 -0.0033702 -0.0016213 0.0030124 0.0034629 -0.0073421 0.0014771 0.0036377 -0.0063257 0.0025251 -0.0067478 -0.0014149 -0.0013382 -0.0043011 -0.0025454 -0.0107114 -0.0000555 -0.0018131 0.0019461 0.0002396 -0.0011245 0.0009122 -0.0029878 -0.0011351
-0.0001225 -0.0008262 -0.0000744 -0.0002693 0.0001100 -0.0004416 0.0001317 -0.0004195 0.0000003 -0.0004572 0.0000072 -0.0003219 0.0002395 -0.0000288 0.0000544 -0.0003718 0.0000357 -0.0000013 0.0000084 -0.0003557 0.0000268 0.0000185 0.0000743 0.0001242 -0.0000840 -0.0012815 -0.0001840 -0.0013925 -0.0003067 -0.0017855 0.0000624 -0.0002634 0.0000739 -0.0003379 0.0000762 -0.0001385 -0.0000597 -0.0004701 0.0000130 -0.0001647 -0.0001235 -0.0004934 -0.0001153 -0.0004544 0.0000086 -0.0004676 0.0005407 0.0002115 0.0001434 -0.0004163 0.0005252 0.0002259 -0.0002144 -0.0010349 0.0004271 -0.0006753 0.0002059 -0.0004455 0.0001333 0.0003306 0.0002666 -0.0004122 -0.0002039 0.0008452 0.0001824 0.0007963 -0.0000848 0.0003047 0.0001323 0.0007492 0.0216201 -0.1109347 -0.0034459 -0.0254108 -0.0190886 -0.0315597 -0.0054513 0.0095762 0.0158415 -0.0782040 -0.0090822 -0.0183535 -0.0082721 -0.0039551 -0.0094681 -0.0069457 -0.0054568 -0.0117520 -0.0018180 -0.0030788 -0.0007468 -0.0004807 -0.0004959 -0.0007189 -0.0007031 -0.0001614 -0.0034542 -0.0040607 0.0002041 -0.0036572 -0.0041453 -0.0079902 -0.0000414 -0.0007130 0.0009981 0.0022104 -0.0000299 -0.0010738 -0.0002953 -0.0007106 -0.0001181 0.0001078 -0.0014245 -0.0016947 -0.0019119 -0.0048140 0.0040298 -0.0083485 -0.0042183 0.0031725 0.0030733 -0.0080205 0.0013548 0.0035950 -0.0072447 0.0022356 -0.0054324 -0.0030566 -0.0018174 -0.0059210 -0.0025610 -0.0118141 -0.0003353 -0.0026288 0.0022236 -0.0006830 -0.0012118 0.0005815 -0.0026057 -0.0014596
-0.0001107 -0.0006271 -0.0000580 -0.0001502 0.0001628 -0.0000997 0.0001931 -0.0003237 0.0000037 -0.0003315 0.0000234 -0.0002552 0.0002353 0.0000399 0.0000642 -0.0002341 0.0000420 0.0000421 0.0000044 -0.0002697 0.0000367 0.0000391 0.0000704 0.0001613 -0.0000056 -0.0007010 -0.0000580 -0.0004853 -0.0001410 -0.0005642 0.0000662 -0.0001536 0.0000721 -0.0002896 0.0000797 -0.0000576 -0.0000656 -0.0003695 0.0000176 -0.0001252 -0.0000968 -0.0003822 -0.0001229 -0.0003083 0.0000090 -0.0003734 0.0005500 0.0001867 -0.0002631 -0.0000927 0.0004921 0.0001850 -0.0002123 -0.0009384 0.0004435 -0.0006575 0.0002437 -0.0003674 0.0001323 0.0002615 0.0002430 -0.0002453 0.0000225 0.0004049 0.0001686 0.0007894 0.0000303 0.0001679 0.0001227 0.0007718 0.0079556 -0.1032892 -0.0017449 -0.0232809 -0.0168915 -0.0288768 -0.0058487 0.0106128 0.0103633 -0.0665691 -0.0107017 -0.0172641 -0.0083221 -0.0016964 -0.0097743 -0.0065805 -0.0049743 -0.0110749 -0.0019589 -0.0033431 -0.0007253 -0.0003328 -0.0004366 -0.0006318 -0.0010170 -0.0008535 -0.0035467 -0.0043757 0.0000459 -0.0041848 -0.0042251 -0.0082746 -0.0001192 -0.0009360 0.0008972 0.0018273 -0.0000773 -0.0010285 -0.0002702 -0.0008034 -0.0001760 0.0000433 -0.0014968 -0.0021717 -0.0019299 -0.0047024 -0.0085847 0.0076699 -0.0021606 0.0004747 0.0038780 -0.0081442 0.0012764 0.0038120 -0.0041135 0.0000503 -0.0052645 -0.0034928 -0.0022838 -0.0073438 -0.0026114 -0.0125966 -0.0004850 -0.0034240 0.0009964 0.0001186 -0.0011404 -0.0001143 -0.0018295 -0.0020114
-0.0001061 -0.0006155 -0.0000624 -0.0001227 0.0002204 0.0001068 0.0002110 -0.0002728 -0.0000262 -0.0003404 0.0000336 -0.0002342 0.0002570 0.0001711 0.0000739 -0.0002225 0.0000617 -0.0000472 0.0000186 -0.0002545 0.0000408 0.0000250 0.0000739 0.0002024 0.0000689 -0.0002666 0.0000388 0.0001164 -0.0000111 0.0001600 0.0000711 -0.0001248 0.0000732 -0.0002712 0.0000823 -0.0000546 -0.0000619 -0.0003437 0.0000244 -0.0001292 -0.0000897 -0.0003298 -0.0000925 -0.0002477 0.0000319 -0.0002620 0.0006196 0.0001622 -0.0003113 -0.0000172 0.0004756 0.0001595 -0.0002409 -0.0009371 0.0004343 -0.0006688 0.0002403 -0.0003607 0.0001262 0.0002461 0.0000668 -0.0000967 0.0004574 -0.0000087 0.0001795 0.0007486 0.0001634 -0.0000525 0.0001042 0.0008344 -0.0115655 -0.0744106 -0.0014582 -0.0232489 -0.0143053 -0.0245921 -0.0066988 0.0065486 0.0113597 -0.0744012 -0.0100958 -0.0181961 -0.0082996 -0.0005980 -0.0096930 -0.0069352 -0.0044969 -0.0109240 -0.0019117 -0.0033485 -0.0007083 -0.0004308 -0.0003633 -0.0007089 -0.0010716 -0.0014360 -0.0035416 -0.0049362 -0.0000431 -0.0044843 -0.0041368 -0.0084308 -0.0001664 -0.0011221 0.0008572 0.0016708 -0.0001051 -0.0011932 -0.0002559 -0.0009087 -0.0002009 -0.0000561 -0.0011046 -0.0010951 -0.0013394 -0.0031798 -0.0036698 0.0048511 -0.0011392 -0.0034456 0.0014093 -0.0087228 0.0012069 0.0037287 -0.0035361 0.0009174 -0.0069358 -0.0017736 -0.0023648 -0.0078774 -0.0024720 -0.0131214 -0.0004768 -0.0040432 0.0001807 0.0004557 -0.0010485 -0.0007486 -0.0019485 -0.0017329
-0.0001009 -0.0005072 -0.0000649 -0.0000986 0.0002507 0.0003972 0.0002295 -0.0000795 -0.0000449 -0.0001286 0.0000286 -0.0000871 0.0002663 0.0004088 0.0000679 -0.0001200 0.0000453 0.0000566 0.0000009 -0.0001525 0.0000169 0.0001376 0.0000567 0.0002796 0.0001358 0.0001431 0.0001102 0.0005054 0.0000757 0.0006772 0.0000622 -0.0000246 0.0000590 -0.0001834 0.0000799 0.0000326 -0.0000664 -0.0002200 0.0000198 -0.0000718 -0.0001202 -0.0002366 -0.0000676 -0.0001383 0.0000516 -0.0001511 0.0006432 0.0002536 -0.0001553 -0.0002245 0.0004581 0.0001618 -0.0002481 -0.0010630 0.0004429 -0.0008569 0.0001750 -0.0004220 0.0001761 0.0002459 0.0000303 -0.0000278 0.0004937 0.0000582 0.0001643 0.0007476 0.0001887 -0.0001773 0.0001094 0.0008474 0.0119988 -0.0843976 -0.0030179 -0.0222551 -0.0130292 -0.0230909 -0.0063316 0.0075638 -0.0020435 -0.0695261 -0.0098243 -0.0181213 -0.0081691 -0.0001133 -0.0097430 -0.0069558 -0.0043649 -0.0109272 -0.0017354 -0.0035317 -0.0007631 -0.0006765 -0.0003576 -0.0010407 -0.0012220 -0.0025232 -0.0035654 -0.0058704 -0.0001743 -0.0049616 -0.0041097 -0.0087288 -0.0001895 -0.0012351 0.0008876 0.0017389 -0.0001061 -0.0013019 -0.0002204 -0.0010321 -0.0001910 -0.0000797 -0.0007392 -0.0003677 -0.0010433 -0.0026785 -0.0029000 0.0072266 -0.0044560 -0.0033400 -0.0000338 -0.0073838 0.0012527 0.0030573 -0.0079656 0.0033566 -0.0060311 -0.0022680 -0.0023457 -0.0076285 -0.0021338 -0.0136503 -0.0005233 -0.0040505 -0.0008045 0.0018252 -0.0009336 -0.0009297 -0.0027890 -0.0010977
-0.0001008 -0.0005548 -0.0000716 -0.0000964 0.0002657 0.0004031 0.0002254 0.0000382 -0.0000560 -0.0001545 0.0000432 -0.0000845 0.0002865 0.0005708 0.0000740 -0.0001422 0.0000292 0.0000087 -0.0000133 -0.0001535 0.0000129 0.0000880 0.0000493 0.0002379 0.0001817 0.0003415 0.0001712 0.0007898 0.0000986 0.0009111 0.0000592 -0.0000166 0.0000564 -0.0001501 0.0000819 0.0000400 -0.0000685 -0.0001868 0.0000123 -0.0000596 -0.0001125 -0.0002476 -0.0000471 -0.0000991 0.0000702 -0.0001015 0.0006282 0.0002805 0.0001572 -0.0005108 0.0004341 0.0001927 -0.0002065 -0.0011125 0.0003918 -0.0008650 0.0001949 -0.0003981 0.0002114 0.0001433 0.0001557 -0.0001903 0.0005389 -0.0000955 0.0001237 0.0006697 0.0002953 -0.0003830 0.0001080 0.0007120 0.0178408 -0.0875849 -0.0019414 -0.0213597 -0.0132452 -0.0226313 -0.0070328 0.0054627 0.0081759 -0.0767851 -0.0165817 -0.0128259 -0.0084657 -0.0010512 -0.0104092 -0.0079683 -0.0033224 -0.0097516 -0.0017113 -0.0037601 -0.0009636 -0.0008742 -0.0004785 -0.0011520 -0.0010357 -0.0021582 -0.0038403 -0.0071432 -0.0003789 -0.0057560 -0.0043656 -0.0094298 -0.0002222 -0.0012620 0.0009503 0.0020959 -0.0001290 -0.0013678 -0.0002331 -0.0009921 -0.0002231 -0.0001037 -0.0007043 -0.0003716 -0.0011384 -0.0029261 -0.0020686 0.0089689 -0.0038589 -0.0027867 0.0023823 -0.0047866 0.0013318 0.0022343 -0.0055504 0.0004533 -0.0059947 -0.0024056 -0.0027521 -0.0079629 -0.0023162 -0.0147211 -0.0005937 -0.0043165 -0.0011090 0.0026894 -0.0010159 -0.0013860 -0.0022144 -0.0017321
-0.0000956 -0.0005546 -0.0000784 -0.0001342 0.0002396 0.0002568 0.0002062 0.0000134 -0.0000599 -0.0001865 0.0000307 -0.0001316 0.0002918 0.0005971 0.0000865 -0.0001909 0.0000349 -0.0000634 -0.0000232 -0.0001801 0.0000245 0.0000415 0.0000470 0.0001874 0.0001808 0.0003786 0.0002090 0.0009622 0.0000805 0.0009205 0.0000607 0.0000067 0.0000445 -0.0001188 0.0000819 0.0000776 -0.0000705 -0.0001814 0.0000104 -0.0000865 -0.0001206 -0.0002572 -0.0000526 -0.0001239 0.0000831 0.0000260 0.0005861 0.0002906 0.0000098 -0.0002054 0.0004064 0.0002639 -0.0002683 -0.0010974 0.0001207 -0.0008538 0.0000906 -0.0003330 0.0002281 0.0003426 0.0000969 -0.0002039 0.0001876 0.0002642 0.0001419 0.0008102 0.0001838 -0.0003063 0.0000905 0.0008928 0.0120233 -0.0905054 -0.0003824 -0.0209953 -0.0131754 -0.0208168 -0.0077153 0.0032536 0.0196848 -0.0927260 -0.0193131 -0.0102756 -0.0084904 -0.0009439 -0.0113008 -0.0084761 -0.0021651 -0.0088445 -0.0017190 -0.0037594 -0.0012150 -0.0012779 -0.0007307 -0.0012568 -0.0012216 -0.0028452 -0.0038662 -0.0078744 -0.0005324 -0.0064472 -0.0043384 -0.0099763 -0.0002319 -0.0013937 0.0010941 0.0023864 -0.0001460 -0.0015381 -0.0002065 -0.0011373 -0.0002806 -0.0002492 -0.0004750 0.0000372 -0.0010648 -0.0028142 0.0096530 -0.0126570 -0.0008250 -0.0063921 0.0004198 -0.0080852 0.0010917 0.0022414 -0.0003529 -0.0027149 -0.0061951 -0.0032815 -0.0027704 -0.0079603 -0.0023658 -0.0144505 -0.0005334 -0.0042394 -0.0004172 0.0020027 -0.0012283 -0.0014907 -0.0013486 -0.0023732
-0.0001274 -0.0007004 -0.0001086 -0.0001223 0.0001815 -0.0000346 0.0001585 0.0001049 -0.0000676 -0.0002506 0.0000289 -0.0000959 0.0002875 0.0006985 0.0000950 -0.0001756 0.0000169 -0.0001216 -0.0000489 -0.0002656 0.0000101 -0.0000527 0.0000091 0.0001277 0.0001763 0.0004415 0.0002263 0.0010471 0.0000487 0.0008359 0.0000537 0.0000016 0.0000288 -0.0001560 0.0000864 0.0001003 -0.0000510 -0.0001758 0.0000088 -0.0001066 -0.0001594 -0.0003915 -0.0000476 -0.0002410 0.0000996 0.0000570 0.0004995 -0.0001218 -0.0003108 -0.0001922 0.0004681 0.0003005 -0.0003399 -0.0014407 0.0001620 -0.0009786 0.0000865 -0.0003864 0.0001578 0.0005429 -0.0000339 -0.0003151 -0.0000167 0.0003794 0.0001760 0.0007779 -0.0001795 -0.0002115 0.0000843 0.0009358 0.0133141 -0.0831892 -0.0020996 -0.0241745 -0.0142959 -0.0264643 -0.0071796 0.0062893 0.0174728 -0.1058082 -0.0146696 -0.0121810 -0.0087495 -0.0008853 -0.0101860 -0.0085291 -0.0023729 -0.0092658 -0.0014838 -0.0034809 -0.0011915 -0.0014265 -0.0007957 -0.0012808 -0.0017585 -0.0052114 -0.0037508 -0.0084716 -0.0005467 -0.0066185 -0.0040176 -0.0095321 -0.0002035 -0.0013325 0.0011400 0.0025611 -0.0001049 -0.0011815 -0.0001630 -0.0011770 -0.0002614 -0.0000014 -0.0004514 0.0003165 -0.0010868 -0.0025274 0.0019717 -0.0008105 -0.0020620 -0.0086049 -0.0051101 -0.0128336 0.0009209 0.0030569 0.0002542 -0.0020762 -0.0055822 -0.0030343 -0.0023561 -0.0070756 -0.0015310 -0.0125010 -0.0005253 -0.0035832 -0.0011127 0.0020228 -0.0011955 -0.0011437 -0.0007274 -0.0027375
-0.0001498 -0.0008569 -0.0001157 -0.0001185 0.0001799 -0.0002159 0.0001036 0.0000862 -0.0000703 -0.0003626 0.0000288 -0.0001460 0.0002773 0.0007024 0.0000932 -0.0002307 -0.0000124 -0.0002336 -0.0000834 -0.0003611 -0.0000194 -0.0002024 -0.0000152 -0.0000055 0.0001615 0.0003253 0.0002216 0.0010043 -0.0000426 0.0003741 0.0000394 -0.0000737 0.0000041 -0.0002682 0.0000923 0.0000813 -0.0000522 -0.0002158 0.0000009 -0.0001577 -0.0001684 -0.0004938 -0.0000187 -0.0003500 0.0001202 0.0000668 0.0004971 -0.0003945 0.0001603 -0.0007506 0.0005563 0.0005018 -0.0002281 -0.0012003 0.0004552 -0.0004197 0.0003173 0.0000005 0.0000938 0.0004176 0.0000644 -0.0005422 0.0000262 0.0004851 0.0001479 0.0007482 -0.0000257 -0.0006167 0.0000533 0.0008015 0.0128620 -0.0765456 -0.0049734 -0.0268935 -0.0043824 -0.0184445 -0.0068355 0.0045750 0.0159097 -0.1103839 -0.0166231 -0.0125360 -0.0095351 -0.0038439 -0.0091889 -0.0097270 -0.0026195 -0.0095862 -0.0013683 -0.0036442 -0.0010595 -0.0013271 -0.0006454 -0.0013366 -0.0014097 -0.0046690 -0.0036466 -0.0083584 -0.0004057 -0.0065390 -0.0040398 -0.0094128 -0.0001987 -0.0012516 0.0010769 0.0024510 -0.0001319 -0.0012163 -0.0002282 -0.0009536 -0.0002510 -0.0000992 -0.0008721 -0.0009041 -0.0015576 -0.0038093 -0.0057554 0.0052018 -0.0051227 -0.0055383 -0.0015881 -0.0096518 0.0011627 0.0024554 0.0017784 -0.0033087 -0.0064530 -0.0007543 -0.0023202 -0.0066619 -0.0020418 -0.0134173 -0.0005147 -0.0036763 -0.0017926 0.0020221 -0.0011963 -0.0009543 -0.0014052 -0.0026011
-0.0001388 -0.0005818 -0.0001009 -0.0000599 0.0002181 0.0001309 0.0000796 0.0000987 -0.0000601 -0.0000825 0.0000090 -0.0000640 0.0002532 0.0006991 0.0000660 -0.0000991 -0.0000261 -0.0000671 -0.0001197 -0.0002368 -0.0000754 -0.0000467 -0.0000533 0.0000387 0.0001075 0.0001856 0.0001752 0.0008535 -0.0001689 -0.0001799 0.0000124 0.0000398 -0.0000275 -0.0001938 0.0000771 0.0002035 -0.0000734 -0.0001274 0.0000007 -0.0001133 -0.0001616 -0.0004411 -0.0000154 -0.0003075 0.0001134 0.0000713 0.0005161 -0.0002781 0.0005119 -0.0010774 0.0005010 0.0006333 -0.0001771 -0.0009384 0.0005527 -0.0003194 0.0003501 0.0001708 0.0001437 0.0003847 0.0000138 -0.0003854 0.0003168 0.0005034 0.0001443 0.0007694 0.0000101 -0.0006346 0.0000504 0.0007619 0.0028468 -0.0756193 -0.0041689 -0.0248875 -0.0015655 -0.0115306 -0.0074782 -0.0012243 0.0198091 -0.0892344 -0.0168122 -0.0187268 -0.0099350 -0.0077180 -0.0111134 -0.0123922 -0.0031390 -0.0105403 -0.0015078 -0.0044230 -0.0010622 -0.0015229 -0.0005175 -0.0018181 -0.0008295 -0.0027600 -0.0037368 -0.0084392 -0.0004644 -0.0070755 -0.0043405 -0.0104722 -0.0001694 -0.0012718 0.0010618 0.0023431 -0.0002194 -0.0016243 -0.0003214 -0.0007697 -0.0003203 -0.0003842 -0.0008793 -0.0013951 -0.0017023 -0.0045680 -0.0110319 0.0131599 -0.0083976 -0.0058765 0.0007671 -0.0077668 0.0010915 0.0016389 -0.0006666 -0.0019822 -0.0058747 -0.0011790 -0.0026955 -0.0065870 -0.0033039 -0.0168410 -0.0003822 -0.0040290 -0.0018929 0.0022689 -0.0013994 -0.0007866 -0.0028744 -0.0018048
-0.0001381 -0.0006020 -0.0000988 -0.0000373 0.0002343 0.0002389 0.0001156 0.0001664 -0.0000602 -0.0000096 0.0000196 -0.0000507 0.0002675 0.0007214 0.0000651 -0.0001024 -0.0000311 -0.0000648 -0.0001119 -0.0001741 -0.0000857 -0.0000751 -0.0000601 0.0000425 0.0001006 0.0000187 0.0000930 0.0004885 -0.0002486 -0.0006314 0.0000013 0.0000787 -0.0000140 -0.0001552 0.0000546 0.0001274 -0.0000481 -0.0001286 0.0000116 -0.0000177 -0.0001213 -0.0003866 -0.0000770 -0.0002627 0.0000247 -0.0003534 0.0004036 -0.0005669 0.0002518 -0.0009021 0.0003362 0.0004209 -0.0002163 -0.0008865 0.0005499 -0.0004402 0.0003254 0.0000916 0.0000174 0.0002702 -0.0000987 -0.0001663 0.0000943 0.0003044 0.0001392 0.0008496 -0.0000506 -0.0005488 0.0000730 0.0007456 0.0098726 -0.0932491 -0.0040344 -0.0265985 -0.0058772 -0.0176964 -0.0090419 -0.0056615 0.0195259 -0.0855263 -0.0130603 -0.0292095 -0.0107182 -0.0093246 -0.0137601 -0.0150247 -0.0043474 -0.0127854 -0.0016164 -0.0049487 -0.0011499 -0.0017853 -0.0005705 -0.0021207 -0.0006443 -0.0023242 -0.0039887 -0.0091318 -0.0005531 -0.0075328 -0.0044626 -0.0112454 -0.0001086 -0.0013467 0.0011361 0.0024406 -0.0002601 -0.0019162 -0.0003289 -0.0008344 -0.0004385 -0.0006058 -0.0004109 0.0000253 -0.0011761 -0.0031577 -0.0131608 0.0163173 -0.0083987 -0.0125251 -0.0000779 -0.0075344 0.0009759 0.0019068 -0.0084059 0.0046967 -0.0043940 -0.0036192 -0.0026208 -0.0068896 -0.0031787 -0.0179348 -0.0003421 -0.0038826 -0.0004969 0.0008177 -0.0015074 -0.0011662 -0.0024648 -0.0011278
-0.0001226 -0.0006122 -0.0000815 -0.0000203 0.0003874 0.0004901 0.0001700 0.0000834 -0.0000935 -0.0000858 0.0000198 -0.0000588 0.0002558 0.0006807 0.0000774 -0.0001360 -0.0000359 -0.0001176 -0.0001169 -0.0001290 -0.0000717 -0.0001036 -0.0000404 0.0000363 0.0001112 0.0000353 0.0000618 0.0004234 -0.0001595 -0.0001921 -0.0000128 0.0000890 -0.0000210 -0.0001550 0.0000558 0.0001103 -0.0000491 -0.0001651 0.0000151 -0.0000043 -0.0000905 -0.0002906 -0.0001126 -0.0002604 -0.0000200 -0.0005471 0.0003913 -0.0004448 0.0001238 -0.0005256 0.0003058 0.0005326 -0.0001464 -0.0005936 0.0004804 -0.0000593 0.0003426 0.0003592 -0.0000351 0.0001675 -0.0000921 -0.0001136 -0.0004574 0.0004382 0.0001276 0.0010232 0.0000364 -0.0007255 0.0000401 0.0007981 0.0166981 -0.1109113 -0.0054072 -0.0331985 -0.0129058 -0.0223359 -0.0067097 -0.0070486 0.0034840 -0.0771335 -0.0146427 -0.0282976 -0.0109117 -0.0069835 -0.0127730 -0.0137322 -0.0049092 -0.0144986 -0.0015478 -0.0050138 -0.0012345 -0.0020320 -0.0005288 -0.0024408 -0.0006661 -0.0032831 -0.0039768 -0.0098022 -0.0005151 -0.0076194 -0.0042174 -0.0110378 -0.0000789 -0.0014507 0.0012153 0.0024296 -0.0002611 -0.0020189 -0.0002437 -0.0009973 -0.0004816 -0.0007395 0.0001237 0.0015899 -0.0006919 -0.0018683 -0.0113842 0.0070526 -0.0060955 -0.0215257 -0.0016679 -0.0064211 0.0010995 0.0025179 -0.0038234 0.0010251 -0.0044560 -0.0034110 -0.0021626 -0.0063933 -0.0024460 -0.0150912 -0.0002465 -0.0030765 0.0004808 0.0002842 -0.0014683 -0.0014243 -0.0005616 -0.0016259
-0.0001119 -0.0004847 -0.0000584 0.0000568 0.0005005 0.0006410 0.0001571 -0.0001133 -0.0001146 -0.0001538 0.0000112 -0.0000324 0.0002220 0.0006264 0.0000630 -0.0000373 -0.0000276 -0.0001073 -0.0001339 -0.0000786 -0.0000912 -0.0000195 -0.0000583 0.0000701 0.0001270 0.0002645 0.0001118 0.0007603 -0.0000195 0.0005984 -0.0000204 0.0001104 -0.0000376 -0.0001398 0.0000667 0.0001984 -0.0000608 -0.0002003 0.0000136 -0.0000396 -0.0000888 -0.0003207 -0.0000858 -0.0003129 0.0000065 -0.0005122 0.0004972 -0.0001195 0.0002691 -0.0005964 0.0004072 0.0006955 -0.0000721 -0.0005848 0.0004765 0.0000234 0.0003961 0.0004045 0.0000300 0.0001786 -0.0000339 -0.0001930 -0.0004461 0.0003257 0.0000828 0.0009964 -0.0000732 -0.0006565 0.0000310 0.0007036 0.0032030 -0.0821020 -0.0071628 -0.0382999 -0.0165806 -0.0259045 -0.0042971 -0.0070955 -0.0110684 -0.0557942 -0.0209190 -0.0198367 -0.0105974 -0.0043163 -0.0121356 -0.0105877 -0.0051339 -0.0149959 -0.0015595 -0.0049748 -0.0011488 -0.0018909 -0.0004474 -0.0026878 -0.0007690 -0.0038780 -0.0039411 -0.0104465 -0.0006419 -0.0078334 -0.0040530 -0.0104523 -0.0000645 -0.0012842 0.0011683 0.0023758 -0.0002305 -0.0016375 -0.0002000 -0.0007571 -0.0004335 -0.0004076 0.0003602 0.0021219 -0.0005933 -0.0014111 -0.0138150 0.0112564 -0.0107011 -0.0257358 -0.0027829 -0.0058757 0.0009616 0.0029981 0.0020238 -0.0027918 -0.0024165 -0.0027563 -0.0017982 -0.0050425 -0.0017532 -0.0125269 0.0000743 -0.0020539 0.0006285 0.0005386 -0.0012714 -0.0013071 0.0005464 -0.0019658
-0.0000877 -0.0003712 -0.0000368 0.0000390 0.0004616 0.0005043 0.0001292 -0.0003299 -0.0000880 -0.0001790 0.0000161 -0.0000623 0.0002237 0.0005950 0.0000552 -0.0000517 -0.0000171 -0.0001556 -0.0001272 -0.0000403 -0.0001065 -0.0000215 -0.0000564 0.0000481 0.0001433 0.0002441 0.0001559 0.0009441 -0.0000365 0.0005429 -0.0000230 0.0000841 -0.0000382 -0.0001657 0.0000749 0.0002064 -0.0000593 -0.0002392 0.0000219 -0.0000661 -0.0000460 -0.0003323 -0.0001186 -0.0005560 0.0000999 -0.0003030 0.0005079 -0.0001429 0.0000496 -0.0005194 0.0003696 0.0006377 -0.0000514 -0.0005345 0.0004738 0.0000392 0.0004016 0.0003827 0.0000849 0.0000743 -0.0001511 -0.0000349 -0.0001980 0.0001561 0.0000636 0.0010134 -0.0003675 -0.0002177 0.0000409 0.0006842 -0.0071368 -0.0676281 -0.0085681 -0.0415262 -0.0181614 -0.0300623 -0.0033027 -0.0080422 0.0081892 -0.0588260 -0.0268567 -0.0153000 -0.0104176 -0.0043961 -0.0124856 -0.0089406 -0.0055593 -0.0145686 -0.0015289 -0.0048573 -0.0008069 -0.0014508 -0.0005656 -0.0024652 -0.0005737 -0.0028354 -0.0038211 -0.0097720 -0.0006242 -0.0072464 -0.0039964 -0.0097750 -0.0000255 -0.0010947 0.0010476 0.0020604 -0.0002185 -0.0014723 -0.0002044 -0.0004362 -0.0003632 -0.0003626 0.0004140 0.0019763 -0.0004533 -0.0010526 -0.0051005 -0.0028068 -0.0125868 -0.0273578 -0.0036261 -0.0070640 0.0007459 0.0030346 -0.0000240 -0.0007410 -0.0015871 -0.0020341 -0.0015465 -0.0043254 -0.0014064 -0.0119766 0.0003141 -0.0014845 0.0015949 -0.0004118 -0.0011804 -0.0015609 -0.0001809 -0.0010431
-0.0000583 -0.0001358 -0.0000281 0.0000428 0.0004404 0.0007199 0.0001432 -0.0003122 -0.0000860 0.0000438 0.0000383 0.0001145 0.0002772 0.0009345 0.0000341 0.0000510 -0.0000205 -0.0000421 -0.0001271 0.0001821 -0.0000763 0.0001593 -0.0000594 0.0002035 0.0001091 0.0000358 0.0001499 0.0009961 -0.0002068 -0.0000639 -0.0000632 0.0001098 -0.0000607 -0.0001169 0.0001107 0.0004695 -0.0000514 -0.0000636 0.0000191 -0.0000541 -0.0000268 -0.0000981 -0.0001205 -0.0006845 0.0002990 0.0003616 0.0004571 -0.0000994 -0.0000377 -0.0004752 0.0003410 0.0007526 -0.0000225 -0.0002644 0.0003980 0.0001883 0.0004054 0.0005143 0.0000578 0.0000915 -0.0002159 0.0001771 0.0001184 -0.0000664 0.0000469 0.0010466 -0.0002361 -0.0003660 0.0000202 0.0007183 -0.0080912 -0.0666695 -0.0059122 -0.0468872 -0.0180104 -0.0298107 -0.0023392 -0.0077288 0.0180329 -0.0706892 -0.0170806 -0.0228393 -0.0104081 -0.0062526 -0.0114612 -0.0093518 -0.0054622 -0.0135674 -0.0014506 -0.0046892 -0.0003900 -0.0010437 -0.0005460 -0.0021282 -0.0001036 -0.0010619 -0.0036139 -0.0084523 -0.0004253 -0.0062602 -0.0039402 -0.0091399 0.0000194 -0.0009683 0.0008772 0.0015681 -0.0001868 -0.0014537 -0.0001957 -0.0002228 -0.0002967 -0.0004939 0.0003979 0.0016779 -0.0003115 -0.0006967 -0.0021260 -0.0072553 -0.0084209 -0.0296975 -0.0047994 -0.0091648 0.0007675 0.0033353 -0.0004163 -0.0009878 -0.0021730 -0.0015420 -0.0013410 -0.0039345 -0.0014649 -0.0123537 0.0004000 -0.0010887 0.0002410 0.0010358 -0.0012675 -0.0016003 -0.0004552 -0.0006729
-0.0000360 -0.0001253 -0.0000207 0.0000109 0.0004005 0.0004877 0.0001806 -0.0001832 -0.0000944 0.0000591 0.0000564 0.0000948 0.0002859 0.0009397 0.0000274 0.0000853 -0.0000309 -0.0000776 -0.0001260 0.0002194 -0.0000565 0.0001783 -0.0000567 0.0002446 0.0001351 0.0000565 0.0001447 0.0009693 -0.0002079 -0.0000626 -0.0000758 0.0000620 -0.0000632 -0.0001188 0.0001090 0.0004308 -0.0000340 -0.0000333 0.0000199 -0.0000959 -0.0000453 -0.0000592 -0.0000523 -0.0004985 0.0002402 0.0001465 0.0003918 -0.0001678 0.0001724 -0.0001295 0.0003517 0.0007021 -0.0000241 -0.0000689 0.0004171 0.0002828 0.0004618 0.0005844 0.0000206 -0.0000956 -0.0001894 -0.0001709 -0.0001925 0.0001713 -0.0000189 0.0009984 -0.0001850 -0.0003088 -0.0000071 0.0005852 0.0111374 -0.0862351 -0.0079734 -0.0468661 -0.0175049 -0.0290630 -0.0018222 -0.0067483 0.0190458 -0.0881718 -0.0183721 -0.0226557 -0.0107207 -0.0064735 -0.0102944 -0.0102710 -0.0050090 -0.0122172 -0.0014788 -0.0042634 -0.0001393 -0.0005792 -0.0004231 -0.0017154 0.0001126 0.0001818 -0.0036185 -0.0078337 -0.0004431 -0.0057844 -0.0038778 -0.0084803 0.0000414 -0.0006765 0.0007269 0.0013882 -0.0001684 -0.0010379 -0.0001891 0.0000399 -0.0002490 -0.0003206 0.0003217 0.0016147 -0.0002557 -0.0002631 0.0000455 -0.0141088 -0.0082896 -0.0279551 -0.0056738 -0.0107873 0.0009838 0.0039414 0.0008362 -0.0037881 -0.0025857 -0.0013265 -0.0012634 -0.0034082 -0.0015349 -0.0132975 0.0005121 -0.0008213 0.0006857 0.0012987 -0.0012096 -0.0015867 0.0001003 -0.0007225
-0.0000404 -0.0002246 -0.0000103 -0.0000063 0.0004223 0.0002369 0.0001461 -0.0003633 -0.0000933 -0.0000259 0.0000314 -0.0000386 0.0001961 0.0004536 0.0000313 0.0000981 -0.0000377 -0.0001130 -0.0001339 0.0001099 -0.0000867 0.0001018 -0.0000684 0.0000987 0.0001922 0.0003181 0.0001639 0.0009431 -0.0000241 0.0006247 -0.0000585 0.0000912 -0.0000630 -0.0001228 0.0000665 0.0002379 -0.0000440 -0.0001304 0.0000283 -0.0001170 -0.0000589 -0.0001905 -0.0000358 -0.0003110 0.0000487 -0.0004448 0.0003743 -0.0002119 0.0004604 0.0000147 0.0003401 0.0007215 0.0000159 0.0000930 0.0005582 0.0003407 0.0004587 0.0007446 0.0000558 -0.0002192 -0.0002504 -0.0004443 -0.0004451 0.0005204 -0.0000267 0.0010834 -0.0004781 0.0001096 -0.0000257 0.0005317 0.0255049 -0.1158805 -0.0074576 -0.0473982 -0.0174750 -0.0275456 -0.0018757 -0.0052715 0.0183648 -0.0932302 -0.0242908 -0.0183906 -0.0106070 -0.0068357 -0.0110616 -0.0100767 -0.0046620 -0.0111498 -0.0014529 -0.0040045 0.0000284 -0.0002652 -0.0002520 -0.0014640 0.0001988 0.0006993 -0.0036580 -0.0076285 -0.0004984 -0.0056186 -0.0037554 -0.0081739 0.0001016 -0.0005181 0.0006288 0.0010659 -0.0001273 -0.0008768 -0.0001819 0.0002161 -0.0002137 -0.0002361 0.0003564 0.0015193 -0.0001527 -0.0000044 0.0105556 -0.0297196 -0.0080909 -0.0321275 -0.0063883 -0.0130453 0.0010398 0.0047403 0.0010582 -0.0049093 -0.0031357 -0.0006781 -0.0013618 -0.0031539 -0.0014793 -0.0136893 0.0005894 -0.0009759 0.0008756 0.0008750 -0.0010930 -0.0017363 0.0005318 -0.0009305
-0.0000557 -0.0001788 -0.0000084 0.0000928 0.0004363 0.0002403 0.0000979 -0.0005659 -0.0001139 -0.0000005 -0.0000070 -0.0000323 0.0001482 0.0002831 0.0000172 0.0001792 -0.0000380 -0.0000855 -0.0001291 0.0000911 -0.0000941 0.0001245 -0.0001296 0.0000860 0.0001923 0.0003559 0.0001679 0.0010169 0.0000230 0.0007850 -0.0000543 0.0001443 -0.0000596 -0.0000660 0.0000596 0.0002512 -0.0000662 -0.0001589 0.0000273 -0.0001325 -0.0000664 -0.0002829 -0.0000486 -0.0002920 0.0000235 -0.0005274 0.0003830 -0.0003689 0.0003300 -0.0000660 0.0003279 0.0006709 0.0000458 0.0000634 0.0006324 0.0001747 0.0004403 0.0006890 0.0000413 -0.0002079 -0.0002351 -0.0004578 -0.0006806 0.0006298 -0.0000401 0.0010927 -0.0002590 -0.0002223 -0.0000285 0.0005343 0.0146353 -0.0895854 -0.0074845 -0.0472628 -0.0177408 -0.0262611 -0.0018190 -0.0033916 0.0068158 -0.0699277 -0.0161000 -0.0227802 -0.0106425 -0.0073780 -0.0117749 -0.0098583 -0.0045069 -0.0104979 -0.0013687 -0.0039153 0.0001280 -0.0001202 -0.0001540 -0.0012297 0.0002221 0.0008844 -0.0037240 -0.0077461 -0.0005837 -0.0055429 -0.0036962 -0.0080136 0.0001455 -0.0004254 0.0005752 0.0008470 -0.0000670 -0.0008505 -0.0001754 0.0003150 -0.0001838 -0.0000572 0.0004453 0.0015582 -0.0000696 0.0002804 0.0088231 -0.0098650 0.0020982 -0.0468303 -0.0080255 -0.0153901 0.0009550 0.0054115 -0.0025887 0.0001720 -0.0040157 0.0003896 -0.0014969 -0.0031622 -0.0016477 -0.0128291 0.0003873 -0.0014307 -0.0000217 0.0017035 -0.0012414 -0.0023020 0.0014475 -0.0012324
-0.0000515 -0.0001945 -0.0000082 0.0001140 0.0003569 -0.0000437 0.0001243 -0.0004672 -0.0001188 -0.0000239 -0.0000180 -0.0000787 0.0001373 0.0002563 0.0000239 0.0001601 -0.0000354 -0.0000768 -0.0001281 0.0000634 -0.0000748 0.0001406 -0.0001136 0.0001116 0.0002043 0.0003270 0.0001743 0.0010793 0.0000282 0.0007784 -0.0000495 0.0001436 -0.0000624 -0.0000867 0.0000540 0.0002035 -0.0000671 -0.0001956 0.0000281 -0.0001439 -0.0000868 -0.0003132 -0.0000446 -0.0002645 0.0000142 -0.0005448 0.0003994 -0.0005247 0.0000766 0.0000557 0.0003237 0.0006208 0.0000353 0.0000949 0.0006294 0.0001482 0.0004348 0.0006456 0.0000797 -0.0002695 -0.0001131 -0.0002928 -0.0005412 0.0003586 -0.0000649 0.0010941 -0.0002613 -0.0000604 -0.0000442 0.0006036 0.0065445 -0.0773741 -0.0106823 -0.0453113 -0.0174065 -0.0260204 -0.0013784 -0.0026217 0.0028023 -0.0522793 -0.0123361 -0.0250425 -0.0112568 -0.0072493 -0.0108077 -0.0107970 -0.0044879 -0.0097709 -0.0013394 -0.0037531 0.0001364 0.0000591 -0.0001272 -0.0009457 0.0002939 0.0013232 -0.0039418 -0.0081177 -0.0006936 -0.0054959 -0.0037319 -0.0078740 0.0001422 -0.0002640 0.0005510 0.0008365 -0.0000787 -0.0008403 -0.0001621 0.0004142 -0.0001580 0.0000400 0.0004349 0.0015479 -0.0000961 0.0002343 0.0078518 -0.0072762 0.0016029 -0.0506797 -0.0084862 -0.0157129 0.0010467 0.0052857 -0.0115281 0.0069789 -0.0041756 0.0007659 -0.0016492 -0.0037446 -0.0015503 -0.0125337 0.0001140 -0.0022611 0.0008283 0.0008095 -0.0015484 -0.0033629 0.0022823 -0.0011717
-0.0000480 -0.0001483 -0.0000013 0.0001513 0.0002963 -0.0000819 0.0001561 -0.0002481 -0.0001238 0.0001077 -0.0000184 -0.0000112 0.0001211 0.0003170 0.0000213 0.0002483 -0.0000292 0.0000973 -0.0001546 0.0001553 -0.0000703 0.0002797 -0.0001074 0.0002199 0.0002180 0.0004309 0.0001855 0.0011544 0.0000398 0.0009243 -0.0000574 0.0002404 -0.0000996 -0.0000404 0.0000277 0.0002711 -0.0000723 -0.0000971 0.0000212 -0.0000741 -0.0001062 -0.0001690 -0.0000391 -0.0001348 0.0000176 -0.0004054 0.0004012 -0.0004928 0.0000138 0.0000890 0.0003381 0.0006859 0.0000020 0.0002842 0.0004956 0.0002850 0.0004433 0.0007392 0.0001339 -0.0003275 -0.0000902 0.0001186 -0.0004251 0.0001120 -0.0001075 0.0010705 -0.0001477 -0.0001012 -0.0000334 0.0006461 0.0107980 -0.0885281 -0.0116342 -0.0463820 -0.0169212 -0.0258785 -0.0010216 -0.0030477 0.0020872 -0.0464920 -0.0081902 -0.0271704 -0.0113007 -0.0074965 -0.0105645 -0.0107957 -0.0043775 -0.0092536 -0.0013807 -0.0036435 0.0001794 0.0002171 -0.0001339 -0.0007538 0.0004351 0.0019497 -0.0040118 -0.0080576 -0.0007071 -0.0053752 -0.0037205 -0.0077910 0.0001749 -0.0001291 0.0005487 0.0007695 -0.0001180 -0.0009286 -0.0001364 0.0005075 -0.0001677 -0.0000099 0.0004080 0.0014869 -0.0001461 0.0000600 0.0151219 -0.0304701 -0.0216181 -0.0247644 -0.0067589 -0.0152665 0.0011754 0.0050818 -0.0073218 0.0029417 -0.0015890 -0.0004207 -0.0015610 -0.0039177 -0.0013847 -0.0128114 0.0001129 -0.0027036 0.0022480 -0.0006134 -0.0016401 -0.0043517 0.0025868 -0.0021393
-0.0000437 -0.0001975 0.0000077 0.0001187 0.0002904 -0.0001198 0.0001957 -0.0000362 -0.0001258 0.0000395 -0.0000266 -0.0000805 0.0001336 0.0003712 0.0000188 0.0002189 -0.0000239 0.0000656 -0.0001577 0.0001377 -0.0000575 0.0002602 -0.0001070 0.0002440 0.0002399 0.0004374 0.0002026 0.0012599 0.0000330 0.0009394 -0.0000663 0.0002081 -0.0001094 -0.0000434 0.0000089 0.0002255 -0.0000752 -0.0000958 0.0000205 -0.0000862 -0.0000907 -0.0001372 -0.0000230 -0.0001642 0.0000477 -0.0002248 0.0004075 -0.0004522 -0.0000182 0.0000794 0.0003635 0.0006713 -0.0000219 0.0002980 0.0004178 0.0003376 0.0004572 0.0007676 0.0002133 -0.0004637 -0.0000932 0.0000575 -0.0006337 0.0002443 -0.0001136 0.0009612 -0.0001930 -0.0001793 -0.0000501 0.0005601 0.0084040 -0.0811587 -0.0143346 -0.0445224 -0.0163581 -0.0253950 -0.0008040 -0.0029833 0.0096170 -0.0592689 -0.0073163 -0.0274628 -0.0109618 -0.0077997 -0.0116402 -0.0098625 -0.0042688 -0.0088273 -0.0014022 -0.0034044 0.0002030 0.0004287 -0.0001943 -0.0004594 0.0005282 0.0025221 -0.0039793 -0.0076773 -0.0006787 -0.0050324 -0.0037062 -0.0074710 0.0002084 0.0000722 0.0005234 0.0008969 -0.0001463 -0.0006178 -0.0001144 0.0006705 -0.0001837 0.0001876 0.0003830 0.0015626 -0.0001864 0.0001685 0.0061976 -0.0233120 -0.0295597 -0.0140841 -0.0051889 -0.0153496 0.0010715 0.0053171 0.0031665 -0.0032975 -0.0005009 -0.0000767 -0.0014197 -0.0036358 -0.0013074 -0.0128776 0.0002195 -0.0027407 0.0012032 -0.0001033 -0.0018689 -0.0047981 0.0026207 -0.0030943
-0.0000427 -0.0002288 0.0000100 0.0000508 0.0002899 -0.0001556 0.0002053 -0.0000394 -0.0001153 0.0000039 -0.0000503 -0.0002061 0.0001233 0.0003046 0.0000139 0.0001698 -0.0000188 -0.0000035 -0.0001477 0.0001033 -0.0000474 0.0001838 -0.0001038 0.0001789 0.0002552 0.0004266 0.0002158 0.0012522 0.0000687 0.0010041 -0.0000650 0.0001487 -0.0001133 -0.0000664 0.0000046 0.0001887 -0.0000829 -0.0001153 0.0000243 -0.0001229 -0.0000846 -0.0001085 -0.0000247 -0.0001957 0.0000524 -0.0001608 0.0004673 -0.0003767 0.0000918 0.0001141 0.0003427 0.0007756 0.0000594 0.0004252 0.0004121 0.0005391 0.0004433 0.0009604 0.0001838 -0.0003667 -0.0000874 -0.0000674 -0.0004577 0.0002802 -0.0001232 0.0010829 -0.0005545 0.0001528 -0.0000970 0.0005967 0.0042874 -0.0758153 -0.0156628 -0.0423611 -0.0161278 -0.0248763 -0.0007247 -0.0027736 0.0119770 -0.0685366 -0.0166608 -0.0202938 -0.0108292 -0.0079250 -0.0124522 -0.0091937 -0.0039135 -0.0087244 -0.0013501 -0.0033473 0.0002442 0.0005548 -0.0001065 -0.0004053 0.0005596 0.0026929 -0.0040033 -0.0075587 -0.0006990 -0.0049028 -0.0036874 -0.0073179 0.0002121 0.0001928 0.0004768 0.0008227 -0.0001522 -0.0005538 -0.0001034 0.0008064 -0.0001669 0.0002391 0.0003669 0.0014579 -0.0001801 0.0001691 -0.0065967 0.0053680 -0.0305272 -0.0194509 -0.0044698 -0.0147119 0.0009663 0.0055380 0.0026849 -0.0021748 -0.0023117 0.0018956 -0.0015088 -0.0035789 -0.0013568 -0.0129478 0.0002152 -0.0027451 -0.0013001 0.0013971 -0.0025113 -0.0045176 0.0031344 -0.0039821
-0.0000362 -0.0001169 0.0000051 0.0000806 0.0002477 -0.0002412 0.0001837 -0.0000610 -0.0001273 0.0001104 -0.0000800 -0.0001944 0.0000939 0.0002916 -0.0000084 0.0002445 -0.0000427 0.0000513 -0.0001516 0.0001375 -0.0000579 0.0001913 -0.0001269 0.0002087 0.0002529 0.0004749 0.0002212 0.0012668 0.0001105 0.0011373 -0.0000761 0.0001710 -0.0001206 0.0000078 -0.0000036 0.0002180 -0.0001006 -0.0000783 0.0000281 -0.0001289 -0.0001251 -0.0000344 -0.0000201 -0.0001447 0.0000281 -0.0002285 0.0004802 -0.0004247 0.0003772 -0.0000204 0.0002555 0.0008365 0.0000960 0.0005737 0.0004817 0.0005921 0.0004406 0.0010631 0.0000864 -0.0003718 -0.0001440 -0.0001256 -0.0002848 0.0000997 -0.0001676 0.0010298 -0.0003503 -0.0000723 -0.0000978 0.0005708 0.0045351 -0.0693708 -0.0154660 -0.0417382 -0.0159818 -0.0246763 -0.0006443 -0.0025743 0.0125386 -0.0714616 -0.0195859 -0.0185877 -0.0106253 -0.0079117 -0.0121801 -0.0091847 -0.0038615 -0.0085462 -0.0013177 -0.0032812 0.0002724 0.0006212 -0.0000362 -0.0003549 0.0005635 0.0027940 -0.0039934 -0.0073663 -0.0006930 -0.0047762 -0.0036382 -0.0072324 0.0002186 0.0002612 0.0004522 0.0007441 -0.0001542 -0.0005726 -0.0000799 0.0008664 -0.0001591 0.0002561 0.0003449 0.0014245 -0.0001665 0.0002554 -0.0029185 0.0066638 -0.0276822 -0.0300883 -0.0035555 -0.0136265 0.0011005 0.0055772 0.0001735 -0.0015654 -0.0032560 0.0027133 -0.0015877 -0.0032049 -0.0011839 -0.0131077 0.0001986 -0.0024059 -0.0005124 0.0012597 -0.0026427 -0.0043547 0.0029241 -0.0040652
-0.0000293 -0.0001422 0.0000087 0.0000387 0.0002303 -0.0003792 0.0001425 -0.0000038 -0.0001247 0.0000673 -0.0001003 -0.0002373 0.0000810 0.0002458 -0.0000136 0.0002279 -0.0000537 0.0000600 -0.0001460 0.0001084 -0.0000512 0.0001806 -0.0001168 0.0002103 0.0002660 0.0004542 0.0002318 0.0012874 0.0001033 0.0010656 -0.0000858 0.0001615 -0.0001069 -0.0000034 -0.0000170 0.0001644 -0.0000976 -0.0001249 0.0000274 -0.0001191 -0.0001629 -0.0000379 0.0000134 -0.0001258 0.0000183 -0.0001615 0.0004492 -0.0004788 0.0001383 0.0000279 0.0002669 0.0007337 0.0001006 0.0006381 0.0005521 0.0005641 0.0004490 0.0011025 0.0001748 -0.0005736 -0.0000236 -0.0003328 -0.0000456 -0.0002039 -0.0001588 0.0009129 -0.0002131 -0.0001053 -0.0001028 0.0005706 -0.0003711 -0.0607011 -0.0146566 -0.0419424 -0.0158905 -0.0241867 -0.0006144 -0.0021186 0.0128923 -0.0634382 -0.0199789 -0.0183733 -0.0105380 -0.0076962 -0.0122812 -0.0092926 -0.0038968 -0.0083118 -0.0012612 -0.0031626 0.0002054 0.0007711 -0.0000548 -0.0001785 0.0005568 0.0030122 -0.0040269 -0.0072217 -0.0006837 -0.0045488 -0.0036225 -0.0070389 0.0002286 0.0003477 0.0004346 0.0008081 -0.0001712 -0.0004807 -0.0000689 0.0009123 -0.0001563 0.0002848 0.0003188 0.0014513 -0.0001788 0.0003150 -0.0013798 -0.0053848 -0.0036393 -0.0447650 -0.0027474 -0.0132770 0.0012338 0.0054632 0.0011414 -0.0005251 -0.0034695 0.0030955 -0.0013710 -0.0033407 -0.0012427 -0.0129819 0.0002878 -0.0023114 0.0015603 -0.0005212 -0.0022727 -0.0045011 0.0023368 -0.0032555
-0.0000469 -0.0001462 0.0000043 0.0000573 0.0002431 -0.0001516 0.0000730 0.0003159 -0.0001402 0.0001845 -0.0001147 -0.0001760 0.0000312 0.0002217 -0.0000239 0.0003017 -0.0000510 0.0002181 -0.0001622 0.0001510 -0.0000814 0.0002749 -0.0001469 0.0001927 0.0002540 0.0004202 0.0001927 0.0011328 0.0000295 0.0006577 -0.0000964 0.0002479 -0.0001616 -0.0000373 -0.0000409 0.0002406 -0.0001272 -0.0000585 0.0000194 -0.0000293 -0.0001530 -0.0000598 0.0000383 -0.0000126 0.0000135 0.0000998 0.0003715 -0.0003167 -0.0004394 0.0004374 0.0003297 0.0006883 0.0000949 0.0006022 0.0005593 0.0005393 0.0004585 0.0011526 0.0001196 -0.0005060 -0.0000577 -0.0004033 -0.0002898 -0.0000597 -0.0002126 0.0009035 -0.0004394 0.0000958 -0.0001181 0.0005999 -0.0041667 -0.0673108 -0.0170929 -0.0398949 -0.0161174 -0.0234622 -0.0005973 -0.0017500 -0.0096352 -0.0382108 -0.0215743 -0.0163182 -0.0104923 -0.0075493 -0.0119910 -0.0096424 -0.0038624 -0.0081711 -0.0012293 -0.0031361 0.0002037 0.0008046 -0.0000265 -0.0000883 0.0005664 0.0031995 -0.0040298 -0.0071334 -0.0006778 -0.0043792 -0.0035832 -0.0069137 0.0002213 0.0003741 0.0004173 0.0008472 -0.0001820 -0.0004766 -0.0000615 0.0009176 -0.0001474 0.0002672 0.0003084 0.0015040 -0.0001755 0.0003582 0.0081950 -0.0274128 0.0052947 -0.0423426 -0.0019928 -0.0130447 0.0010765 0.0056882 -0.0007346 0.0024780 -0.0026194 0.0027806 -0.0012311 -0.0035239 -0.0013528 -0.0126511 0.0003069 -0.0023506 0.0005286 0.0001563 -0.0024360 -0.0045040 0.0022799 -0.0020026
-0.0000602 -0.0001443 0.0000031 0.0001048 0.0002337 -0.0000820 0.0000299 0.0006855 -0.0001693 0.0001742 -0.0001215 -0.0001482 -0.0000223 0.0001674 -0.0000346 0.0002920 -0.0000664 0.0002685 -0.0001832 0.0001583 -0.0001155 0.0002740 -0.0001680 0.0001331 0.0002056 0.0002139 0.0001153 0.0006909 -0.0000703 -0.0000257 -0.0001074 0.0002512 -0.0002124 -0.0000874 -0.0000536 0.0002416 -0.0001639 -0.0000701 0.0000228 0.0000144 -0.0001679 -0.0001171 0.0000547 0.0000496 0.0000154 0.0002685 0.0003480 -0.0003029 0.0001099 0.0000169 0.0003458 0.0006545 0.0000756 0.0005520 0.0005299 0.0006153 0.0004346 0.0012057 0.0000502 -0.0003998 -0.0000279 -0.0005410 -0.0003136 0.0000309 -0.0001846 0.0008137 -0.0004253 -0.0000531 -0.0000911 0.0005701 0.0060820 -0.0743827 -0.0146719 -0.0387650 -0.0153744 -0.0225544 -0.0004100 -0.0029175 0.0130552 -0.0569878 -0.0153362 -0.0186839 -0.0101333 -0.0051457 -0.0114750 -0.0095412 -0.0040250 -0.0085713 -0.0012415 -0.0027858 -0.0002348 0.0000495 -0.0003297 -0.0004654 0.0004879 0.0031430 -0.0039422 -0.0064997 -0.0006504 -0.0041367 -0.0032348 -0.0068501 0.0004978 0.0006719 0.0006664 0.0015204 -0.0002569 -0.0005858 -0.0001775 0.0007904 -0.0004298 -0.0000763 0.0003054 0.0027284 -0.0006077 0.0002645 0.0070781 -0.0189971 -0.0008819 -0.0338850 -0.0018000 -0.0124089 0.0011801 0.0065337 0.0000622 0.0029561 -0.0006822 0.0021238 -0.0013475 -0.0033619 -0.0007638 -0.0125743 0.0003640 -0.0018924 0.0002398 0.0014510 -0.0024585 -0.0045144 0.0029913 -0.0019478
-0.0000591 -0.0000964 0.0000073 0.0001449 0.0002200 -0.0000870 0.0000208 0.0008474 -0.0001732 0.0001190 -0.0001246 -0.0001245 -0.0000553 0.0000990 -0.0000458 0.0002758 -0.0000691 0.0002748 -0.0001851 0.0001750 -0.0001088 0.0002821 -0.0001653 0.0001424 0.0001626 -0.0000067 0.0000219 0.0002000 -0.0001289 -0.0004963 -0.0001054 0.0002139 -0.0002110 -0.0001194 -0.0000514 0.0002166 -0.0001826 -0.0000895 0.0000280 0.0000335 -0.0001954 -0.0000652 0.0000641 0.0000905 0.0000290 0.0003589 0.0003844 -0.0003511 0.0007167 -0.0003903 0.0003253 0.0007346 0.0000858 0.0007534 0.0004730 0.0009087 0.0003988 0.0013868 0.0001659 -0.0003685 -0.0001495 -0.0003475 -0.0000201 -0.0000958 -0.0001139 0.0009111 -0.0003592 0.0000347 -0.0000736 0.0006729 0.0176594 -0.0870819 -0.0061051 -0.0445026 -0.0141713 -0.0217048 -0.0000366 -0.0039876 0.0176562 -0.0593732 -0.0159068 -0.0166729 -0.0099768 -0.0043153 -0.0113045 -0.0087699 -0.0038847 -0.0089226 -0.0013190 -0.0027130 -0.0003877 -0.0002295 -0.0003696 -0.0008347 0.0006216 0.0038146 -0.0039169 -0.0059632 -0.0006926 -0.0039578 -0.0029403 -0.0066334 0.0007724 0.0008196 0.0006451 0.0008205 -0.0002867 -0.0008232 -0.0001160 0.0011131 -0.0005883 -0.0004963 0.0000866 0.0020178 -0.0006842 0.0003699 0.0026970 -0.0047959 -0.0136574 -0.0271938 -0.0017902 -0.0120085 0.0013041 0.0070056 0.0006835 0.0037149 -0.0007220 0.0032323 -0.0013426 -0.0033482 -0.0006472 -0.0125220 0.0005239 -0.0014515 0.0020350 0.0008056 -0.0019607 -0.0045409 0.0031330 -0.0025575
-0.0000571 0.0000149 0.0000058 0.0002310 0.0002186 -0.0000188 0.0000143 0.0009481 -0.0001891 0.0001623 -0.0001205 -0.0000389 -0.0000692 0.0001456 -0.0000586 0.0003364 -0.0000381 0.0002700 -0.0001970 0.0002245 -0.0000967 0.0003283 -0.0001897 0.0002038 0.0001262 -0.0001202 -0.0000529 -0.0000955 -0.0001754 -0.0007494 -0.0001121 0.0002201 -0.0002073 -0.0000787 -0.0000514 0.0002241 -0.0002059 -0.0000567 0.0000301 0.0000558 -0.0001987 -0.0000567 0.0000778 0.0001071 0.0000454 0.0004123 0.0003645 -0.0004067 0.0006864 -0.0003102 0.0002623 0.0007424 0.0000744 0.0007534 0.0004860 0.0007893 0.0003771 0.0013498 0.0001528 -0.0003573 -0.0003454 -0.0003312 -0.0000111 -0.0001958 -0.0001194 0.0008566 -0.0002508 0.0000506 -0.0000740 0.0006692 0.0219913 -0.1066197 -0.0067000 -0.0461825 -0.0141050 -0.0204766 -0.0000090 -0.0020610 0.0155436 -0.0647269 -0.0190613 -0.0146010 -0.0100965 -0.0060514 -0.0110090 -0.0085262 -0.0039237 -0.0079303 -0.0014183 -0.0029367 0.0000401 0.0004699 -0.0000672 -0.0005358 0.0008116 0.0048052 -0.0039395 -0.0056826 -0.0006613 -0.0035014 -0.0029294 -0.0062948 0.0007587 0.0006630 0.0003811 -0.0002873 -0.0002573 -0.0006351 0.0001053 0.0015955 -0.0004417 -0.0002354 -0.0001339 0.0002319 -0.0002987 0.0009002 -0.0098539 0.0047310 -0.0092342 -0.0300344 -0.0015423 -0.0115127 0.0012873 0.0069143 0.0009091 0.0045901 -0.0010707 0.0039852 -0.0013101 -0.0030606 -0.0009949 -0.0121253 0.0006183 -0.0011293 0.0020972 0.0010911 -0.0023669 -0.0036795 0.0025334 -0.0024732
-0.0000493 0.0000382 0.0000010 0.0002234 0.0001881 -0.0001631 0.0000061 0.0009459 -0.0002031 0.0001047 -0.0001285 -0.0000330 -0.0000774 0.0000702 -0.0000588 0.0002881 -0.0000537 0.0002190 -0.0001950 0.0002051 -0.0001020 0.0002653 -0.0002285 0.0001533 0.0000768 -0.0003287 -0.0001411 -0.0006226 -0.0002307 -0.0012219 -0.0001148 0.0001919 -0.0002002 -0.0000417 -0.0000510 0.0001797 -0.0002145 -0.0001377 0.0000423 0.0000642 -0.0002251 -0.0002118 0.0000966 0.0000848 0.0000774 0.0004426 0.0003311 -0.0004400 0.0006380 -0.0002947 0.0002697 0.0005983 0.0000013 0.0005526 0.0004401 0.0005661 0.0003722 0.0012363 0.0000422 -0.0003271 -0.0003472 -0.0007698 -0.0002792 -0.0001455 -0.0001312 0.0006822 -0.0001446 -0.0002281 -0.0000942 0.0005696 0.0061023 -0.0798911 -0.0087991 -0.0437725 -0.0143765 -0.0191143 -0.0002531 -0.0000367 0.0251611 -0.0849425 -0.0120126 -0.0195058 -0.0102741 -0.0065248 -0.0112490 -0.0088015 -0.0038898 -0.0073077 -0.0013662 -0.0031091 0.0001374 0.0007215 -0.0000056 -0.0003474 0.0007487 0.0048845 -0.0040178 -0.0056789 -0.0006092 -0.0030703 -0.0029156 -0.0062881 0.0007286 0.0006096 0.0003759 -0.0002128 -0.0002472 -0.0005636 0.0001332 0.0016313 -0.0004396 -0.0000982 -0.0001338 0.0002679 -0.0002861 0.0008738 -0.0029713 -0.0072284 -0.0058347 -0.0310410 -0.0017894 -0.0103163 0.0013354 0.0067748 0.0023969 0.0033622 -0.0004253 0.0037400 -0.0013600 -0.0029570 -0.0011376 -0.0114742 0.0005660 -0.0009030 0.0019327 0.0015227 -0.0024690 -0.0033928 0.0023940 -0.0024988
-0.0000474 0.0001191 -0.0000169 0.0002604 0.0001521 -0.0001748 -0.0000025 0.0009475 -0.0002155 0.0002122 -0.0001590 0.0000408 -0.0001184 -0.0000290 -0.0000749 0.0003534 -0.0000917 0.0003291 -0.0001968 0.0002532 -0.0001447 0.0003134 -0.0002565 0.0000741 0.0000091 -0.0006267 -0.0002887 -0.0014641 -0.0002986 -0.0019355 -0.0001236 0.0002075 -0.0001881 0.0000145 -0.0000496 0.0002117 -0.0002483 -0.0002079 0.0000556 0.0000934 -0.0003007 -0.0003936 0.0001037 0.0000555 0.0001247 0.0005808 0.0003252 -0.0004238 0.0003713 -0.0000455 0.0002548 0.0005219 -0.0000054 0.0003462 0.0003246 0.0004159 0.0003826 0.0011165 0.0000503 -0.0003546 -0.0002925 -0.0012209 -0.0003148 -0.0001557 -0.0001148 0.0005620 -0.0002026 -0.0003629 -0.0001014 0.0004843 0.0139352 -0.0865098 -0.0076810 -0.0437924 -0.0143034 -0.0186504 -0.0003404 0.0004473 0.0157486 -0.0671865 -0.0123043 -0.0195078 -0.0105223 -0.0065247 -0.0118064 -0.0087423 -0.0035708 -0.0073033 -0.0012962 -0.0032253 0.0001382 0.0007858 0.0000171 -0.0002823 0.0007501 0.0048854 -0.0040724 -0.0057996 -0.0006255 -0.0029564 -0.0028873 -0.0063175 0.0006921 0.0005590 0.0003370 -0.0004089 -0.0001988 -0.0006383 0.0001560 0.0015812 -0.0004420 -0.0001738 -0.0001318 0.0001827 -0.0002710 0.0007273 0.0027065 -0.0125398 -0.0000973 -0.0391758 -0.0017656 -0.0100764 0.0012113 0.0067071 0.0003436 0.0047065 -0.0002592 0.0039531 -0.0013285 -0.0029493 -0.0006594 -0.0116376 0.0005046 -0.0007740 0.0022549 0.0001818 -0.0021894 -0.0036274 0.0019042 -0.0018651
-0.0000519 0.0000910 -0.0000376 0.0002782 0.0001544 -0.0002513 -0.0000207 0.0008531 -0.0002180 0.0001434 -0.0001623 0.0000502 -0.0001489 -0.0001281 -0.0000778 0.0002922 -0.0000831 0.0002728 -0.0001924 0.0002447 -0.0001505 0.0003254 -0.0002511 0.0000005 -0.0000700 -0.0009933 -0.0004056 -0.0022367 -0.0003448 -0.0025745 -0.0001246 0.0001585 -0.0001610 0.0000325 -0.0000400 0.0001839 -0.0002703 -0.0003136 0.0000622 0.0000904 -0.0003471 -0.0005563 0.0000752 -0.0000847 0.0001425 0.0005732 0.0003063 -0.0005120 0.0012214 0.0006901 0.0002051 0.0004063 0.0000139 0.0000199 0.0003661 0.0001785 0.0003265 0.0009180 0.0000942 -0.0002959 -0.0002229 -0.0014676 0.0000344 -0.0002326 -0.0000850 0.0005315 -0.0000315 -0.0005316 -0.0000683 0.0004542 0.0289891 -0.1110654 -0.0077962 -0.0427124 -0.0142425 -0.0182810 -0.0003033 0.0006200 -0.0043194 -0.0345612 -0.0202482 -0.0144680 -0.0105323 -0.0063303 -0.0106968 -0.0091302 -0.0034900 -0.0070588 -0.0013459 -0.0029621 0.0001343 0.0008882 0.0000600 -0.0001990 0.0007708 0.0050543 -0.0040325 -0.0054612 -0.0006016 -0.0027001 -0.0028698 -0.0060861 0.0006786 0.0006128 0.0003228 -0.0002240 -0.0002091 -0.0003333 0.0001539 0.0016091 -0.0004432 0.0000620 -0.0001147 0.0003786 -0.0002730 0.0009659 -0.0119518 0.0124155 -0.0024302 -0.0367737 -0.0015396 -0.0105878 0.0012043 0.0067416 -0.0005378 0.0067312 -0.0007592 0.0045226 -0.0012458 -0.0028639 -0.0003751 -0.0117882 0.0005580 -0.0006099 0.0014047 0.0004748 -0.0021400 -0.0036417 0.0021536 -0.0020203
-0.0000477 0.0000768 -0.0000342 0.0003041 0.0001618 -0.0003193 -0.0000337 0.0007376 -0.0002300 0.0000675 -0.0001413 0.0000698 -0.0001515 -0.0002427 -0.0000818 0.0002059 -0.0000870 0.0002413 -0.0001772 0.0002170 -0.0001268 0.0002943 -0.0002517 -0.0000062 -0.0001122 -0.0012904 -0.0005007 -0.0028162 -0.0003648 -0.0029849 -0.0001067 0.0000989 -0.0001389 0.0000602 -0.0000422 0.0001129 -0.0002501 -0.0003967 0.0000708 0.0000987 -0.0003354 -0.0006195 0.0000816 -0.0001434 0.0001384 0.0005357 0.0003988 -0.0003221 0.0016963 0.0007639 0.0003089 0.0005117 -0.0000414 0.0000084 0.0004477 0.0002253 0.0002774 0.0010088 0.0000956 -0.0001784 -0.0002669 -0.0011494 -0.0000095 -0.0001481 -0.0000691 0.0005364 0.0000604 -0.0006163 -0.0000499 0.0004537 0.0162023 -0.0900099 -0.0057844 -0.0440662 -0.0141414 -0.0179159 -0.0002826 0.0007772 -0.0177762 -0.0316782 -0.0187161 -0.0159527 -0.0103801 -0.0064070 -0.0090325 -0.0099842 -0.0037507 -0.0065897 -0.0013272 -0.0029128 0.0001838 0.0008898 -0.0000545 -0.0000718 0.0007483 0.0049863 -0.0040090 -0.0053262 -0.0005888 -0.0026217 -0.0028443 -0.0060613 0.0006906 0.0005947 0.0003139 -0.0002030 -0.0002423 -0.0003479 0.0001462 0.0015981 -0.0004150 0.0000541 -0.0000923 0.0003493 -0.0002540 0.0009321 -0.0136684 0.0163364 -0.0068011 -0.0302359 -0.0015670 -0.0108501 0.0013952 0.0065326 0.0026072 0.0047625 -0.0003940 0.0034771 -0.0011280 -0.0029142 -0.0004981 -0.0116609 0.0007260 -0.0007114 0.0004804 0.0013148 -0.0017845 -0.0038433 0.0025400 -0.0021863
-0.0000304 0.0001197 -0.0000200 0.0002306 0.0001792 -0.0004166 -0.0000066 0.0008112 -0.0002339 -0.0000630 -0.0001266 0.0000075 -0.0001399 -0.0003650 -0.0000860 0.0000854 -0.0000953 0.0001661 -0.0001417 0.0001887 -0.0000983 0.0002199 -0.0002138 0.0000237 -0.0001058 -0.0017886 -0.0006026 -0.0035930 -0.0004260 -0.0034774 -0.0001019 -0.0000784 -0.0000732 0.0001114 -0.0000533 -0.0001094 -0.0002377 -0.0005254 0.0000924 0.0001203 -0.0003180 -0.0007719 0.0000933 -0.0003334 0.0001695 0.0003618 0.0005269 -0.0002812 0.0007221 0.0002975 0.0004125 0.0006475 -0.0000190 -0.0001204 0.0004895 0.0001092 0.0003078 0.0009431 0.0000779 -0.0002248 -0.0002278 -0.0009605 -0.0001224 -0.0002020 -0.0000123 0.0003355 -0.0000286 -0.0006643 -0.0000321 0.0003802 -0.0034327 -0.0647727 -0.0073738 -0.0442348 -0.0139250 -0.0178141 -0.0002566 0.0008258 0.0159416 -0.0816937 -0.0176667 -0.0162542 -0.0102140 -0.0065853 -0.0104700 -0.0088148 -0.0036894 -0.0066048 -0.0012789 -0.0029661 0.0001922 0.0008458 -0.0002052 0.0000481 0.0007549 0.0048801 -0.0039899 -0.0052711 -0.0005831 -0.0026121 -0.0028015 -0.0060903 0.0006982 0.0005361 0.0003257 -0.0002991 -0.0002213 -0.0004441 0.0001470 0.0015234 -0.0003980 -0.0000222 -0.0000797 0.0002590 -0.0002354 0.0008707 -0.0145103 0.0125407 -0.0055166 -0.0328631 -0.0015028 -0.0109404 0.0014658 0.0064972 0.0043851 0.0039098 0.0001349 0.0032211 -0.0011406 -0.0025509 -0.0006923 -0.0111685 0.0007196 -0.0005444 -0.0000693 0.0012393 -0.0015738 -0.0037691 0.0029407 -0.0027032
-0.0000155 0.0000069 -0.0000122 0.0000867 0.0001963 -0.0005624 0.0000334 0.0010127 -0.0001870 -0.0002817 -0.0001558 -0.0001896 -0.0001613 -0.0007312 -0.0001032 -0.0002388 -0.0001100 0.0001041 -0.0001279 0.0000226 -0.0001034 0.0000485 -0.0001783 -0.0000360 -0.0000942 -0.0025635 -0.0007255 -0.0046944 -0.0005014 -0.0038848 -0.0001321 -0.0004455 -0.0000087 0.0000709 -0.0000701 -0.0004761 -0.0002301 -0.0007527 0.0001345 0.0001199 -0.0003180 -0.0010036 0.0000911 -0.0006871 0.0002098 -0.0000549 0.0006259 -0.0004300 0.0005766 0.0000035 0.0004683 0.0006718 0.0000672 -0.0002758 0.0005948 0.0001232 0.0003812 0.0008369 0.0000600 -0.0004024 -0.0003472 -0.0010755 -0.0000754 -0.0003229 0.0000273 0.0001889 0.0001128 -0.0008723 -0.0000172 0.0002392 -0.0004559 -0.0606807 -0.0114933 -0.0410424 -0.0138787 -0.0177064 -0.0001663 0.0008829 0.0168939 -0.0678059 -0.0203803 -0.0145878 -0.0102544 -0.0066116 -0.0123894 -0.0074884 -0.0032914 -0.0066133 -0.0012841 -0.0028406 0.0002072 0.0009513 -0.0000628 0.0000051 0.0007766 0.0049236 -0.0039881 -0.0052334 -0.0006071 -0.0025165 -0.0028386 -0.0060395 0.0006907 0.0006139 0.0003020 -0.0003651 -0.0001721 -0.0003706 0.0000942 0.0016004 -0.0003666 0.0000796 -0.0000975 0.0001699 -0.0002254 0.0009146 -0.0177694 0.0212995 -0.0001248 -0.0401831 -0.0014219 -0.0113409 0.0014335 0.0065769 0.0030028 0.0047355 -0.0007147 0.0041090 -0.0012125 -0.0022588 -0.0007412 -0.0114979 0.0006484 -0.0004721 -0.0012533 0.0030005 -0.0016978 -0.0035547 0.0024075 -0.0022951
-0.0000132 -0.0000232 -0.0000074 0.0000682 0.0002120 -0.0005094 0.0000453 0.0010243 -0.0001805 -0.0002308 -0.0001722 -0.0002700 -0.0001939 -0.0011071 -0.0001288 -0.0004166 -0.0000992 0.0001991 -0.0001430 -0.0001073 -0.0001301 -0.0000149 -0.0002116 -0.0001317 -0.0001104 -0.0030722 -0.0008177 -0.0054504 -0.0005193 -0.0040512 -0.0001529 -0.0007092 0.0000170 -0.0000003 -0.0000841 -0.0006955 -0.0002311 -0.0009128 0.0001705 0.0000793 -0.0003011 -0.0011815 0.0001020 -0.0009286 0.0002479 -0.0002855 0.0006547 -0.0004565 0.0008199 -0.0002671 0.0005297 0.0005910 0.0001133 -0.0002287 0.0006819 0.0001110 0.0004090 0.0008334 0.0000533 -0.0005934 -0.0004460 -0.0011177 -0.0001745 -0.0003929 0.0000244 0.0000893 0.0001433 -0.0008916 -0.0000111 0.0000848 0.0107188 -0.0731452 -0.0174065 -0.0368399 -0.0138215 -0.0176168 -0.0000347 0.0006756 0.0204575 -0.0812498 -0.0224461 -0.0133869 -0.0105185 -0.0065105 -0.0121751 -0.0076220 -0.0033347 -0.0064150 -0.0012463 -0.0028406 0.0002418 0.0010138 -0.0000351 0.0000153 0.0007842 0.0048356 -0.0039240 -0.0051352 -0.0006037 -0.0025504 -0.0028490 -0.0060492 0.0006987 0.0007010 0.0003088 -0.0003170 -0.0001826 -0.0004147 0.0000832 0.0016846 -0.0003065 0.0001495 -0.0000655 0.0001151 -0.0002090 0.0008064 -0.0156979 0.0224160 -0.0030398 -0.0328937 -0.0015593 -0.0114559 0.0013951 0.0065406 0.0027849 0.0039603 -0.0011628 0.0040366 -0.0011980 -0.0022169 -0.0007746 -0.0119531 0.0008216 -0.0005554 -0.0004010 0.0029079 -0.0015648 -0.0035332 0.0019900 -0.0020723
-0.0000097 -0.0001103 -0.0000058 -0.0000718 0.0002181 -0.0005954 0.0000480 0.0007450 -0.0001969 -0.0003660 -0.0001322 -0.0003072 -0.0001972 -0.0013314 -0.0001233 -0.0005409 -0.0000712 0.0001891 -0.0001273 -0.0001782 -0.0001178 -0.0000107 -0.0002230 -0.0001362 -0.0001412 -0.0032585 -0.0008380 -0.0056134 -0.0005592 -0.0044062 -0.0001278 -0.0007766 -0.0000059 -0.0001891 -0.0000701 -0.0007458 -0.0002396 -0.0009882 0.0001752 0.0000466 -0.0002601 -0.0012864 0.0001026 -0.0010841 0.0002771 -0.0002949 0.0006248 -0.0004938 0.0008719 -0.0003137 0.0005312 0.0005606 0.0001120 -0.0002482 0.0007015 -0.0000864 0.0003691 0.0007857 0.0001230 -0.0005249 -0.0003169 -0.0008811 -0.0000134 -0.0001173 0.0000659 0.0002714 0.0000018 -0.0004699 0.0000213 0.0002333 0.0211534 -0.0997571 -0.0088607 -0.0440619 -0.0135792 -0.0173284 0.0000142 0.0006505 0.0111171 -0.0854676 -0.0153672 -0.0183136 -0.0103779 -0.0064144 -0.0119430 -0.0074677 -0.0034682 -0.0064300 -0.0012310 -0.0027824 0.0002688 0.0010095 -0.0001177 0.0001517 0.0007897 0.0048671 -0.0037980 -0.0047353 -0.0005419 -0.0023902 -0.0028292 -0.0058770 0.0007094 0.0008148 0.0003359 -0.0000814 -0.0001941 -0.0001933 0.0001137 0.0017422 -0.0002840 0.0003978 -0.0000274 0.0002952 -0.0002091 0.0010045 -0.0089386 0.0115349 -0.0174312 -0.0188607 -0.0017683 -0.0109068 0.0013600 0.0065806 0.0034293 0.0030332 -0.0004680 0.0037134 -0.0012002 -0.0019984 -0.0007694 -0.0117251 0.0008340 -0.0004139 0.0001729 0.0024338 -0.0014720 -0.0034059 0.0023878 -0.0028026
-0.0000147 -0.0002287 -0.0000129 -0.0001340 0.0002203 -0.0005634 0.0000380 0.0006057 -0.0002007 -0.0004069 -0.0001199 -0.0002170 -0.0001756 -0.0013460 -0.0001144 -0.0005398 -0.0000553 0.0003081 -0.0001181 -0.0001617 -0.0000894 0.0000964 -0.0001969 0.0000313 -0.0001585 -0.0031800 -0.0008191 -0.0053300 -0.0006308 -0.0047023 -0.0001027 -0.0006406 -0.0000599 -0.0003437 -0.0000529 -0.0006619 -0.0002468 -0.0009185 0.0001649 0.0001016 -0.0002703 -0.0011683 0.0001101 -0.0011449 0.0002664 -0.0002938 0.0006382 -0.0003323 0.0009286 -0.0005529 0.0005147 0.0007556 0.0001165 -0.0001865 0.0007188 0.0000020 0.0003530 0.0008610 0.0001938 -0.0003364 -0.0002032 -0.0005227 0.0004594 -0.0001650 0.0001204 0.0004395 0.0000075 -0.0003610 0.0000568 0.0003757 0.0142915 -0.0967056 -0.0044951 -0.0472381 -0.0135248 -0.0169995 0.0000367 0.0007569 0.0005210 -0.0531006 -0.0141688 -0.0183480 -0.0102643 -0.0064664 -0.0119582 -0.0072629 -0.0033365 -0.0064227 -0.0012523 -0.0027314 0.0002978 0.0010040 -0.0000367 0.0000925 0.0007945 0.0048048 -0.0037341 -0.0046692 -0.0005209 -0.0022985 -0.0028196 -0.0058609 0.0007094 0.0008440 0.0003142 -0.0001729 -0.0001754 -0.0002260 0.0001063 0.0017359 -0.0002770 0.0003798 -0.0000214 0.0001734 -0.0002015 0.0009327 -0.0068289 0.0092515 -0.0121085 -0.0203278 -0.0017057 -0.0106632 0.0012773 0.0066409 0.0030453 0.0045330 -0.0003494 0.0038736 -0.0011514 -0.0019752 -0.0007652 -0.0117733 0.0008123 -0.0004556 0.0009759 0.0015716 -0.0013382 -0.0034968 0.0017264 -0.0021726
-0.0000409 -0.0004289 -0.0000376 -0.0002246 0.0002453 -0.0005522 0.0000736 0.0003223 -0.0001949 -0.0004744 -0.0001245 -0.0002612 -0.0000898 -0.0010633 -0.0000923 -0.0004877 -0.0000367 0.0002529 -0.0001022 -0.0001857 -0.0000553 0.0001136 -0.0001633 0.0001417 -0.0001516 -0.0030007 -0.0007202 -0.0045920 -0.0006688 -0.0047205 -0.0000654 -0.0005175 -0.0000605 -0.0004707 -0.0000264 -0.0006646 -0.0002361 -0.0008969 0.0001511 0.0001120 -0.0002748 -0.0010595 0.0000877 -0.0012637 0.0002355 -0.0004468 0.0006240 -0.0002641 0.0006928 -0.0009080 0.0005381 0.0008028 0.0000885 -0.0002299 0.0006667 0.0001387 0.0003532 0.0008025 0.0001642 -0.0001903 -0.0000714 -0.0003011 0.0005488 -0.0002222 0.0001155 0.0004667 -0.0000458 -0.0001441 0.0000778 0.0003445 0.0093175 -0.0720575 -0.0074492 -0.0444272 -0.0135890 -0.0166775 0.0000712 0.0007411 0.0105590 -0.0527792 -0.0128541 -0.0178896 -0.0103267 -0.0064674 -0.0111274 -0.0076959 -0.0031609 -0.0064011 -0.0012634 -0.0027365 0.0002867 0.0010077 -0.0000192 -0.0000014 0.0007774 0.0045805 -0.0036859 -0.0047154 -0.0005096 -0.0024120 -0.0027583 -0.0058997 0.0007042 0.0008245 0.0003104 -0.0002362 -0.0001684 -0.0003557 0.0001130 0.0016638 -0.0002745 0.0002784 0.0000033 0.0000260 -0.0001866 0.0007058 0.0001837 0.0030326 -0.0093975 -0.0236947 -0.0013691 -0.0111883 0.0011769 0.0065839 0.0039736 0.0048148 -0.0009582 0.0041804 -0.0010966 -0.0020325 -0.0006517 -0.0116703 0.0009030 -0.0003721 0.0003451 0.0015046 -0.0014203 -0.0032989 0.0016748 -0.0020435
-0.0000790 -0.0006615 -0.0000662 -0.0003575 0.0002717 -0.0005488 0.0001246 -0.0000269 -0.0001789 -0.0005612 -0.0001184 -0.0003890 -0.0000220 -0.0008399 -0.0000704 -0.0004767 -0.0000348 0.0001443 -0.0000870 -0.0002331 -0.0000522 0.0000275 -0.0001881 0.0001331 -0.0001472 -0.0029281 -0.0006488 -0.0041942 -0.0006808 -0.0047164 -0.0000380 -0.0005012 -0.0000711 -0.0006347 -0.0000063 -0.0006754 -0.0002293 -0.0008816 0.0001418 0.0000675 -0.0002562 -0.0010015 0.0000382 -0.0012901 0.0001741 -0.0005681 0.0006239 -0.0002125 0.0005526 -0.0009898 0.0005982 0.0009354 0.0000274 -0.0001925 0.0006547 0.0002675 0.0003509 0.0008197 0.0001926 -0.0000082 0.0000211 -0.0000235 0.0001812 0.0004945 0.0001030 0.0007019 0.0000876 -0.0001278 0.0000727 0.0004000 0.0125181 -0.0737176 -0.0073704 -0.0430145 -0.0135852 -0.0161419 0.0000656 0.0009063 0.0043708 -0.0453332 -0.0080046 -0.0217780 -0.0103644 -0.0062894 -0.0109076 -0.0075733 -0.0031871 -0.0061328 -0.0012240 -0.0026480 0.0002782 0.0010806 -0.0002064 0.0002187 0.0007416 0.0045587 -0.0036764 -0.0045841 -0.0004953 -0.0023584 -0.0027284 -0.0057283 0.0006736 0.0009255 0.0003111 -0.0001139 -0.0001755 -0.0000951 0.0001311 0.0016759 -0.0002868 0.0004073 0.0000014 0.0000699 -0.0002015 0.0007275 0.0047427 -0.0038861 -0.0244634 -0.0126479 -0.0014656 -0.0109794 0.0013106 0.0063894 0.0023895 0.0059869 -0.0006752 0.0043718 -0.0010309 -0.0023564 -0.0004016 -0.0113144 0.0009053 -0.0004756 0.0007664 0.0010206 -0.0016009 -0.0031374 0.0025807 -0.0026824
-0.0000905 -0.0006193 -0.0000712 -0.0003560 0.0002950 -0.0004540 0.0001347 -0.0001458 -0.0001834 -0.0004812 -0.0001238 -0.0003765 -0.0000066 -0.0007756 -0.0000772 -0.0004334 -0.0000485 0.0001402 -0.0000867 -0.0002139 -0.0000631 -0.0000173 -0.0001850 0.0000928 -0.0001666 -0.0030244 -0.0006508 -0.0043710 -0.0007015 -0.0048977 -0.0000440 -0.0005557 -0.0000676 -0.0006879 0.0000043 -0.0006689 -0.0002287 -0.0008309 0.0001326 0.0000439 -0.0002306 -0.0009770 -0.0000051 -0.0013148 0.0001374 -0.0006323 0.0006638 -0.0001839 0.0005588 -0.0009130 0.0005605 0.0010547 -0.0000110 -0.0002588 0.0006805 0.0001710 0.0003471 0.0007363 0.0001773 0.0000289 -0.0000097 0.0000035 0.0004432 0.0002849 0.0000806 0.0006696 -0.0000235 -0.0003398 0.0000540 0.0002762 0.0128575 -0.0843931 -0.0061349 -0.0430399 -0.0134903 -0.0157336 0.0000744 0.0008583 0.0077858 -0.0446517 -0.0092635 -0.0221426 -0.0102141 -0.0065637 -0.0116829 -0.0068448 -0.0031776 -0.0061095 -0.0012072 -0.0027139 0.0002511 0.0010255 -0.0001608 0.0001023 0.0007617 0.0045126 -0.0036239 -0.0045429 -0.0004562 -0.0023599 -0.0027000 -0.0057457 0.0006682 0.0008636 0.0003368 -0.0002205 -0.0001977 -0.0001806 0.0001619 0.0015695 -0.0003182 0.0003008 0.0000083 -0.0000161 -0.0002134 0.0005275 0.0047261 0.0019978 -0.0121913 -0.0234846 -0.0016323 -0.0097164 0.0015480 0.0061829 0.0016427 0.0069701 -0.0002920 0.0047927 -0.0010365 -0.0028182 -0.0004561 -0.0104322 0.0008421 -0.0006921 0.0022573 0.0002942 -0.0013968 -0.0033829 0.0023068 -0.0021792
-0.0000810 -0.0005970 -0.0000755 -0.0004282 0.0003306 -0.0003879 0.0001292 -0.0003779 -0.0001740 -0.0005092 -0.0001196 -0.0004327 -0.0000013 -0.0007911 -0.0000960 -0.0004984 -0.0000545 0.0000492 -0.0000768 -0.0002543 -0.0000647 -0.0000803 -0.0001516 0.0000378 -0.0001817 -0.0032040 -0.0006796 -0.0045805 -0.0007224 -0.0051537 -0.0000454 -0.0006555 -0.0000482 -0.0007455 0.0000079 -0.0007093 -0.0002179 -0.0008351 0.0001223 0.0000080 -0.0002433 -0.0009572 -0.0000166 -0.0014253 0.0001387 -0.0006895 0.0006620 -0.0002112 0.0006623 -0.0009967 0.0005362 0.0010263 0.0000308 -0.0002966 0.0006326 0.0002691 0.0003423 0.0006674 0.0001696 -0.0000244 0.0000707 -0.0002163 0.0007784 -0.0002992 0.0001073 0.0005602 -0.0001461 -0.0002269 0.0000498 0.0001670 -0.0009227 -0.0570409 -0.0082555 -0.0414404 -0.0132482 -0.0155928 0.0001190 0.0007555 0.0062198 -0.0410368 -0.0175020 -0.0153434 -0.0097574 -0.0070441 -0.0116199 -0.0070037 -0.0030948 -0.0061508 -0.0012362 -0.0027394 0.0002403 0.0009051 -0.0000900 -0.0000315 0.0008097 0.0044982 -0.0035238 -0.0044333 -0.0003937 -0.0022553 -0.0026440 -0.0058145 0.0006775 0.0007377 0.0003339 -0.0004031 -0.0001968 -0.0003407 0.0001721 0.0014204 -0.0003253 0.0001626 0.0000272 -0.0000624 -0.0002074 0.0004596 0.0078602 -0.0077985 -0.0072241 -0.0301863 -0.0016784 -0.0093856 0.0014930 0.0063993 0.0035339 0.0066430 -0.0008592 0.0053814 -0.0010818 -0.0026364 -0.0002908 -0.0100050 0.0007632 -0.0004848 0.0018032 0.0009152 -0.0015202 -0.0030593 0.0014480 -0.0012704
-0.0000854 -0.0005692 -0.0000926 -0.0004683 0.0003508 -0.0001826 0.0001107 -0.0005567 -0.0001601 -0.0003953 -0.0001148 -0.0004125 0.0000098 -0.0007736 -0.0000974 -0.0004878 -0.0000586 0.0001066 -0.0000893 -0.0002158 -0.0000727 -0.0000611 -0.0001600 0.0000656 -0.0001831 -0.0032222 -0.0006949 -0.0046893 -0.0007160 -0.0052336 -0.0000415 -0.0006675 -0.0000524 -0.0007602 0.0000110 -0.0006769 -0.0002113 -0.0007739 0.0001201 -0.0000031 -0.0002463 -0.0008998 -0.0000450 -0.0014571 0.0001303 -0.0007024 0.0006244 -0.0002540 0.0009039 -0.0010997 0.0005859 0.0009981 0.0000577 -0.0001881 0.0006634 0.0003767 0.0003581 0.0006754 0.0001994 -0.0001075 0.0001083 -0.0002815 0.0004697 -0.0002535 0.0001813 0.0004477 0.0001496 -0.0004851 0.0000603 0.0001335 -0.0093569 -0.0516889 -0.0099602 -0.0406112 -0.0129572 -0.0155086 0.0001404 0.0009336 0.0079539 -0.0460304 -0.0145449 -0.0169726 -0.0097153 -0.0069233 -0.0112913 -0.0074523 -0.0031198 -0.0059283 -0.0012265 -0.0026800 0.0002659 0.0009252 -0.0001532 0.0001351 0.0008065 0.0044627 -0.0035424 -0.0045016 -0.0004011 -0.0021200 -0.0026314 -0.0057956 0.0006615 0.0007305 0.0002912 -0.0005649 -0.0001901 -0.0003518 0.0001493 0.0013984 -0.0003086 0.0000811 0.0000226 -0.0001936 -0.0001933 0.0003709 -0.0009425 -0.0059090 0.0017388 -0.0321578 -0.0017342 -0.0092740 0.0014512 0.0065211 0.0034921 0.0063595 -0.0010784 0.0052633 -0.0010811 -0.0026184 -0.0001608 -0.0103237 0.0007541 -0.0004610 0.0000953 0.0014541 -0.0012915 -0.0031378 0.0015919 -0.0016175
-0.0000816 -0.0006527 -0.0000984 -0.0005388 0.0003849 -0.0000805 0.0001525 -0.0007751 -0.0001599 -0.0004193 -0.0000932 -0.0004727 0.0000555 -0.0007683 -0.0000928 -0.0005407 -0.0000369 0.0000302 -0.0000747 -0.0002386 -0.0000442 -0.0000819 -0.0001090 0.0000697 -0.0001759 -0.0031789 -0.0006286 -0.0044901 -0.0006766 -0.0050971 -0.0000202 -0.0006773 -0.0000364 -0.0007857 0.0000345 -0.0007143 -0.0001941 -0.0007512 0.0001237 -0.0000367 -0.0002091 -0.0008484 -0.0001052 -0.0014109 0.0001119 -0.0006297 0.0005998 -0.0003584 0.0008665 -0.0008840 0.0005605 0.0010002 0.0000970 -0.0001247 0.0006856 0.0004119 0.0003863 0.0006031 0.0001486 -0.0002202 0.0000821 -0.0001943 0.0005676 -0.0003149 0.0001612 0.0004056 0.0001260 -0.0004599 0.0000699 0.0000982 0.0005456 -0.0653438 -0.0084151 -0.0425867 -0.0129386 -0.0153379 0.0001527 0.0009333 0.0204656 -0.0607574 -0.0068743 -0.0223842 -0.0098658 -0.0067913 -0.0110854 -0.0073459 -0.0032710 -0.0056488 -0.0011904 -0.0027037 0.0002939 0.0009042 -0.0000800 0.0000517 0.0007981 0.0042935 -0.0034593 -0.0044328 -0.0003948 -0.0020960 -0.0026128 -0.0058071 0.0006677 0.0006767 0.0002683 -0.0006628 -0.0001676 -0.0004580 0.0001347 0.0013509 -0.0002897 -0.0000046 0.0000340 -0.0003847 -0.0001657 0.0002452 0.0068034 -0.0035674 0.0044370 -0.0341013 -0.0017877 -0.0088673 0.0015402 0.0064133 0.0023967 0.0066141 -0.0011076 0.0048303 -0.0010646 -0.0024531 -0.0004098 -0.0106512 0.0008623 -0.0004265 0.0000432 0.0014162 -0.0010707 -0.0033986 0.0020211 -0.0024643
-0.0000702 -0.0007226 -0.0000926 -0.0005929 0.0004217 0.0000160 0.0002354 -0.0009019 -0.0001455 -0.0004647 -0.0000606 -0.0005374 0.0000945 -0.0007096 -0.0000787 -0.0005831 0.0000093 -0.0000650 -0.0000404 -0.0002653 0.0000084 -0.0001027 -0.0000595 0.0000750 -0.0001444 -0.0029419 -0.0005415 -0.0038465 -0.0006168 -0.0046587 0.0000145 -0.0005992 -0.0000313 -0.0007806 0.0000499 -0.0006879 -0.0001707 -0.0006848 0.0001184 -0.0000314 -0.0001839 -0.0006824 -0.0001442 -0.0012549 0.0001036 -0.0003983 0.0005842 -0.0002916 0.0006606 -0.0005798 0.0005392 0.0010744 0.0001015 0.0000669 0.0006380 0.0005369 0.0004065 0.0006342 0.0001823 -0.0002726 0.0000690 -0.0000879 0.0003355 -0.0001034 0.0001336 0.0004501 -0.0001055 -0.0001896 0.0000689 0.0001216 -0.0003189 -0.0629981 -0.0077696 -0.0421560 -0.0132362 -0.0149788 0.0001821 0.0008678 0.0190559 -0.0670749 -0.0058395 -0.0232225 -0.0095547 -0.0070735 -0.0113095 -0.0068705 -0.0030283 -0.0057135 -0.0011428 -0.0026671 0.0003569 0.0009107 0.0000319 0.0000343 0.0007920 0.0042072 -0.0033300 -0.0041305 -0.0003673 -0.0019901 -0.0025927 -0.0056735 0.0006772 0.0007353 0.0002689 -0.0005457 -0.0001345 -0.0002318 0.0001380 0.0013882 -0.0002874 0.0002194 0.0000324 -0.0003282 -0.0001513 0.0005089 0.0067473 0.0024192 -0.0077508 -0.0268374 -0.0020475 -0.0083540 0.0015551 0.0064829 0.0039629 0.0064230 -0.0009024 0.0048113 -0.0009599 -0.0022254 -0.0007512 -0.0104362 0.0010361 -0.0004219 0.0020077 0.0006528 -0.0013760 -0.0031565 0.0016400 -0.0019635
-0.0000606 -0.0007259 -0.0000818 -0.0005941 0.0004292 0.0000398 0.0002866 -0.0008466 -0.0001127 -0.0004956 -0.0000442 -0.0005633 0.0001118 -0.0005490 -0.0000571 -0.0005411 0.0000316 -0.0001364 -0.0000326 -0.0002647 0.0000267 -0.0001386 -0.0000574 0.0000698 -0.0001036 -0.0026211 -0.0004262 -0.0030454 -0.0005626 -0.0041321 0.0000409 -0.0005454 -0.0000196 -0.0007890 0.0000685 -0.0006763 -0.0001298 -0.0006662 0.0001089 -0.0000535 -0.0001574 -0.0005825 -0.0001253 -0.0012386 0.0001629 -0.0002110 0.0006483 -0.0003631 0.0007232 -0.0006911 0.0005672 0.0010032 0.0000961 0.0001068 0.0006763 0.0005012 0.0004270 0.0005923 0.0002307 -0.0003606 0.0000110 -0.0000273 0.0001651 -0.0001581 0.0001654 0.0003566 -0.0001568 -0.0002506 0.0000764 0.0001027 -0.0011652 -0.0664585 -0.0049161 -0.0446650 -0.0130606 -0.0148027 0.0002037 0.0008115 0.0065376 -0.0496753 -0.0087380 -0.0215138 -0.0096526 -0.0070027 -0.0117735 -0.0063470 -0.0028933 -0.0057966 -0.0011465 -0.0027084 0.0003446 0.0009148 0.0000305 0.0001131 0.0007875 0.0041248 -0.0032667 -0.0040254 -0.0003476 -0.0020100 -0.0025749 -0.0056952 0.0006903 0.0007048 0.0003079 -0.0005373 -0.0001101 -0.0002806 0.0001499 0.0013478 -0.0002976 0.0002014 0.0000342 -0.0003730 -0.0001396 0.0004739 -0.0024933 0.0099159 -0.0033066 -0.0311352 -0.0023568 -0.0077674 0.0015032 0.0064160 0.0027283 0.0083945 -0.0010901 0.0054215 -0.0010113 -0.0024267 -0.0008888 -0.0099370 0.0011456 -0.0006809 0.0025749 0.0004645 -0.0014442 -0.0030848 0.0011051 -0.0008851
-0.0000497 -0.0007662 -0.0000734 -0.0006308 0.0004379 -0.0000129 0.0003150 -0.0007968 -0.0000966 -0.0005410 -0.0000387 -0.0006302 0.0001263 -0.0004433 -0.0000291 -0.0005559 0.0000379 -0.0002287 -0.0000062 -0.0003093 0.0000230 -0.0001771 -0.0000450 0.0000317 -0.0000616 -0.0023583 -0.0003174 -0.0024976 -0.0005076 -0.0037336 0.0000708 -0.0005506 0.0000140 -0.0008353 0.0000930 -0.0007027 -0.0001004 -0.0006415 0.0001064 -0.0000865 -0.0001161 -0.0005344 -0.0000865 -0.0012001 0.0002077 -0.0001280 0.0007066 -0.0004382 0.0007346 -0.0007429 0.0006228 0.0008925 0.0001399 0.0001283 0.0007655 0.0005341 0.0003976 0.0006543 0.0002116 -0.0003203 0.0000847 0.0000255 0.0004224 -0.0002014 0.0002011 0.0004776 -0.0000274 -0.0001704 0.0000644 0.0002389 0.0074864 -0.0696719 -0.0081938 -0.0411306 -0.0127086 -0.0145498 0.0004158 0.0001620 0.0078041 -0.0378437 -0.0146081 -0.0170595 -0.0099789 -0.0064344 -0.0113610 -0.0063854 -0.0030042 -0.0059108 -0.0011265 -0.0027182 0.0002232 0.0007554 -0.0001236 0.0000501 0.0007743 0.0039310 -0.0030734 -0.0034700 -0.0002667 -0.0020592 -0.0025740 -0.0058594 0.0007281 0.0007440 0.0004254 -0.0001577 -0.0001470 -0.0005384 0.0001479 0.0013222 -0.0003110 0.0000426 0.0000825 -0.0001769 -0.0002087 0.0003320 0.0101477 -0.0107614 -0.0068583 -0.0295507 -0.0024127 -0.0078390 0.0014237 0.0062784 0.0000492 0.0106719 -0.0011244 0.0056531 -0.0009991 -0.0027047 -0.0006715 -0.0098476 0.0010853 -0.0008187 0.0018494 0.0006466 -0.0014922 -0.0031074 0.0017042 -0.0005038
