-0.0000000 -0.0000000 -0.0000000 -0.0000000 -0.0000000 -0.0000000 -0.0000000 -0.0000000 -0.0000000 -0.0000000 -0.0000000 -0.0000000 -0.0000000 -0.0000000 -0.0000000 -0.0000000 -0.0000000 -0.0000000 -0.0000000 -0.0000000 -0.0000000 -0.0000000 -0.0000000 -0.0000000 -0.0000000 -0.0000000 -0.0000000 -0.0000000 -0.0000000 -0.0000000 -0.0000000 -0.0000000 -0.0000000 -0.0000000 -0.0000000 -0.0000000 -0.0000000 -0.0000000 -0.0000000 -0.0000000 -0.0000000 -0.0000000 -0.0000000 -0.0000000 -0.0000000 -0.0000000 -0.0000000 -0.0000000 -0.0000000 -0.0000000 -0.0000000 -0.0000000 -0.0000000 -0.0000000 -0.0000000 -0.0000000 -0.0000000 -0.0000000 -0.0000000 -0.0000000 -0.0000000 -0.0000000 -0.0000000 -0.0000000 -0.0000000 -0.0000000 -0.0000000 -0.0000000 -0.0000000 -0.0000000 -0.0000000 -0.0000000 -0.0000000 -0.0000000 -0.0000000 -0.0000000 -0.0000000 -0.0000000 -0.0000000 -0.0000000 -0.0000000 -0.0000000 -0.0000000 -0.0000000 -0.0000000 -0.0000000 -0.0000000 -0.0000000 -0.0000000 -0.0000000 -0.0000000 -0.0000000 -0.0000000 -0.0000000 -0.0000000 -0.0000000 -0.0000000 -0.0000000 -0.0000000 -0.0000000 -0.0000000 -0.0000000 -0.0000000 -0.0000000 -0.0000000 -0.0000000 -0.0000000 -0.0000000 -0.0000000 -0.0000000 -0.0000000 -0.0000000 -0.0000000 -0.0000000 -0.0000000 -0.0000000 -0.0000000 -0.0000000 -0.0000000 -0.0000000 -0.0000000 -0.0000000 -0.0000000 -0.0000000 -0.0000000 -0.0000000 -0.0000000 -0.0000000 -0.0000000 -0.0000000 -0.0000000 -0.0000000 -0.0000000 -0.0000000 -0.0000000 -0.0000000 -0.0000000 -0.0000000 -0.0000000 -0.0000000 -0.0000000 -0.0000000 -0.0000000 -0.0000000 -0.0000000 -0.0000000 -0.0000000 -0.0000000 -0.0000000 -0.0000000 -0.0000000 -0.0000000 -0.0000000 -0.0000000 -0.0000000 -0.0000000 -0.0000000 -0.0000000 -0.0000000 -0.0000000 -0.0000000 -0.0000000 -0.0000000 -0.0000000 -0.0000000 -0.0000000 -0.0000000 -0.0000000 -0.0000000 -0.0000000 -0.0000000 -0.0000000 -0.0000000 -0.0000000 -0.0000000 -0.0000000 -0.0000000 -0.0000000 -0.0000000 -0.0000000 -0.0000000 -0.0000000 -0.0000000 -0.0000000 -0.0000000 -0.0000000 -0.0000000 -0.0000000 -0.0000000 -0.0000000 -0.0000000 -0.0000000 -0.0000000 -0.0000000 -0.0000000 -0.0000000 -0.0000000 -0.0000000 -0.0000000 -0.0000000 -0.0000000 -0.0000000 -0.0000000 -0.0000000 -0.0000000 -0.0000000 -0.0000000 -0.0000000 -0.0000000 -0.0000000 -0.0000000 -0.0000000 -0.0000000 -0.0000000 -0.0000000 -0.0000000
-0.0000000 -0.0000000 -0.0000000 -0.0000000 -0.0000000 -0.0000000 -0.0000000 -0.0000000 -0.0000000 -0.0000000 -0.0000000 -0.0000000 -0.0000000 -0.0000000 -0.0000000 -0.0000000 -0.0000000 -0.0000000 -0.0000000 -0.0000000 -0.0000000 -0.0000000 -0.0000000 -0.0000000 -0.0000000 -0.0000000 -0.0000000 -0.0000000 -0.0000000 -0.0000000 -0.0000000 -0.0000000 -0.0000000 -0.0000000 -0.0000000 -0.0000000 -0.0000000 -0.0000000 -0.0000000 -0.0000000 -0.0000000 -0.0000000 -0.0000000 -0.0000000 -0.0000000 -0.0000000 -0.0000000 -0.0000000 -0.0000000 -0.0000000 -0.0000000 -0.0000000 -0.0000000 -0.0000000 -0.0000000 -0.0000000 -0.0000000 -0.0000000 -0.0000000 -0.0000000 -0.0000000 -0.0000000 -0.0000000 -0.0000000 -0.0000000 -0.0000000 -0.0000000 -0.0000000 -0.0000000 -0.0000000 -0.0000000 -0.0000000 -0.0000000 -0.0000000 -0.0000000 -0.0000000 -0.0000000 -0.0000000 -0.0000000 -0.0000000 -0.0000000 -0.0000000 -0.0000000 -0.0000000 -0.0000000 -0.0000000 -0.0000000 -0.0000000 -0.0000000 -0.0000000 -0.0000000 -0.0000000 -0.0000000 -0.0000000 -0.0000000 -0.0000000 -0.0000000 -0.0000000 -0.0000000 -0.0000000 -0.0000000 -0.0000000 -0.0000000 -0.0000000 -0.0000000 -0.0000000 -0.0000000 -0.0000000 -0.0000000 -0.0000000 -0.0000000 -0.0000000 -0.0000000 -0.0000000 -0.0000000 -0.0000000 -0.0000000 -0.0000000 -0.0000000 -0.0000000 -0.0000000 -0.0000000 -0.0000000 -0.0000000 -0.0000000 -0.0000000 -0.0000000 -0.0000000 -0.0000000 -0.0000000 -0.0000000 -0.0000000 -0.0000000 -0.0000000 -0.0000000 -0.0000000 -0.0000000 -0.0000000 -0.0000000 -0.0000000 -0.0000000 -0.0000000 -0.0000000 -0.0000000 -0.0000000 -0.0000000 -0.0000000 -0.0000000 -0.0000000 -0.0000000 -0.0000000 -0.0000000 -0.0000000 -0.0000000 -0.0000000 -0.0000000 -0.0000000 -0.0000000 -0.0000000 -0.0000000 -0.0000000 -0.0000000 -0.0000000 -0.0000000 -0.0000000 -0.0000000 -0.0000000 -0.0000000 -0.0000000 -0.0000000 -0.0000000 -0.0000000 -0.0000000 -0.0000000 -0.0000000 -0.0000000 -0.0000000 -0.0000000 -0.0000000 -0.0000000 -0.0000000 -0.0000000 -0.0000000 -0.0000000 -0.0000000 -0.0000000 -0.0000000 -0.0000000 -0.0000000 -0.0000000 -0.0000000 -0.0000000 -0.0000000 -0.0000000 -0.0000000 -0.0000000 -0.0000000 -0.0000000 -0.0000000 -0.0000000 -0.0000000 -0.0000000 -0.0000000 -0.0000000 -0.0000000 -0.0000000 -0.0000000 -0.0000000 -0.0000000 -0.0000000 -0.0000000 -0.0000000 -0.0000000 -0.0000000 -0.0000000 -0.0000000
-0.0000017 -0.0000478 -0.0000097 -0.0000050 0.0000049 -0.0000420 0.0000016 -0.0000093 0.0000024 -0.0000070 0.0000077 -0.0000268 0.0000043 -0.0000281 -0.0000041 -0.0000148 -0.0000001 0.0000104 -0.0000083 0.0000151 -0.0000180 0.0000245 -0.0000034 -0.0000042 0.0000337 0.0000368 -0.0000004 0.0000131 -0.0000022 -0.0000012 0.0000008 0.0000495 0.0000063 0.0000067 -0.0000011 -0.0000020 -0.0000071 0.0000194 -0.0001901 0.0000134 -0.0000044 0.0000134 0.0000194 -0.0000307 -0.0000038 0.0000518 0.0000046 0.0000368 -0.0000056 0.0000355 0.0000017 0.0000168 -0.0000079 0.0000270 0.0000123 0.0000132 0.0000029 0.0000210 -0.0000024 0.0000552 0.0000061 0.0000109 0.0000427 -0.0000398 0.0000287 0.0000176 0.0001226 -0.0000551 -0.0000302 0.0000428 -0.0000074 0.0000322 -0.0000567 0.0000673 0.0004954 -0.0001244 0.0000039 0.0000429 -0.0000365 0.0001033 -0.0009267 0.0021082 -0.0000358 0.0000916 -0.0000217 0.0000680 0.0000392 0.0003870 0.0000754 0.0000353 -0.0000312 0.0001137 -0.0000546 0.0006954 -0.0007765 0.0003242 0.0002236 -0.0002168 0.0011379 -0.0001783 0.0000043 0.0001451 0.0023121 -0.0075916 0.0000465 0.0000836 -0.0001817 0.0001457 0.0000117 0.0000086 0.0000026 0.0000852 -0.0000000 0.0000151 -0.0000487 0.0002474 -0.0000002 0.0000331 0.0000256 0.0000056 0.0000238 -0.0001123 0.0002152 0.0002928 0.0005256 -0.0005259 -0.0000417 0.0000629 0.0007407 -0.0008901 -0.0000750 0.0001230 -0.0035952 0.0024079 0.0000923 -0.0000149 0.0000469 0.0006165 -0.0004492 0.0000200 -0.0000123 0.0000894 0.0000773 -0.0000182 -0.0001144 0.0002351 -0.0001147 0.0001686 -0.0020023 0.0017638 0.0008479 -0.0009044 0.0026217 -0.0024679 -0.0013601 0.0017351 -0.0000522 0.0000645 0.0000737 -0.0000688 -0.0000166 0.0002040 -0.0000685 0.0002360 0.0000322 -0.0000045 -0.0000806 0.0001275 0.0006453 0.0008441 -0.0001559 0.0002763 0.0002761 0.0000902 0.0004056 -0.0003053 -0.0002414 0.0003768 -0.0000339 0.0000729 0.0002533 -0.0002911 0.0000616 -0.0000802 -0.0023374 0.0044504 0.0001151 -0.0001351 0.0001295 -0.0000924 0.0001043 0.0000273 0.0058526 -0.0034324 -0.0007730 0.0004728 0.0000088 0.0000320 0.0005719 -0.0003807 -0.0002496 -0.0019970 0.0004173 -0.0004987 -0.0005679 0.0006987 -0.0000196 0.0000213 -0.0000218 0.0000372 0.0002695 -0.0002486 -0.0000167 0.0000374 -0.0002031 0.0002714
0.0000070 -0.0000425 -0.0000140 0.0000002 0.0000000 -0.0000340 0.0000048 -0.0000179 0.0000027 0.0000132 -0.0000012 -0.0000346 -0.0000094 -0.0000205 0.0000001 0.0000025 -0.0000017 0.0000202 -0.0000018 -0.0000074 -0.0000338 0.0000229 -0.0000159 0.0000042 0.0000238 -0.0000184 -0.0000003 0.0000125 0.0000121 -0.0000347 0.0000099 0.0000404 0.0000171 -0.0000408 0.0000054 -0.0000310 0.0000077 -0.0000088 0.0003307 -0.0003420 0.0000084 -0.0000250 0.0000870 -0.0000947 0.0000211 -0.0000249 0.0000088 0.0000224 0.0000818 -0.0000892 0.0000124 -0.0000345 0.0000029 -0.0000148 -0.0000148 -0.0000094 0.0000065 -0.0000277 -0.0000112 -0.0000185 -0.0000095 -0.0000254 -0.0000544 0.0000135 -0.0000086 0.0000044 0.0000461 -0.0000619 0.0000336 -0.0000651 0.0000006 -0.0000150 -0.0000159 -0.0000362 -0.0002336 0.0003822 0.0001144 -0.0000983 -0.0000312 -0.0000292 -0.0011527 0.0021870 -0.0000586 0.0000278 0.0000063 -0.0000024 -0.0009043 0.0009142 -0.0000862 -0.0000188 -0.0000360 0.0000161 0.0028108 -0.0015000 -0.0010572 0.0003810 0.0005723 -0.0006788 0.0027933 -0.0023676 0.0000888 -0.0000736 -0.0038076 -0.0047033 0.0000705 -0.0000542 -0.0001272 0.0000577 0.0000154 0.0000546 0.0002094 -0.0000757 0.0000053 -0.0000003 -0.0000051 0.0001127 -0.0000022 0.0000173 0.0000040 -0.0000024 -0.0000110 -0.0000235 0.0004632 -0.0002356 0.0005161 -0.0004179 0.0000144 0.0000147 -0.0003946 0.0004752 -0.0003121 0.0003166 -0.0058387 0.0026836 -0.0002089 0.0002740 -0.0001390 0.0010310 -0.0003643 0.0005595 0.0000800 0.0000054 0.0000873 0.0000153 0.0005711 -0.0003967 -0.0002055 0.0003414 -0.0011388 0.0021632 0.0000546 0.0001841 0.0004248 0.0003201 -0.0001480 0.0004107 -0.0001407 0.0001413 -0.0000389 0.0003488 0.0000693 0.0002049 -0.0000332 0.0005126 0.0000159 0.0000702 0.0000997 -0.0001445 -0.0008712 0.0020852 0.0000599 0.0001245 0.0004099 -0.0003439 0.0002697 0.0003786 -0.0003719 0.0003992 -0.0000131 0.0001052 0.0003712 -0.0006635 -0.0000083 0.0000766 -0.0119475 0.0130859 0.0002085 -0.0001320 -0.0000251 0.0000278 -0.0004521 0.0006517 0.0020666 -0.0032959 0.0003470 -0.0003850 0.0000131 0.0001022 0.0004482 -0.0002848 0.0010643 -0.0051083 0.0005213 -0.0007004 -0.0003265 0.0006463 -0.0000328 0.0000993 -0.0000080 0.0000710 -0.0000136 0.0000748 0.0000095 0.0000815 -0.0003417 0.0001847
-0.0000023 -0.0000120 -0.0000117 0.0000213 -0.0000142 -0.0000017 -0.0000006 0.0000051 0.0000023 0.0000804 0.0000144 -0.0000076 -0.0000116 0.0000213 -0.0000061 0.0000575 -0.0000087 0.0000259 -0.0000051 0.0000195 -0.0000215 0.0000139 -0.0000103 0.0000114 -0.0000439 0.0000013 -0.0000005 0.0000964 0.0000128 0.0000372 0.0000120 0.0001451 0.0000353 0.0000286 -0.0000010 0.0000079 0.0000225 0.0000394 0.0002241 -0.0003385 0.0000238 -0.0000009 0.0001044 -0.0000738 0.0000336 0.0000320 0.0000113 0.0000579 0.0000367 -0.0000258 0.0000128 -0.0000103 -0.0000061 -0.0000317 -0.0000342 0.0000158 0.0000033 -0.0000062 0.0000101 0.0000119 -0.0000148 -0.0000403 -0.0000460 0.0000029 -0.0000525 0.0000586 -0.0000102 -0.0000190 0.0002616 -0.0003278 -0.0000024 0.0000039 -0.0000738 0.0000141 -0.0005145 0.0008213 0.0000314 -0.0000166 -0.0000744 -0.0000101 -0.0010345 0.0016110 -0.0001605 0.0001941 0.0000305 -0.0000046 -0.0005343 0.0007792 0.0001165 -0.0001071 -0.0000438 0.0000247 -0.0060353 0.0023816 -0.0005620 -0.0001231 -0.0004477 0.0000689 0.0010864 -0.0006041 -0.0001470 0.0000505 -0.0056524 0.0068582 0.0000204 -0.0000486 -0.0001145 0.0001065 0.0000392 0.0001377 0.0003218 -0.0002945 -0.0000002 -0.0000337 0.0000804 -0.0002155 0.0000065 -0.0000491 -0.0000449 -0.0000598 0.0000690 -0.0001118 0.0005754 -0.0005300 -0.0002773 0.0002178 -0.0000050 -0.0000227 -0.0018206 0.0025970 0.0001265 -0.0000291 -0.0030065 0.0010252 -0.0002631 0.0001592 0.0013593 -0.0009790 0.0009088 -0.0005488 0.0000580 -0.0001045 0.0000681 -0.0001214 0.0006146 -0.0004135 0.0001263 -0.0001202 -0.0000449 0.0002286 -0.0026889 0.0018477 -0.0000903 -0.0007963 -0.0010319 0.0011561 -0.0000735 -0.0000120 0.0009030 -0.0006109 0.0002644 -0.0002921 -0.0002289 0.0005354 0.0000619 -0.0001171 0.0000418 -0.0000810 0.0004447 -0.0019496 0.0000512 -0.0000440 0.0003999 -0.0007660 0.0001759 -0.0001888 -0.0001201 0.0002126 -0.0000294 -0.0000157 0.0001224 0.0001910 -0.0000532 -0.0001294 -0.0186826 0.0143079 0.0004550 -0.0004984 -0.0000490 -0.0000934 -0.0002787 -0.0000211 0.0079631 -0.0113973 0.0008102 -0.0007777 0.0000205 -0.0000466 -0.0001849 -0.0001489 0.0094890 -0.0233506 0.0006518 -0.0011533 0.0000376 -0.0000492 -0.0000299 0.0000210 -0.0000367 0.0000161 -0.0001221 0.0000393 -0.0000299 0.0000471 -0.0000877 -0.0002766
-0.0000024 -0.0000485 0.0000019 -0.0000123 0.0000048 -0.0000700 -0.0000071 -0.0000090 -0.0000010 0.0000770 0.0000514 -0.0000788 -0.0000020 -0.0000240 -0.0000104 0.0000337 -0.0000028 0.0000112 -0.0000101 0.0000197 -0.0000127 -0.0000143 -0.0000049 -0.0000069 -0.0000470 0.0000852 0.0000017 0.0000586 0.0000162 -0.0000007 0.0000259 0.0001598 0.0000536 -0.0000065 0.0000019 -0.0000204 0.0000345 0.0000327 0.0000831 -0.0004597 0.0000082 0.0000137 0.0000356 0.0000191 -0.0000364 0.0000453 0.0000238 0.0000769 0.0000062 0.0000600 -0.0000202 0.0000200 -0.0000177 -0.0000432 -0.0000085 0.0000186 0.0000035 0.0000068 0.0000081 0.0000628 -0.0000131 -0.0000634 0.0000542 -0.0000616 -0.0000395 0.0000370 0.0000520 -0.0000119 0.0001541 -0.0002644 -0.0000165 0.0000825 -0.0000764 0.0001029 -0.0002080 0.0002557 -0.0000045 -0.0000104 -0.0000431 0.0000384 0.0009605 0.0003612 -0.0001361 0.0002780 0.0000435 0.0000088 0.0002744 0.0000175 -0.0000233 0.0001143 -0.0000148 0.0000407 -0.0065087 0.0029026 -0.0001824 0.0001888 -0.0005185 0.0003353 0.0020504 -0.0026082 -0.0001804 0.0001335 0.0001019 0.0002551 -0.0000054 0.0000509 0.0000940 0.0000016 0.0000427 0.0001763 0.0004401 -0.0005272 -0.0000185 -0.0000035 -0.0000152 -0.0001966 0.0000317 -0.0000609 -0.0000500 -0.0000373 -0.0000843 -0.0000704 0.0000876 -0.0004643 -0.0004491 0.0003968 -0.0000229 -0.0000010 -0.0005988 0.0019857 -0.0000499 -0.0001184 -0.0024670 0.0048572 -0.0000556 -0.0000005 -0.0012708 0.0008116 -0.0011294 -0.0000193 0.0000017 -0.0000120 0.0001163 -0.0001481 0.0006088 -0.0002664 0.0000385 -0.0001237 -0.0013372 0.0001063 -0.0030365 0.0018332 -0.0019838 0.0008425 -0.0025214 0.0020663 -0.0000689 -0.0000436 0.0010973 -0.0009031 0.0001591 -0.0001861 -0.0006713 0.0002471 0.0000188 -0.0001154 -0.0000946 0.0000957 0.0027402 -0.0053251 0.0001936 -0.0001898 0.0009107 -0.0005744 -0.0004191 -0.0012907 0.0004526 0.0000790 0.0000093 -0.0000405 0.0003435 0.0004018 0.0002134 -0.0003544 0.0088384 -0.0185595 0.0008699 -0.0007773 0.0000548 -0.0000740 0.0004478 -0.0009269 0.0055695 -0.0097685 0.0006612 -0.0007924 -0.0000380 -0.0000392 -0.0009580 0.0002697 0.0073135 -0.0144812 0.0005878 -0.0006001 0.0000065 0.0002057 -0.0000659 -0.0000091 -0.0000283 -0.0000423 0.0000345 -0.0002475 -0.0000156 -0.0000574 -0.0003137 0.0003805
0.0000359 -0.0001302 -0.0000058 -0.0000451 0.0000224 -0.0001406 -0.0000045 -0.0000783 0.0000050 0.0000326 0.0000740 -0.0001969 0.0000178 -0.0001193 0.0000024 -0.0000236 0.0000219 -0.0000220 0.0000005 -0.0000432 -0.0000126 -0.0000763 -0.0000227 -0.0000347 0.0000260 0.0000075 0.0000082 -0.0000761 0.0000325 -0.0001651 0.0000562 0.0000472 0.0000717 -0.0002164 0.0000254 -0.0001597 0.0000470 -0.0000685 -0.0000936 -0.0001437 0.0000180 -0.0001026 0.0000586 -0.0000682 -0.0000352 -0.0000983 0.0000360 0.0000365 -0.0000002 0.0000053 -0.0000024 -0.0000703 -0.0000082 -0.0001123 0.0000158 -0.0000596 -0.0000026 -0.0000337 0.0000122 -0.0000646 0.0000013 -0.0001247 -0.0000218 -0.0000462 -0.0000383 -0.0000628 -0.0000035 0.0000114 -0.0003061 0.0002461 -0.0000109 0.0000632 -0.0001186 0.0000911 0.0001067 0.0000090 0.0000123 -0.0001219 0.0000333 -0.0001072 0.0015773 -0.0002922 -0.0000780 0.0000244 0.0000277 -0.0000367 -0.0000782 -0.0002470 0.0001721 -0.0002371 0.0000234 -0.0001355 -0.0024643 0.0038844 -0.0003595 0.0007810 -0.0001238 0.0001268 0.0082823 -0.0089234 0.0000687 -0.0000517 0.0012460 -0.0033536 -0.0000304 0.0000153 -0.0001062 0.0001639 0.0000354 0.0001302 0.0001078 -0.0000875 -0.0000088 -0.0000120 -0.0001914 0.0001442 0.0000319 -0.0000874 0.0000426 -0.0001107 -0.0001837 0.0000121 -0.0004769 -0.0001241 0.0002727 -0.0000943 -0.0000734 0.0000383 0.0000367 0.0004576 0.0000915 -0.0002662 -0.0030521 0.0033256 0.0001817 -0.0001927 -0.0005443 0.0007716 -0.0027897 0.0018183 0.0000629 -0.0000047 0.0000816 -0.0000912 0.0001728 -0.0000611 0.0000436 -0.0000851 -0.0021522 0.0020019 -0.0004231 0.0004214 -0.0055608 0.0051693 -0.0018677 0.0009796 0.0000071 -0.0000608 0.0001199 0.0000343 -0.0003060 0.0000506 -0.0003836 0.0001743 0.0000085 -0.0001358 0.0002257 -0.0003909 0.0021417 -0.0029328 0.0003258 -0.0006372 0.0011867 -0.0008811 -0.0019490 0.0004330 0.0011818 -0.0005476 0.0000538 -0.0000571 -0.0002283 0.0005394 0.0001180 0.0000246 0.0099464 -0.0134078 0.0006153 -0.0003885 -0.0000444 0.0000196 0.0001681 -0.0001894 0.0115522 -0.0202775 0.0003236 -0.0000896 -0.0000783 0.0000454 -0.0011524 0.0008317 0.0028265 0.0013428 -0.0007225 0.0001917 -0.0000369 0.0004443 -0.0000753 0.0000667 -0.0000214 -0.0000461 -0.0002177 0.0001944 -0.0000586 0.0000405 0.0003029 0.0000976
0.0000362 -0.0001066 -0.0000018 -0.0000353 0.0000168 -0.0001013 -0.0000005 -0.0000689 0.0000111 0.0000945 0.0000684 -0.0001400 0.0000210 -0.0000808 0.0000070 0.0000080 0.0000185 -0.0000633 -0.0000042 -0.0000229 -0.0000077 -0.0000759 -0.0000269 -0.0000176 -0.0000554 0.0000547 0.0000088 -0.0000104 0.0000192 -0.0001046 0.0000628 0.0001249 0.0001020 -0.0001772 0.0000581 -0.0001710 0.0000607 -0.0000239 -0.0002626 0.0001693 0.0000400 -0.0001138 0.0000322 -0.0000811 -0.0000262 -0.0000551 0.0000389 0.0000734 0.0001280 -0.0001161 0.0000047 -0.0000373 -0.0000125 -0.0000814 0.0000018 -0.0000113 0.0000137 0.0000080 0.0000244 -0.0000307 -0.0000036 -0.0000537 -0.0000262 -0.0000142 -0.0000132 -0.0000499 -0.0000734 0.0001532 -0.0007950 0.0007370 0.0000208 0.0000881 -0.0001303 0.0001226 -0.0000413 0.0002984 0.0000287 -0.0001479 0.0001505 -0.0002337 0.0011138 -0.0004336 -0.0000942 0.0000330 0.0000283 -0.0000602 -0.0008315 0.0005161 0.0004111 -0.0005111 0.0000061 -0.0001514 -0.0036545 0.0058486 -0.0001744 0.0006900 0.0002391 -0.0003976 0.0068026 -0.0076960 0.0000794 -0.0001059 0.0043086 -0.0019345 -0.0000400 -0.0000490 0.0001717 -0.0000646 0.0000203 0.0000884 -0.0001944 0.0001284 -0.0000060 -0.0000336 -0.0003239 0.0003137 0.0000315 -0.0001396 0.0000856 -0.0001642 -0.0001144 -0.0000848 -0.0006968 0.0002075 0.0006978 -0.0004365 -0.0001272 0.0000554 -0.0003847 0.0009575 -0.0003746 0.0002161 -0.0031513 -0.0019328 0.0000484 -0.0002651 -0.0012030 0.0015358 -0.0002960 0.0007096 0.0000857 -0.0001373 -0.0000257 -0.0000724 -0.0000716 0.0000326 0.0000651 -0.0002392 -0.0021718 0.0014688 0.0017241 -0.0010711 -0.0031181 0.0031767 0.0004373 -0.0015274 0.0000657 -0.0002185 -0.0002101 0.0000564 -0.0001526 -0.0001845 -0.0008139 0.0004896 0.0000352 -0.0002180 0.0001340 -0.0003308 -0.0013851 0.0022915 -0.0003019 -0.0003388 0.0010449 -0.0015554 0.0000816 0.0003153 0.0005505 -0.0006850 -0.0000119 -0.0001182 -0.0004415 0.0008288 -0.0002142 -0.0001193 -0.0041957 0.0076088 -0.0001567 0.0000649 0.0000754 -0.0002557 -0.0002651 -0.0000649 0.0132315 -0.0222826 -0.0000396 0.0007939 -0.0000584 -0.0000354 0.0007707 -0.0007698 -0.0009518 0.0039489 -0.0033533 0.0023607 -0.0007398 0.0007474 -0.0000717 0.0000318 -0.0000063 -0.0000878 -0.0001485 0.0002874 -0.0000808 0.0000379 0.0006639 -0.0005527
0.0000195 -0.0000980 0.0000062 -0.0000496 0.0000178 -0.0001082 0.0000166 -0.0000920 0.0000136 0.0001285 0.0000748 -0.0001286 0.0000276 -0.0000802 0.0000101 0.0000045 0.0000105 -0.0000994 -0.0000135 -0.0000164 0.0000290 -0.0001041 -0.0000194 -0.0000257 -0.0000839 0.0000267 0.0000063 0.0000264 0.0000161 -0.0000753 0.0000768 0.0002045 0.0001391 -0.0001524 0.0000731 -0.0001660 0.0000807 0.0000209 0.0003520 -0.0002688 0.0000377 -0.0000982 0.0000825 -0.0000872 0.0001000 -0.0001158 0.0000511 0.0001283 -0.0000078 0.0000118 0.0000011 0.0000207 -0.0000162 -0.0000363 -0.0000167 0.0000376 0.0000109 0.0000541 0.0000023 0.0000496 -0.0000083 0.0000086 0.0000738 -0.0000787 -0.0000644 -0.0000370 0.0000288 0.0001066 -0.0008254 0.0007454 0.0000425 0.0001354 -0.0000256 0.0001528 -0.0004198 0.0006588 -0.0000186 -0.0000692 0.0000890 -0.0001350 0.0017127 -0.0015975 -0.0001089 0.0001603 0.0000311 -0.0000224 -0.0012895 0.0011563 -0.0004053 0.0003890 -0.0000039 -0.0001024 -0.0003438 -0.0004699 0.0005263 -0.0000358 -0.0005465 0.0000802 -0.0008317 -0.0000936 -0.0000413 0.0001395 0.0073957 -0.0151144 -0.0000341 0.0000446 0.0001944 -0.0000850 0.0000091 0.0001029 0.0000807 -0.0001493 0.0000012 0.0000192 -0.0002157 0.0002781 0.0000387 -0.0000747 0.0000721 -0.0001425 -0.0000706 -0.0002789 0.0001984 -0.0004763 0.0001863 0.0003557 -0.0000905 0.0000912 -0.0012727 0.0019016 -0.0002186 0.0002605 -0.0108827 0.0045676 -0.0001015 -0.0000963 -0.0017525 0.0036822 -0.0016289 0.0014578 0.0000785 -0.0000226 -0.0000547 -0.0000079 -0.0003386 0.0003375 -0.0000389 -0.0000592 0.0023155 -0.0019204 0.0016545 -0.0015193 -0.0006288 0.0009230 0.0014977 -0.0024481 0.0000745 -0.0002334 0.0004832 -0.0005263 0.0003542 -0.0003807 -0.0020226 0.0017849 -0.0000052 -0.0000248 -0.0002300 0.0002458 0.0000311 0.0016717 -0.0003686 0.0004457 0.0005071 -0.0004319 -0.0008393 0.0008478 -0.0003647 0.0000083 0.0000035 -0.0000335 0.0000755 0.0003852 -0.0003071 0.0003954 -0.0210995 0.0222083 -0.0001459 -0.0002682 0.0001517 -0.0002878 0.0000466 -0.0002310 -0.0010869 0.0052943 -0.0003493 0.0009959 -0.0000395 0.0000538 0.0004385 -0.0016917 0.0031880 -0.0076687 -0.0043784 0.0024120 -0.0004406 0.0003622 -0.0000701 -0.0000125 0.0000476 -0.0001069 0.0001142 -0.0001380 -0.0000825 -0.0000020 -0.0001412 -0.0007039
0.0000294 -0.0000946 -0.0000062 -0.0000543 0.0000247 -0.0001215 0.0000067 -0.0000959 0.0000175 0.0001519 0.0000882 -0.0001568 0.0000314 -0.0001011 0.0000185 0.0000048 0.0000163 -0.0001068 -0.0000089 -0.0000596 0.0000445 -0.0001482 -0.0000311 -0.0000216 -0.0000852 -0.0000802 0.0000160 -0.0000093 0.0000536 -0.0001565 0.0000961 0.0001956 0.0001570 -0.0002276 0.0000756 -0.0002330 0.0001048 -0.0000180 0.0006117 -0.0007159 0.0000413 -0.0001532 0.0000033 -0.0000602 0.0002097 -0.0002886 0.0000621 0.0001317 -0.0000543 0.0000016 0.0000130 -0.0000251 0.0000007 -0.0000590 0.0000253 -0.0000340 0.0000052 0.0000445 -0.0000135 -0.0000371 0.0000072 -0.0000216 0.0000304 -0.0001076 -0.0000841 -0.0001317 -0.0000083 -0.0000467 -0.0004951 0.0001521 0.0000314 0.0001255 0.0000094 0.0000701 -0.0009153 0.0011261 0.0000933 -0.0002739 0.0000706 -0.0002147 0.0018244 -0.0021471 -0.0000665 -0.0000261 0.0000420 -0.0000335 -0.0006649 0.0008441 -0.0000234 0.0001015 -0.0000320 -0.0001274 0.0051563 -0.0061850 0.0007047 -0.0000532 -0.0008842 0.0002517 -0.0072127 0.0048706 0.0000372 0.0001444 0.0090380 -0.0305736 -0.0000425 0.0000641 -0.0000231 -0.0000026 0.0000252 0.0000656 0.0000765 -0.0000626 0.0000183 0.0000280 -0.0001239 0.0000353 0.0000339 -0.0000455 -0.0000520 -0.0000103 0.0001739 -0.0004914 0.0004256 -0.0008011 -0.0000501 0.0007526 -0.0000060 0.0000164 0.0018140 -0.0010945 -0.0002131 0.0002305 0.0002532 -0.0021971 0.0000750 -0.0001411 0.0000174 0.0017468 -0.0020497 0.0018710 0.0000338 0.0000349 -0.0000706 0.0000267 -0.0002824 0.0003971 0.0000698 -0.0000119 0.0034762 -0.0023933 0.0003115 -0.0003539 0.0038740 -0.0028425 0.0002384 -0.0012449 0.0000405 -0.0001641 0.0003041 -0.0003584 0.0001337 -0.0001718 -0.0007381 0.0010185 -0.0000411 0.0000518 -0.0001996 0.0002622 -0.0008534 -0.0006466 0.0006288 -0.0002995 -0.0007862 0.0003701 -0.0022902 0.0010065 -0.0006388 0.0002872 0.0000635 0.0000353 -0.0002205 0.0003789 -0.0001746 0.0005212 -0.0144850 0.0169728 0.0002071 -0.0004842 0.0000034 -0.0000985 -0.0000622 0.0002613 -0.0143645 0.0247964 -0.0003382 0.0005287 -0.0000918 0.0001709 -0.0005106 -0.0006185 0.0055157 -0.0132289 -0.0047245 0.0015599 0.0003982 -0.0003116 -0.0001011 0.0001082 0.0000084 -0.0000543 0.0001275 -0.0002084 -0.0001222 0.0001481 -0.0002342 -0.0007658
0.0000301 -0.0000312 -0.0000040 -0.0000286 0.0000252 -0.0000751 -0.0000005 -0.0000319 0.0000203 0.0002444 0.0000745 -0.0000697 0.0000192 -0.0000290 0.0000137 0.0000805 -0.0000020 -0.0000967 0.0000057 -0.0000483 0.0000162 -0.0000785 -0.0000286 0.0000187 -0.0000500 -0.0001385 0.0000202 0.0001339 0.0000444 -0.0000281 0.0000932 0.0003249 0.0001546 -0.0000917 0.0000750 -0.0001704 0.0001111 0.0000498 0.0003086 -0.0004014 0.0000283 -0.0001013 -0.0001307 0.0000976 0.0001122 -0.0001646 0.0000572 0.0001780 0.0000503 -0.0000510 0.0000140 0.0000014 0.0000028 -0.0000160 0.0000454 -0.0000046 0.0000184 0.0001040 -0.0000193 -0.0000015 0.0000075 0.0000415 -0.0000288 -0.0000115 0.0000062 -0.0001830 -0.0000046 -0.0000422 -0.0006951 0.0004404 0.0000287 0.0001741 -0.0000710 0.0001375 -0.0014710 0.0015697 0.0001477 -0.0003239 0.0002290 -0.0003044 -0.0010458 0.0003075 -0.0000841 0.0000180 0.0000603 -0.0000376 0.0016945 -0.0011443 0.0002819 -0.0000945 -0.0000714 -0.0000190 0.0068349 -0.0056490 0.0010850 -0.0003291 -0.0002945 -0.0001161 -0.0065229 0.0062024 -0.0000255 0.0001367 0.0018021 -0.0021601 -0.0002105 0.0002245 -0.0000141 0.0001057 0.0000360 0.0000398 -0.0001535 0.0000683 0.0000192 0.0000087 -0.0001363 -0.0001284 0.0000211 -0.0000798 -0.0000888 0.0000346 0.0000916 -0.0004219 0.0001622 -0.0009081 0.0012605 -0.0007815 -0.0000201 0.0000017 0.0015034 -0.0009962 0.0002086 -0.0001699 0.0072790 -0.0073566 0.0002857 -0.0004213 0.0022483 -0.0018024 -0.0020463 0.0021927 -0.0000174 -0.0001182 -0.0000872 -0.0000095 0.0000071 0.0002638 0.0001856 -0.0001742 0.0002648 0.0005401 -0.0002322 0.0000444 0.0009560 0.0009214 0.0000189 0.0002137 0.0000262 -0.0002402 0.0012251 -0.0009700 0.0003097 -0.0004742 0.0005651 -0.0008284 -0.0000744 -0.0000554 0.0000216 0.0000022 -0.0042728 0.0001900 0.0003798 -0.0003967 -0.0006331 0.0002712 0.0019862 -0.0008720 -0.0007705 0.0002713 0.0000274 -0.0000451 -0.0003875 0.0004915 -0.0002316 0.0001397 -0.0072254 0.0113638 0.0004155 -0.0005082 -0.0001309 0.0000421 -0.0007600 0.0009149 -0.0116280 0.0212610 0.0013015 -0.0012101 -0.0000902 0.0000501 -0.0027674 0.0021444 -0.0098803 -0.0004703 -0.0051627 0.0033658 0.0004440 -0.0005280 -0.0001190 0.0000666 -0.0000357 -0.0000760 -0.0002323 -0.0000116 -0.0001316 0.0001341 -0.0005750 0.0003458
0.0000176 -0.0000575 -0.0000050 -0.0000442 0.0000120 -0.0000956 0.0000014 -0.0000319 0.0000126 0.0002496 0.0000949 -0.0000953 0.0000264 -0.0000667 0.0000187 0.0000566 0.0000074 -0.0001031 0.0000228 -0.0000721 0.0000068 -0.0001048 -0.0000202 -0.0000074 0.0000142 -0.0001877 0.0000234 0.0001367 0.0000333 -0.0000163 0.0000888 0.0003077 0.0001532 -0.0000918 0.0000791 -0.0001839 0.0001064 0.0000433 -0.0000556 0.0002344 0.0000350 -0.0000884 0.0000044 -0.0000078 0.0000685 -0.0001329 0.0000495 0.0001723 -0.0000017 0.0000497 0.0000193 -0.0000065 -0.0000014 -0.0000085 0.0000200 0.0000309 0.0000238 0.0001465 -0.0000226 0.0000128 0.0000143 0.0000778 -0.0000168 -0.0000138 0.0000332 -0.0001484 0.0000684 0.0000103 -0.0002054 0.0001927 0.0000361 0.0002390 -0.0001291 0.0002531 -0.0013059 0.0012961 0.0000664 -0.0002373 0.0001842 -0.0001529 -0.0040080 0.0031621 -0.0000638 0.0000979 0.0000215 0.0000129 0.0021151 -0.0013671 -0.0000653 0.0002335 -0.0001533 0.0001099 0.0065181 -0.0052681 0.0009557 -0.0001663 0.0004625 -0.0008714 -0.0002472 0.0007237 -0.0001441 0.0002582 0.0002971 0.0070931 -0.0002107 0.0003529 -0.0000078 0.0000268 0.0000333 0.0000369 -0.0000358 -0.0000417 0.0000143 0.0000451 -0.0002447 0.0001776 0.0000210 -0.0000439 0.0000316 -0.0000881 -0.0001469 -0.0003099 0.0002814 -0.0008946 0.0006114 -0.0002443 -0.0000787 0.0001165 -0.0000473 0.0011063 0.0004121 -0.0002083 0.0003240 -0.0015960 0.0000904 -0.0001831 0.0032767 -0.0029477 -0.0023998 0.0026387 -0.0000571 -0.0000131 -0.0000742 0.0000899 0.0002433 -0.0003009 -0.0000185 0.0000871 -0.0014985 0.0012532 0.0003454 -0.0000865 0.0024718 -0.0009217 -0.0013911 0.0012770 -0.0000220 -0.0001491 0.0014364 -0.0010781 0.0003581 -0.0003578 0.0003174 -0.0004608 -0.0000916 0.0000536 0.0000811 0.0001498 0.0008024 -0.0028329 0.0000075 0.0001276 0.0005149 -0.0003762 0.0009953 -0.0001165 -0.0002778 -0.0001041 -0.0000346 -0.0000630 0.0002201 0.0001649 -0.0006980 0.0005809 -0.0006633 0.0075548 0.0006252 -0.0006069 0.0001275 -0.0000980 -0.0009376 0.0005737 -0.0014466 0.0011031 0.0023268 -0.0022965 -0.0000361 -0.0000468 -0.0021656 0.0016622 0.0006228 -0.0006700 -0.0015209 0.0018916 -0.0001715 -0.0000840 -0.0000390 -0.0001079 -0.0000061 -0.0001631 -0.0001510 -0.0002339 -0.0001051 -0.0000231 -0.0005701 0.0004910
0.0000137 -0.0001053 -0.0000240 -0.0000602 0.0000016 -0.0001362 -0.0000077 -0.0000562 0.0000071 0.0002077 0.0000767 -0.0001728 0.0000304 -0.0001467 0.0000223 -0.0000015 0.0000227 -0.0001255 0.0000288 -0.0001383 0.0000340 -0.0002282 -0.0000016 -0.0000733 -0.0000479 -0.0001796 0.0000271 0.0000016 0.0000433 -0.0001364 0.0000759 0.0000458 0.0001589 -0.0002648 0.0000856 -0.0003149 0.0001031 -0.0000960 0.0000953 -0.0000125 0.0000635 -0.0002053 0.0000002 -0.0000818 0.0000692 -0.0002670 0.0000351 0.0000282 -0.0000961 0.0000709 0.0000192 -0.0000987 0.0000058 -0.0000765 0.0000259 -0.0000439 0.0000211 0.0001196 -0.0000250 -0.0001249 0.0000233 0.0000313 0.0000697 -0.0001931 -0.0000549 -0.0001104 0.0000409 -0.0001231 0.0004020 -0.0005532 0.0000372 0.0002517 -0.0001317 0.0002001 -0.0028343 0.0027690 0.0000472 -0.0002490 0.0001489 -0.0002548 -0.0027692 0.0024713 0.0000186 -0.0002088 0.0000188 -0.0000303 0.0000751 0.0005577 -0.0003076 0.0002630 -0.0001488 -0.0000407 0.0051011 -0.0032928 0.0003843 -0.0001444 -0.0000062 -0.0006335 -0.0029940 -0.0013474 -0.0001618 0.0003312 -0.0076710 0.0092356 -0.0002046 0.0002912 0.0000582 -0.0001514 0.0000267 -0.0000050 -0.0000294 0.0000408 0.0000247 0.0000469 -0.0003477 0.0000308 0.0000367 -0.0000882 0.0000236 -0.0001317 -0.0001886 -0.0002666 0.0001937 -0.0005928 -0.0007624 0.0005875 -0.0000537 0.0000626 0.0003376 0.0008071 -0.0003536 0.0001991 -0.0017828 0.0024440 -0.0000922 -0.0000505 0.0030650 -0.0038787 -0.0004408 0.0004497 0.0000277 -0.0000728 -0.0000200 0.0000373 -0.0000779 -0.0003750 -0.0001971 0.0002619 -0.0020559 0.0010019 0.0011198 -0.0002032 0.0042950 -0.0044832 -0.0018529 0.0015231 -0.0000287 -0.0001411 0.0012349 -0.0015642 -0.0000993 0.0000379 -0.0001891 0.0003709 -0.0000435 0.0000025 0.0001237 -0.0000246 0.0023156 -0.0026500 0.0004373 -0.0005160 0.0006729 -0.0009230 -0.0029244 0.0009422 -0.0002052 0.0000242 -0.0000667 -0.0000636 0.0001679 0.0001777 -0.0007147 0.0006838 0.0061974 -0.0026561 0.0004526 -0.0004965 0.0002741 -0.0001606 0.0001237 -0.0004119 -0.0076433 0.0100272 0.0016275 -0.0022046 -0.0000244 -0.0000994 0.0016590 -0.0012391 0.0070388 -0.0015248 -0.0002502 0.0013410 -0.0005411 0.0002491 -0.0000507 -0.0000541 -0.0000526 -0.0001230 0.0000407 -0.0003604 -0.0000876 -0.0000430 -0.0008198 0.0001825
0.0000145 -0.0000861 -0.0000292 -0.0000452 -0.0000002 -0.0001210 -0.0000080 -0.0000400 0.0000066 0.0002482 0.0000693 -0.0001233 0.0000266 -0.0001237 0.0000188 0.0000224 -0.0000044 -0.0001337 0.0000301 -0.0001341 0.0000365 -0.0001905 0.0000141 -0.0000828 -0.0000864 -0.0001889 0.0000275 0.0000582 0.0000249 -0.0000787 0.0000613 -0.0000274 0.0001613 -0.0002224 0.0000926 -0.0003043 0.0000994 -0.0000854 -0.0001958 0.0001606 0.0000546 -0.0002147 -0.0000104 -0.0000754 0.0000934 -0.0002795 0.0000202 -0.0000208 -0.0000634 0.0000527 -0.0000025 -0.0000472 0.0000014 -0.0000471 0.0000276 -0.0000222 0.0000196 0.0001696 -0.0000121 -0.0001293 0.0000138 0.0000664 0.0000651 -0.0001385 -0.0000750 -0.0001671 0.0002080 -0.0002639 -0.0002253 -0.0000315 0.0000334 0.0002840 -0.0000030 0.0000961 -0.0014067 0.0017727 0.0000884 -0.0003372 0.0000914 -0.0001869 -0.0029479 0.0013668 -0.0002159 -0.0000572 0.0000499 -0.0000674 0.0002552 -0.0001541 -0.0005321 0.0004907 -0.0001733 -0.0000993 0.0028585 -0.0043215 -0.0000427 -0.0004824 -0.0002081 0.0001622 -0.0103653 0.0040106 -0.0000992 0.0002756 -0.0072109 0.0099161 -0.0001260 0.0001608 -0.0001506 0.0000907 0.0000226 -0.0000299 0.0000468 0.0000996 0.0000272 0.0000298 -0.0001267 -0.0001947 0.0000646 -0.0001817 -0.0000343 -0.0000894 -0.0000530 -0.0004612 0.0001064 -0.0004240 -0.0014913 0.0011065 0.0000745 -0.0001013 -0.0005850 0.0006592 0.0000025 0.0000703 0.0015504 0.0002341 -0.0000438 -0.0001636 0.0014706 -0.0009024 0.0000945 0.0001027 0.0001031 -0.0003552 -0.0000756 -0.0001337 0.0001345 -0.0006921 -0.0000497 -0.0001478 0.0001097 -0.0006479 0.0011063 -0.0004020 -0.0001350 -0.0001926 -0.0009836 0.0011090 -0.0000685 -0.0002505 0.0008744 -0.0015907 0.0003419 -0.0006757 0.0002601 -0.0004552 -0.0000569 -0.0001661 0.0002126 -0.0004771 0.0005086 -0.0007141 0.0002784 -0.0009326 -0.0003944 0.0000794 0.0030203 -0.0029442 -0.0006048 0.0006124 -0.0001284 -0.0001209 -0.0004008 0.0002289 -0.0005861 0.0003029 0.0014904 -0.0057253 -0.0000080 -0.0003514 0.0000574 -0.0000346 0.0004224 -0.0006871 -0.0121817 0.0181595 0.0005314 -0.0007881 0.0000178 -0.0002464 0.0012443 -0.0011698 0.0032881 -0.0039876 0.0000240 0.0009683 -0.0003536 -0.0000999 -0.0000578 -0.0000876 -0.0001058 -0.0000936 0.0001388 -0.0006177 -0.0000664 -0.0001201 -0.0008196 -0.0000332
0.0000361 -0.0001361 -0.0000200 -0.0000856 0.0000075 -0.0001587 -0.0000081 -0.0000528 0.0000062 0.0002463 0.0000876 -0.0001197 0.0000332 -0.0001450 0.0000194 0.0000028 -0.0000048 -0.0001544 0.0000337 -0.0001419 0.0000363 -0.0001918 0.0000340 -0.0001185 -0.0000333 -0.0002355 0.0000291 0.0000476 0.0000231 -0.0001092 0.0000576 -0.0000458 0.0001673 -0.0002123 0.0001120 -0.0003333 0.0001092 -0.0000895 -0.0000660 0.0000962 0.0000652 -0.0002230 0.0000359 -0.0001175 0.0001547 -0.0003247 0.0000206 -0.0000049 -0.0000418 0.0000606 -0.0000115 -0.0000036 -0.0000057 -0.0000151 0.0000453 0.0000050 0.0000268 0.0002170 0.0000248 -0.0001260 0.0000148 0.0000935 0.0001087 -0.0001840 0.0000599 -0.0003607 0.0002181 -0.0002583 -0.0003428 -0.0000193 0.0000422 0.0003246 0.0000550 0.0001393 0.0001323 0.0001587 0.0000348 -0.0003129 0.0000500 -0.0000543 -0.0029453 0.0002903 -0.0001623 -0.0000647 0.0000421 -0.0000498 0.0009058 -0.0010374 0.0000437 -0.0000742 -0.0001832 -0.0000434 0.0026444 -0.0079806 -0.0006699 0.0000855 0.0003659 -0.0003103 -0.0023423 0.0006844 -0.0001896 0.0002652 0.0000197 0.0049984 0.0000017 0.0001400 -0.0000558 -0.0000167 0.0000169 -0.0000098 0.0000751 0.0001533 0.0000304 0.0000785 -0.0000404 -0.0001017 0.0000631 -0.0001210 0.0000166 -0.0001127 -0.0000343 -0.0005370 -0.0002719 0.0003535 -0.0019346 0.0013821 0.0000302 0.0000461 0.0001368 0.0005629 0.0005977 -0.0003133 -0.0019550 -0.0025332 0.0000886 -0.0002119 -0.0029903 0.0015632 -0.0003990 0.0012884 0.0000711 -0.0002857 -0.0000174 -0.0001754 0.0006979 -0.0009602 0.0001609 -0.0002777 -0.0001115 -0.0004174 0.0019610 -0.0016885 0.0003730 -0.0010173 -0.0021288 0.0009703 -0.0000185 -0.0002197 0.0000162 -0.0003187 0.0007611 -0.0009364 -0.0000286 -0.0001201 -0.0001299 0.0000609 0.0000222 -0.0000913 0.0004766 0.0000661 -0.0002395 0.0000165 -0.0005577 0.0000520 0.0027406 -0.0012835 -0.0000508 0.0003705 -0.0000870 -0.0001334 -0.0000361 -0.0000468 -0.0005118 0.0001032 0.0017480 -0.0154800 0.0002932 -0.0005003 0.0000278 0.0000151 -0.0000307 -0.0005174 -0.0064432 0.0143348 -0.0006711 0.0006011 -0.0000072 -0.0001485 -0.0001956 0.0005414 -0.0006383 -0.0094744 0.0026656 -0.0015886 -0.0000215 -0.0004348 -0.0000145 -0.0000970 -0.0000451 -0.0001030 0.0003922 -0.0006330 -0.0000241 -0.0001077 0.0000959 -0.0004513
0.0000567 -0.0001401 -0.0000216 -0.0000963 0.0000262 -0.0001766 -0.0000008 -0.0000686 0.0000117 0.0002639 0.0000702 -0.0001178 0.0000373 -0.0001649 0.0000283 0.0000137 0.0000069 -0.0001940 0.0000422 -0.0001808 0.0000072 -0.0002142 0.0000522 -0.0001522 -0.0000176 -0.0003459 0.0000363 0.0000050 0.0000359 -0.0001610 0.0000591 -0.0000590 0.0001696 -0.0002659 0.0001150 -0.0003902 0.0001229 -0.0001287 0.0007745 -0.0004838 0.0000598 -0.0002639 -0.0001060 -0.0000048 0.0001345 -0.0003322 0.0000298 -0.0000137 -0.0000853 0.0001234 -0.0000011 -0.0000509 0.0000078 -0.0000394 0.0000471 -0.0000524 0.0000281 0.0002091 0.0000487 -0.0002327 0.0000149 0.0000430 0.0000565 -0.0002540 0.0000791 -0.0004316 0.0001269 -0.0003696 -0.0001397 -0.0002004 0.0000501 0.0002925 -0.0001095 0.0002598 0.0003060 -0.0006333 -0.0000512 -0.0002766 0.0001754 -0.0002637 -0.0001157 -0.0003984 -0.0002029 -0.0001028 0.0000248 -0.0000763 0.0005559 -0.0010373 0.0006280 -0.0009486 -0.0001277 -0.0001452 -0.0063808 0.0035820 -0.0008156 -0.0000090 0.0011528 -0.0015064 0.0016198 -0.0014001 -0.0000579 0.0001319 0.0003401 0.0012982 -0.0000828 0.0000793 0.0000180 0.0000642 0.0000176 -0.0000332 -0.0000038 0.0000879 0.0000341 0.0000912 -0.0000688 -0.0001386 0.0000445 -0.0001034 0.0000685 -0.0002087 0.0000070 -0.0006003 -0.0005321 0.0004018 0.0004415 -0.0010181 0.0000069 0.0001198 0.0022729 -0.0019559 0.0011871 -0.0009575 -0.0042917 0.0001845 0.0000590 -0.0002712 -0.0041435 0.0019665 0.0002838 0.0000505 0.0000666 -0.0002115 0.0000200 -0.0001589 0.0007268 -0.0007490 0.0000437 -0.0000103 0.0002358 -0.0008080 0.0016137 -0.0014264 0.0003549 -0.0012522 -0.0018645 0.0000956 0.0000889 -0.0002319 0.0001055 -0.0002833 0.0003293 -0.0002844 -0.0002696 0.0003774 -0.0000719 0.0000190 0.0000105 0.0000678 0.0015899 -0.0015121 -0.0000714 0.0000804 0.0008579 -0.0010578 0.0024648 -0.0012028 0.0004137 -0.0002981 0.0000301 -0.0002028 0.0005273 -0.0004190 -0.0003175 0.0002594 -0.0012682 -0.0095018 0.0006590 -0.0007604 0.0002391 -0.0001077 -0.0001986 -0.0000069 -0.0019133 0.0088779 -0.0007645 0.0010138 -0.0000285 -0.0000357 0.0000647 0.0007428 0.0057622 -0.0195796 0.0019802 -0.0012799 -0.0005228 0.0003165 -0.0000193 0.0000239 -0.0000042 -0.0000839 0.0003588 -0.0002711 -0.0000098 0.0000492 0.0001811 0.0001434
0.0000406 -0.0000730 -0.0000155 -0.0000732 0.0000310 -0.0001296 -0.0000017 -0.0000147 0.0000117 0.0003505 0.0000778 -0.0000163 0.0000378 -0.0001122 0.0000272 0.0000890 0.0000022 -0.0002174 0.0000524 -0.0001621 0.0000100 -0.0001791 0.0000496 -0.0001163 -0.0000259 -0.0004277 0.0000427 0.0001208 0.0000347 -0.0000702 0.0000645 0.0000869 0.0001475 -0.0001119 0.0001057 -0.0003058 0.0001290 -0.0000415 0.0006176 -0.0003348 0.0000509 -0.0001959 -0.0000774 0.0000244 -0.0000220 -0.0001732 0.0000349 0.0000558 0.0000616 0.0001035 0.0000081 0.0000046 0.0000087 0.0000192 -0.0000184 0.0000416 0.0000302 0.0002894 0.0000528 -0.0001641 -0.0000043 0.0000994 -0.0000097 -0.0000946 -0.0000640 -0.0002580 0.0001555 -0.0002296 0.0000730 -0.0001731 0.0000750 0.0002920 -0.0002794 0.0004271 0.0007455 -0.0009055 0.0000417 -0.0002513 0.0001327 -0.0001944 0.0030386 -0.0016993 0.0000006 -0.0003105 0.0000394 -0.0000161 -0.0001738 -0.0001143 0.0001253 -0.0003131 -0.0001771 -0.0000059 -0.0101053 0.0099323 -0.0003430 -0.0003952 -0.0000646 -0.0001517 0.0045126 -0.0038409 -0.0001615 0.0003904 0.0028840 0.0052662 -0.0001263 0.0001258 -0.0001277 0.0002860 0.0000188 -0.0000234 -0.0000115 0.0000211 0.0000402 0.0001057 -0.0000965 -0.0000300 0.0000402 -0.0000986 0.0002103 -0.0003444 -0.0000209 -0.0007057 0.0001359 -0.0003680 0.0007221 -0.0005994 -0.0000240 0.0001686 0.0013575 -0.0022449 0.0005257 -0.0003739 -0.0032349 0.0029996 -0.0000975 -0.0002405 -0.0032944 0.0028701 0.0014773 -0.0016674 0.0000486 -0.0002373 -0.0000803 -0.0000568 0.0005079 -0.0007859 0.0000057 -0.0000512 -0.0002565 0.0005786 0.0004597 -0.0000554 0.0011442 -0.0005791 -0.0005968 -0.0013141 0.0000621 -0.0001940 0.0005108 -0.0007405 0.0001302 -0.0000052 0.0004518 -0.0006192 0.0000145 -0.0001998 -0.0000509 -0.0000433 0.0009965 -0.0026632 0.0002471 -0.0003843 -0.0001185 0.0001929 -0.0007237 0.0014171 -0.0001176 -0.0000348 -0.0000032 -0.0002443 -0.0001136 -0.0000981 -0.0001057 0.0001794 -0.0022421 -0.0053697 0.0005415 -0.0004593 0.0002348 -0.0001049 0.0006298 -0.0005588 -0.0070165 0.0064027 0.0000397 0.0003456 -0.0000291 -0.0000541 -0.0024907 0.0017200 -0.0104407 -0.0016229 -0.0006895 0.0004304 -0.0006458 0.0006012 -0.0000053 -0.0000085 -0.0000193 -0.0001065 0.0000334 -0.0000017 0.0000054 0.0000153 -0.0000360 0.0005124
0.0000494 -0.0001236 -0.0000033 -0.0001009 0.0000369 -0.0001595 -0.0000032 0.0000017 0.0000093 0.0003647 0.0000785 -0.0000176 0.0000395 -0.0001364 0.0000228 0.0000996 0.0000081 -0.0002046 0.0000738 -0.0001869 0.0000447 -0.0001801 0.0000695 -0.0001403 -0.0000393 -0.0004360 0.0000433 0.0001539 0.0000332 -0.0000698 0.0000580 0.0001335 0.0001260 -0.0000418 0.0001014 -0.0002682 0.0001227 -0.0000115 0.0002647 -0.0001400 0.0000755 -0.0001978 0.0000774 -0.0000828 -0.0000131 -0.0001955 0.0000362 0.0000858 0.0002278 -0.0000239 -0.0000061 0.0000676 0.0000003 0.0000596 -0.0000136 0.0000743 0.0000301 0.0003222 0.0000450 -0.0001187 -0.0000008 0.0001270 0.0000960 -0.0001100 -0.0000167 -0.0003289 0.0001129 -0.0001489 -0.0003330 -0.0000776 0.0000710 0.0003246 -0.0001987 0.0003970 -0.0000435 0.0003180 0.0001937 -0.0003072 -0.0000211 -0.0000416 0.0017902 -0.0010607 -0.0000489 -0.0003161 0.0000503 0.0000279 -0.0010534 0.0006920 -0.0000796 0.0000395 -0.0001863 0.0001133 -0.0045181 0.0070097 -0.0002829 0.0000505 -0.0016055 0.0012859 0.0074287 -0.0101550 -0.0001740 0.0003646 0.0049714 0.0041810 -0.0001831 0.0003134 0.0000004 0.0001550 0.0000156 0.0000223 0.0001702 -0.0000489 0.0000455 0.0001512 -0.0002593 0.0000382 0.0000373 -0.0000197 0.0001551 -0.0001658 -0.0000749 -0.0007263 -0.0000947 -0.0003494 -0.0001877 0.0006049 -0.0000435 0.0002762 0.0010677 -0.0022348 -0.0006641 0.0003906 -0.0004321 -0.0027691 -0.0000626 -0.0002123 -0.0065963 0.0039898 0.0014554 -0.0021240 -0.0000044 -0.0000683 -0.0001097 0.0001130 0.0001638 -0.0004820 -0.0000253 0.0000677 -0.0059271 0.0049207 0.0002990 0.0004594 0.0022392 -0.0017106 0.0009377 -0.0019204 0.0000384 -0.0000511 0.0003700 -0.0002292 0.0000972 0.0001119 0.0010225 -0.0009998 -0.0000245 0.0000340 -0.0001460 0.0000021 0.0041922 -0.0054808 -0.0001253 -0.0003245 -0.0013397 0.0010885 -0.0021613 0.0035056 -0.0000187 -0.0000428 0.0000433 -0.0001847 -0.0003969 0.0000858 -0.0001224 0.0001039 0.0004390 -0.0061709 0.0000091 0.0002573 -0.0000036 0.0002591 0.0008432 -0.0004645 -0.0074359 0.0080574 0.0000970 -0.0001813 -0.0000149 0.0000211 -0.0010689 0.0002753 -0.0034932 -0.0013183 -0.0035964 0.0022760 -0.0000853 0.0001351 -0.0000064 0.0000633 -0.0000100 -0.0000316 -0.0000829 0.0000129 0.0000081 0.0000472 0.0004357 0.0000788
0.0000612 -0.0001421 -0.0000095 -0.0000811 0.0000381 -0.0001578 0.0000004 -0.0000040 0.0000070 0.0003950 0.0000342 -0.0000194 0.0000370 -0.0001456 0.0000255 0.0001270 0.0000194 -0.0002272 0.0000903 -0.0002277 0.0000369 -0.0001912 0.0000617 -0.0001545 -0.0000999 -0.0004701 0.0000416 0.0001645 0.0000241 -0.0000546 0.0000443 0.0001417 0.0001121 -0.0000413 0.0000931 -0.0002753 0.0001123 -0.0000176 0.0004540 -0.0003100 0.0000808 -0.0002585 0.0000555 -0.0000986 0.0001136 -0.0003046 0.0000417 0.0000439 0.0002049 0.0000185 -0.0000083 0.0000072 0.0000144 0.0000131 0.0000462 -0.0000460 0.0000298 0.0002700 0.0000347 -0.0002222 -0.0000003 0.0000921 0.0000892 -0.0002092 0.0000257 -0.0004618 0.0000869 -0.0003148 -0.0002708 -0.0004332 0.0000451 0.0003086 0.0000301 0.0001094 -0.0004543 0.0004230 0.0001591 -0.0003772 -0.0000141 -0.0001456 -0.0010924 0.0010081 -0.0000911 -0.0002544 0.0000555 0.0000009 -0.0012153 0.0003477 0.0000319 -0.0002027 -0.0001019 -0.0000689 0.0002949 -0.0001832 -0.0003832 -0.0007392 -0.0003493 -0.0001796 0.0032557 -0.0039317 -0.0000671 0.0000601 0.0032799 -0.0003130 -0.0001986 0.0002752 -0.0001032 0.0002580 0.0000256 0.0000038 0.0000815 0.0001349 0.0000447 0.0001542 -0.0001072 -0.0001313 0.0000563 -0.0000582 0.0000775 -0.0001043 0.0000316 -0.0008816 -0.0001659 -0.0002953 0.0001049 -0.0007431 -0.0000261 0.0002808 0.0007357 -0.0016190 -0.0004156 0.0001938 0.0013468 -0.0051091 -0.0001023 -0.0002311 -0.0044846 0.0028496 0.0008570 -0.0019296 -0.0000438 -0.0000315 -0.0001957 0.0001662 0.0000849 -0.0003926 -0.0000888 0.0001538 -0.0046247 0.0020302 0.0010762 -0.0005647 0.0046107 -0.0057822 0.0022548 -0.0015431 -0.0000404 0.0000180 0.0004713 0.0000645 -0.0004226 0.0003552 0.0010581 -0.0009611 0.0000244 0.0000516 -0.0000375 0.0000749 0.0047462 -0.0038812 -0.0001832 -0.0007904 0.0000087 0.0000100 0.0003376 -0.0002319 -0.0001082 -0.0000864 0.0001061 -0.0002297 0.0001159 -0.0003313 -0.0003131 0.0001849 0.0035775 -0.0047264 -0.0001191 0.0003633 0.0000347 0.0003343 -0.0002331 0.0005904 0.0001039 0.0001688 0.0001750 -0.0001161 -0.0000235 0.0000646 -0.0008963 0.0007471 0.0038204 -0.0047559 -0.0019839 0.0013280 0.0007334 -0.0006896 0.0000058 0.0001320 -0.0000081 0.0000436 0.0000562 -0.0001004 -0.0000174 0.0001846 0.0001596 -0.0000454
0.0000423 -0.0001139 -0.0000233 -0.0000359 0.0000252 -0.0001199 0.0000010 0.0000081 0.0000065 0.0004502 0.0000154 0.0000533 0.0000371 -0.0000915 0.0000223 0.0001757 0.0000037 -0.0002108 0.0000876 -0.0002026 0.0000582 -0.0001779 0.0000503 -0.0001171 -0.0001435 -0.0004427 0.0000391 0.0002623 0.0000217 0.0000083 0.0000365 0.0002373 0.0000942 0.0000588 0.0000645 -0.0002068 0.0001016 0.0000499 0.0009381 -0.0007502 0.0000802 -0.0002251 -0.0000714 0.0000850 0.0001594 -0.0002610 0.0000404 0.0000724 0.0001333 0.0000888 0.0000122 0.0000021 0.0000105 0.0000366 0.0000415 -0.0000204 0.0000308 0.0003111 0.0000527 -0.0001908 -0.0000027 0.0001333 -0.0000281 -0.0000581 -0.0000969 -0.0003750 0.0001659 -0.0002493 0.0000297 -0.0003334 0.0000158 0.0003574 -0.0000712 0.0002250 -0.0002031 0.0004219 0.0000938 -0.0002331 -0.0000452 -0.0000443 0.0012046 -0.0010964 0.0000283 -0.0002472 0.0000407 0.0000801 -0.0021246 0.0013458 0.0001814 -0.0002017 -0.0000129 0.0000056 0.0006502 -0.0016936 -0.0001871 -0.0010165 0.0003264 -0.0004005 0.0008955 0.0024213 -0.0001299 0.0001174 0.0036288 -0.0025422 -0.0000676 0.0002235 -0.0000670 0.0001927 0.0000277 0.0000148 -0.0001298 0.0003749 0.0000444 0.0001613 0.0000435 -0.0002029 0.0000534 -0.0000863 0.0000874 -0.0002077 -0.0000453 -0.0009405 -0.0001943 -0.0000303 0.0002825 -0.0007149 -0.0000593 0.0003373 -0.0008706 0.0010057 0.0005690 -0.0005018 0.0010807 -0.0035691 0.0003078 -0.0006711 -0.0018135 0.0003473 0.0004268 -0.0005471 -0.0000146 -0.0001807 -0.0001845 0.0001272 0.0004686 -0.0009140 0.0000631 -0.0000535 -0.0006460 -0.0004409 0.0014387 -0.0015908 0.0027762 -0.0026657 0.0019078 -0.0018503 -0.0000509 -0.0000420 0.0006443 -0.0000300 -0.0006100 0.0003146 0.0001454 -0.0007147 -0.0000326 -0.0000229 -0.0001028 0.0001433 0.0008779 -0.0018937 0.0004220 -0.0011425 0.0009013 -0.0009821 -0.0000454 -0.0018017 -0.0007957 0.0001970 0.0000655 -0.0002898 0.0005352 -0.0003786 -0.0003304 0.0002459 0.0131235 -0.0283309 -0.0000240 0.0000565 0.0000613 0.0001637 0.0001883 -0.0003816 0.0008483 -0.0110284 0.0006220 -0.0008563 -0.0000251 -0.0000818 -0.0011918 0.0014700 -0.0005099 -0.0013094 0.0004022 -0.0002321 0.0009991 -0.0010312 -0.0000004 0.0001042 -0.0000194 -0.0000013 0.0001787 -0.0003198 -0.0000871 0.0001748 -0.0009016 0.0005651
0.0000529 -0.0002125 -0.0000112 -0.0000754 0.0000349 -0.0001837 0.0000112 -0.0000542 0.0000046 0.0004166 0.0000510 -0.0000135 0.0000407 -0.0001363 0.0000228 0.0001429 0.0000049 -0.0001682 0.0001031 -0.0002337 0.0000696 -0.0002064 0.0000656 -0.0001530 -0.0000490 -0.0004763 0.0000428 0.0002269 0.0000201 -0.0000374 0.0000344 0.0002170 0.0000750 0.0000436 0.0000667 -0.0002398 0.0001036 0.0000291 0.0003800 -0.0002383 0.0000862 -0.0002354 -0.0000665 0.0001157 0.0000933 -0.0002464 0.0000429 0.0000787 0.0000660 0.0001599 0.0000271 -0.0000192 0.0000031 0.0000422 0.0000154 -0.0000103 0.0000268 0.0003117 0.0000746 -0.0001802 -0.0000045 0.0001302 -0.0000127 -0.0000436 -0.0000798 -0.0003364 0.0000199 -0.0000556 0.0002526 -0.0004475 0.0000001 0.0003841 -0.0002399 0.0004340 -0.0004619 0.0007645 0.0000362 -0.0001805 -0.0001002 -0.0000453 0.0003948 -0.0016224 -0.0000334 -0.0003183 0.0000402 0.0001046 -0.0012660 0.0005818 0.0002997 -0.0004222 -0.0000600 0.0001013 0.0030608 -0.0031096 0.0008334 -0.0015627 -0.0005557 0.0003651 0.0017741 0.0028588 -0.0000835 0.0001309 -0.0097155 0.0120614 -0.0000214 0.0002022 0.0001035 0.0001693 0.0000136 0.0000482 -0.0000145 0.0002740 0.0000381 0.0001868 -0.0000022 -0.0002437 0.0000238 -0.0000279 0.0001538 -0.0002603 -0.0002577 -0.0007648 0.0001041 -0.0002001 0.0009154 -0.0008805 -0.0000176 0.0003204 -0.0005753 0.0022458 -0.0001410 0.0000816 -0.0008602 -0.0032022 0.0007626 -0.0009385 -0.0027066 0.0007156 0.0004113 0.0001731 0.0000018 -0.0001440 0.0000494 -0.0000177 0.0001606 -0.0004968 -0.0000257 0.0000269 0.0023578 -0.0027729 -0.0000482 -0.0000147 0.0034889 -0.0022485 0.0006582 -0.0015322 -0.0001082 0.0000581 0.0005789 -0.0001282 -0.0003994 0.0003624 -0.0001791 -0.0004573 -0.0001179 0.0000746 -0.0000066 -0.0000465 0.0000443 -0.0004517 0.0005506 -0.0007856 0.0008245 -0.0008945 -0.0004672 -0.0002653 -0.0000593 -0.0003403 0.0000745 -0.0001671 0.0003457 0.0002134 -0.0001412 0.0002334 0.0011518 -0.0027207 -0.0008587 0.0008453 0.0000629 0.0001525 0.0007277 -0.0011508 -0.0109176 -0.0042089 -0.0000947 -0.0004274 0.0000357 -0.0000622 0.0005412 -0.0000809 -0.0005687 -0.0000017 -0.0003138 0.0005704 0.0000489 -0.0003171 -0.0000151 0.0001655 0.0000846 -0.0000087 0.0001214 -0.0002053 -0.0000731 0.0001796 -0.0005596 0.0004950
0.0000726 -0.0002238 -0.0000023 -0.0000812 0.0000481 -0.0001715 0.0000074 -0.0000784 0.0000025 0.0004193 0.0000901 -0.0000848 0.0000475 -0.0001590 0.0000289 0.0001460 0.0000147 -0.0001883 0.0001218 -0.0002768 0.0000510 -0.0002015 0.0000640 -0.0001665 0.0000149 -0.0006017 0.0000467 0.0001759 0.0000159 -0.0000583 0.0000301 0.0001898 0.0000565 -0.0000040 0.0000938 -0.0003221 0.0001166 -0.0000235 0.0000873 -0.0003376 0.0001013 -0.0003006 0.0000993 -0.0000891 -0.0000135 -0.0002349 0.0000479 0.0000390 0.0000032 0.0002618 0.0000254 -0.0001263 0.0000166 -0.0000178 0.0000074 -0.0000992 0.0000205 0.0002314 0.0000685 -0.0002995 -0.0000127 0.0000793 0.0000974 -0.0002145 -0.0000000 -0.0004118 -0.0000189 -0.0002219 0.0000714 -0.0001555 0.0000123 0.0003164 -0.0002391 0.0003119 -0.0003360 0.0005094 0.0001023 -0.0003789 0.0000388 -0.0003070 -0.0031282 0.0011984 0.0000845 -0.0004859 0.0000624 0.0000108 0.0005549 -0.0014245 0.0003162 -0.0004490 -0.0001536 0.0000091 0.0076991 -0.0073754 -0.0005579 -0.0007239 -0.0001383 -0.0006611 0.0016670 0.0018685 -0.0001361 0.0001175 -0.0076276 0.0072936 -0.0000601 0.0000271 0.0001802 0.0000411 0.0000102 0.0000287 -0.0000051 0.0002799 0.0000369 0.0001683 -0.0001493 -0.0002017 0.0000537 -0.0001032 0.0002882 -0.0004157 -0.0001880 -0.0007155 0.0001506 -0.0003644 0.0009346 -0.0015097 -0.0000163 0.0002790 0.0005151 0.0007666 -0.0002371 0.0001473 0.0012226 -0.0023896 0.0005241 -0.0006898 -0.0010346 -0.0013654 0.0002994 0.0001445 0.0000273 -0.0001911 0.0000239 -0.0000178 -0.0000426 -0.0002757 -0.0001109 0.0000935 0.0014277 -0.0034764 0.0003758 -0.0005795 0.0042070 -0.0065092 -0.0002812 0.0001452 -0.0000300 -0.0000458 0.0009966 -0.0005150 -0.0000537 -0.0000669 0.0010214 -0.0009782 -0.0000359 -0.0000812 0.0000515 -0.0001194 0.0015803 0.0005025 0.0002725 -0.0004314 -0.0010590 0.0004014 -0.0027431 0.0014000 0.0002807 -0.0003371 0.0000075 -0.0001121 -0.0001957 0.0006619 0.0000095 -0.0001408 -0.0099086 0.0139356 -0.0009902 0.0009671 -0.0000909 0.0003064 0.0005740 -0.0006299 -0.0110156 0.0106640 -0.0000677 0.0002036 -0.0000248 0.0000382 0.0001633 0.0005050 0.0027280 0.0021265 0.0001837 0.0014244 -0.0007529 0.0005256 -0.0000332 0.0002090 0.0000979 0.0000577 -0.0000537 0.0001410 -0.0000469 0.0001745 -0.0002024 0.0001557
0.0000685 -0.0001866 0.0000137 -0.0000929 0.0000667 -0.0001725 0.0000077 -0.0000808 0.0000082 0.0004350 0.0000759 -0.0000275 0.0000713 -0.0001486 0.0000314 0.0001595 0.0000229 -0.0002178 0.0001224 -0.0002619 0.0000305 -0.0001694 0.0000758 -0.0001626 -0.0000540 -0.0005197 0.0000442 0.0002225 0.0000162 -0.0000386 0.0000224 0.0002496 0.0000507 0.0000361 0.0001124 -0.0003194 0.0001097 0.0000184 0.0006699 -0.0008970 0.0001194 -0.0003053 0.0000651 -0.0000257 0.0000069 -0.0001649 0.0000422 0.0000668 0.0000902 0.0001720 -0.0000051 -0.0000953 0.0000041 0.0000006 0.0000267 -0.0000862 0.0000102 0.0002517 0.0000459 -0.0002332 -0.0000060 0.0001056 0.0001508 -0.0002284 0.0000135 -0.0004613 0.0001679 -0.0003609 0.0000233 0.0000366 0.0000219 0.0003396 -0.0002571 0.0003589 0.0004816 0.0002374 0.0001741 -0.0003677 0.0000062 -0.0002162 -0.0026075 0.0017905 -0.0000091 -0.0003071 0.0000693 0.0000139 0.0011740 -0.0010675 0.0001332 -0.0000227 -0.0000920 -0.0000222 -0.0006333 0.0050173 -0.0011790 0.0001513 0.0007718 -0.0016291 -0.0010958 -0.0004139 -0.0000634 0.0000181 0.0021319 -0.0033926 -0.0001327 0.0001454 0.0000480 0.0001465 -0.0000007 0.0000636 -0.0000376 0.0003740 0.0000431 0.0002040 -0.0002984 0.0000249 0.0000819 -0.0000867 0.0002661 -0.0003428 -0.0002962 -0.0005051 0.0000533 -0.0004151 0.0006492 -0.0008176 0.0000176 0.0003365 0.0005564 -0.0004715 0.0003229 -0.0002987 0.0070584 -0.0062597 0.0003259 -0.0004498 0.0007941 -0.0033662 -0.0000622 0.0004051 0.0000176 -0.0001445 -0.0000539 0.0000993 0.0001540 -0.0003664 0.0000637 0.0000935 -0.0009764 -0.0012301 0.0005188 -0.0008114 -0.0004928 -0.0028490 -0.0005922 0.0011232 0.0000665 -0.0001381 0.0012117 -0.0004193 -0.0001031 -0.0002189 0.0000862 -0.0003060 -0.0000357 -0.0001348 -0.0002547 0.0001777 -0.0016795 0.0032792 0.0000341 -0.0005831 -0.0005504 0.0001320 0.0013466 -0.0011314 -0.0003447 0.0002080 -0.0000107 -0.0001500 -0.0004962 0.0007465 0.0003491 -0.0008254 -0.0127286 0.0112590 -0.0001276 0.0003417 -0.0002380 0.0003184 0.0002300 -0.0001239 0.0013288 0.0048578 0.0007871 -0.0000560 0.0000254 -0.0000718 0.0000297 0.0000674 0.0000304 0.0034595 0.0006839 0.0010071 -0.0000713 0.0003124 -0.0000821 0.0001449 -0.0000029 0.0000997 -0.0000575 -0.0001975 -0.0000548 -0.0000090 -0.0001849 -0.0000006
0.0000686 -0.0002580 0.0000384 -0.0001721 0.0000867 -0.0002721 0.0000110 -0.0001459 -0.0000009 0.0003979 0.0000331 -0.0000070 0.0000754 -0.0002102 0.0000333 0.0001197 0.0000545 -0.0002430 0.0001528 -0.0003132 0.0000598 -0.0002608 0.0001074 -0.0002135 -0.0000120 -0.0005494 0.0000473 0.0001915 0.0000169 -0.0001021 0.0000199 0.0002207 0.0000489 -0.0000096 0.0001361 -0.0003777 0.0001002 0.0000105 0.0004629 -0.0003196 0.0001368 -0.0003462 0.0000218 0.0000446 0.0000339 -0.0002323 0.0000469 0.0000556 0.0000664 0.0001967 -0.0000200 -0.0001090 -0.0000029 0.0000016 0.0000260 -0.0000833 -0.0000062 0.0002559 0.0000638 -0.0002398 -0.0000132 0.0001112 0.0001761 -0.0002852 0.0000221 -0.0004559 0.0001697 -0.0003653 0.0000260 -0.0000477 0.0000236 0.0003546 -0.0001769 0.0002760 0.0000578 0.0005588 0.0002452 -0.0004246 -0.0000049 -0.0002605 -0.0014807 0.0008904 -0.0001263 -0.0003811 0.0000736 0.0000395 0.0012694 -0.0002287 -0.0003252 0.0001651 0.0000170 -0.0001654 -0.0121337 0.0139835 0.0006686 -0.0008557 0.0010802 -0.0019131 -0.0032116 -0.0007881 -0.0000238 0.0001447 -0.0039205 0.0089293 -0.0001151 0.0001772 -0.0000487 0.0003885 -0.0000108 0.0000739 0.0001103 0.0003192 0.0000324 0.0002479 -0.0001428 -0.0000510 0.0000584 -0.0000102 0.0001383 -0.0002279 -0.0001594 -0.0006134 -0.0000124 -0.0000258 0.0005820 -0.0008540 -0.0000127 0.0003848 -0.0012863 0.0015922 -0.0000389 0.0004742 0.0085476 -0.0090399 0.0002930 -0.0005521 0.0014614 -0.0018161 -0.0005174 0.0002248 -0.0000340 -0.0000043 -0.0000246 0.0001719 0.0000332 -0.0002360 0.0001109 0.0000898 0.0030237 -0.0032329 -0.0010184 0.0004317 -0.0009256 -0.0005904 -0.0003603 0.0016875 0.0000068 -0.0000656 0.0003380 0.0002836 -0.0003021 0.0001142 -0.0006743 0.0002490 -0.0000879 -0.0000232 0.0001418 -0.0000650 -0.0034837 0.0049241 -0.0000153 -0.0007140 0.0008437 -0.0006831 0.0042226 -0.0028030 0.0000980 0.0000538 0.0000464 -0.0000943 -0.0000290 0.0005816 0.0000957 -0.0003705 0.0101301 -0.0158733 0.0003800 0.0003569 -0.0001446 0.0001785 -0.0002029 0.0003766 0.0093590 -0.0142485 0.0011410 -0.0007827 0.0000362 -0.0000120 -0.0003238 0.0003536 0.0050312 -0.0038707 -0.0003974 0.0007967 0.0001816 0.0004042 -0.0000507 0.0001635 -0.0000217 0.0001575 0.0001251 -0.0002005 -0.0000311 0.0000522 0.0007420 -0.0003367
0.0000419 -0.0001821 0.0000280 -0.0001405 0.0000809 -0.0002252 0.0000000 -0.0001027 -0.0000095 0.0004794 0.0000399 0.0000884 0.0000514 -0.0001366 0.0000161 0.0002050 0.0000479 -0.0002293 0.0001658 -0.0002974 0.0000702 -0.0001994 0.0001277 -0.0001949 0.0000310 -0.0005970 0.0000426 0.0003087 0.0000202 -0.0000162 0.0000123 0.0003398 0.0000493 0.0000595 0.0001358 -0.0003316 0.0000918 0.0000886 -0.0000817 0.0004629 0.0001347 -0.0003014 0.0000712 0.0000126 0.0001056 -0.0002302 0.0000422 0.0001019 -0.0000839 0.0003948 -0.0000229 -0.0000696 -0.0000089 0.0000469 -0.0000183 -0.0000197 -0.0000280 0.0003094 0.0000531 -0.0001587 -0.0000418 0.0001716 0.0000826 -0.0001079 0.0000888 -0.0004438 0.0002092 -0.0003085 -0.0001864 0.0001463 0.0000237 0.0003674 -0.0000302 0.0000817 0.0007606 -0.0002192 0.0001979 -0.0003068 0.0001652 -0.0004101 0.0001424 -0.0011783 -0.0000379 -0.0004782 0.0000807 0.0000800 0.0007642 -0.0004507 -0.0001319 0.0000423 0.0000163 -0.0001562 -0.0033675 0.0021229 0.0005620 -0.0008803 0.0011738 -0.0017821 -0.0010893 -0.0011042 -0.0000562 0.0003966 -0.0037482 0.0035666 -0.0000617 0.0000708 -0.0000649 0.0003872 -0.0000077 0.0000703 0.0000246 0.0003932 0.0000172 0.0002392 -0.0001256 -0.0001023 0.0000588 -0.0000372 0.0002562 -0.0003065 0.0001228 -0.0009371 0.0002739 -0.0005558 0.0010553 -0.0015544 -0.0000477 0.0003494 0.0004878 0.0003434 0.0002695 0.0000918 0.0100022 -0.0127328 0.0005657 -0.0009748 0.0005592 0.0004784 -0.0010669 -0.0003373 0.0000314 -0.0001339 0.0000828 0.0000218 0.0002043 -0.0004801 0.0000352 0.0000363 0.0026038 -0.0033809 -0.0017282 0.0003661 0.0046545 -0.0053665 0.0003168 0.0001054 -0.0000514 -0.0000439 0.0003152 0.0000994 -0.0000291 -0.0001955 0.0002269 -0.0005782 -0.0000301 -0.0001467 0.0002730 -0.0001834 -0.0011396 -0.0018931 0.0002190 -0.0003604 0.0002397 -0.0002712 0.0022359 -0.0007776 0.0007207 -0.0006288 0.0000592 -0.0000195 0.0006773 0.0002574 -0.0003396 0.0002414 0.0139795 -0.0177564 0.0001864 0.0005400 -0.0000848 0.0000981 -0.0001599 0.0003103 0.0214365 -0.0378095 0.0007471 -0.0009233 -0.0000339 0.0000590 0.0008620 -0.0002409 0.0087022 -0.0092254 -0.0000009 0.0002710 -0.0004166 0.0008567 -0.0000300 0.0001500 -0.0000834 0.0002207 0.0001221 0.0000561 -0.0000122 0.0001238 0.0014404 -0.0012067
0.0000370 -0.0001526 0.0000148 -0.0001092 0.0000744 -0.0001919 0.0000014 -0.0000552 -0.0000047 0.0005357 0.0000104 0.0001756 0.0000404 -0.0000769 0.0000003 0.0002681 0.0000328 -0.0001926 0.0001467 -0.0002556 0.0000723 -0.0001544 0.0001391 -0.0001953 0.0000062 -0.0005790 0.0000364 0.0004153 0.0000118 0.0000745 0.0000025 0.0004532 0.0000648 0.0001264 0.0001299 -0.0002666 0.0000814 0.0001715 0.0000310 -0.0000877 0.0001434 -0.0002722 0.0000175 0.0000749 0.0001709 -0.0002023 0.0000324 0.0001698 -0.0001996 0.0004843 -0.0000346 0.0000320 -0.0000189 0.0001176 -0.0000227 0.0000485 -0.0000367 0.0003644 0.0000511 -0.0000570 -0.0000425 0.0002184 0.0001000 -0.0000507 0.0000150 -0.0003665 0.0004331 -0.0003516 -0.0004169 0.0002661 -0.0000072 0.0004370 -0.0000612 0.0002015 0.0009348 -0.0005642 -0.0000337 -0.0000238 0.0002154 -0.0003228 0.0012435 -0.0024741 0.0001670 -0.0005009 0.0000976 0.0001389 -0.0002177 0.0003697 0.0000060 0.0001847 0.0000224 -0.0000788 0.0020580 -0.0044636 -0.0001105 -0.0005352 0.0009359 -0.0010373 -0.0013787 0.0014971 0.0001937 0.0002595 0.0034003 -0.0125246 -0.0000222 0.0001823 -0.0001214 0.0004111 -0.0000100 0.0001370 -0.0001684 0.0004897 0.0000141 0.0002886 -0.0001873 0.0000592 0.0000477 0.0000498 0.0002342 -0.0001296 0.0000285 -0.0010138 0.0007832 -0.0012651 0.0002160 0.0000507 0.0000167 0.0003717 0.0015086 -0.0013044 -0.0003686 0.0003101 0.0085625 -0.0079998 0.0006921 -0.0009077 0.0013465 -0.0008697 -0.0000908 -0.0009793 -0.0000041 0.0000401 0.0001562 0.0000138 0.0005213 -0.0006513 0.0001324 0.0001334 -0.0000431 -0.0011378 -0.0001503 -0.0007918 0.0055399 -0.0066309 -0.0022681 0.0010321 0.0000809 -0.0000704 0.0001617 0.0003091 0.0000535 0.0000391 0.0008794 -0.0010872 0.0000397 -0.0000804 0.0003107 0.0000011 0.0005357 -0.0043463 -0.0001915 0.0002867 -0.0003564 0.0008435 -0.0039710 0.0045576 0.0005385 -0.0001605 0.0000791 0.0001429 0.0005982 0.0003843 -0.0003283 0.0001821 0.0019206 0.0017867 0.0010030 -0.0005046 -0.0000379 0.0001296 0.0002335 -0.0001590 0.0018146 0.0026263 -0.0002123 -0.0000343 -0.0000212 0.0001824 0.0021221 -0.0011232 -0.0012764 -0.0000452 -0.0002350 0.0000697 -0.0003361 0.0006682 -0.0000773 0.0002884 -0.0001512 0.0003649 -0.0000625 0.0002764 -0.0000303 0.0002233 0.0006397 -0.0011778
0.0000580 -0.0001325 0.0000115 -0.0000809 0.0000777 -0.0001569 -0.0000057 -0.0000156 -0.0000055 0.0005870 -0.0000484 0.0002214 0.0000209 -0.0000384 -0.0000006 0.0003200 0.0000194 -0.0001667 0.0001291 -0.0002493 0.0000743 -0.0001783 0.0001241 -0.0001789 0.0000098 -0.0006957 0.0000311 0.0004717 0.0000070 0.0001291 -0.0000011 0.0005270 0.0000469 0.0001524 0.0001252 -0.0002447 0.0000705 0.0002156 0.0004386 -0.0006608 0.0001620 -0.0002921 0.0000021 0.0000406 0.0000752 -0.0002187 0.0000334 0.0001846 -0.0001065 0.0003421 -0.0000135 0.0000072 -0.0000046 0.0001307 -0.0000371 0.0000267 -0.0000435 0.0003230 0.0000640 -0.0001575 -0.0000263 0.0001736 0.0002480 -0.0002913 0.0000300 -0.0004566 0.0003329 -0.0003444 0.0000686 -0.0001491 -0.0000391 0.0004452 -0.0000910 0.0003001 -0.0000867 0.0002356 -0.0000184 -0.0001482 0.0002142 -0.0003622 0.0024609 -0.0033587 0.0004727 -0.0007310 0.0001056 0.0001386 -0.0003261 0.0008569 -0.0000507 0.0002534 0.0000556 -0.0000606 0.0004659 -0.0009787 -0.0002665 0.0002641 0.0009084 -0.0008000 0.0017761 -0.0026571 -0.0000299 0.0003968 0.0065990 -0.0141133 -0.0000318 0.0002083 -0.0000458 0.0003310 0.0000007 0.0001564 0.0000435 0.0002683 0.0000261 0.0002974 -0.0001147 0.0001582 0.0000366 0.0000844 0.0000922 -0.0000101 0.0000107 -0.0010772 0.0001991 -0.0005684 -0.0001193 0.0005843 0.0000062 0.0004058 -0.0003569 -0.0003450 -0.0008563 0.0008355 0.0026723 -0.0034106 0.0004835 -0.0007856 0.0008525 -0.0002988 0.0019961 -0.0011065 -0.0000643 0.0001719 0.0000335 0.0002316 0.0003204 -0.0004783 0.0003681 0.0000469 0.0017999 -0.0023619 0.0003846 -0.0005044 0.0009799 -0.0028038 0.0005062 0.0005363 0.0001423 -0.0000901 -0.0002236 0.0004876 -0.0000577 0.0002433 0.0010994 -0.0009165 -0.0000299 0.0001907 0.0003958 0.0000160 0.0025382 -0.0028023 -0.0003820 0.0001494 -0.0008448 0.0019896 -0.0034780 0.0036468 0.0000116 0.0003293 0.0001162 0.0001703 -0.0000118 0.0007922 -0.0003208 0.0000176 -0.0030708 -0.0004666 0.0007021 -0.0004572 -0.0000722 0.0002286 0.0001467 -0.0000440 0.0026435 0.0049920 -0.0000919 -0.0001463 -0.0000452 0.0002802 0.0023432 -0.0014064 0.0031129 -0.0097159 -0.0005741 -0.0004080 0.0004495 0.0000186 -0.0000745 0.0003946 -0.0000995 0.0003871 0.0002229 0.0001908 -0.0000167 0.0003493 -0.0002521 -0.0001723
0.0000379 -0.0000481 0.0000228 -0.0000369 0.0000835 -0.0001007 -0.0000072 0.0000702 -0.0000106 0.0006935 -0.0000501 0.0003166 -0.0000098 0.0000724 -0.0000195 0.0004299 -0.0000038 -0.0000886 0.0001179 -0.0001879 0.0000411 -0.0000675 0.0000786 -0.0000824 -0.0000012 -0.0006400 0.0000251 0.0006378 0.0000081 0.0002720 -0.0000030 0.0007226 0.0000246 0.0003145 0.0001212 -0.0001369 0.0000587 0.0003316 0.0002147 0.0000783 0.0001552 -0.0001845 -0.0000105 0.0001218 0.0000828 -0.0001580 0.0000323 0.0002694 0.0000709 0.0003446 -0.0000169 0.0000689 -0.0000089 0.0001981 -0.0000789 0.0001165 -0.0000645 0.0003829 0.0000243 -0.0000368 -0.0000502 0.0002517 0.0002700 -0.0002677 0.0000226 -0.0004077 0.0001343 -0.0000330 0.0003527 -0.0003812 -0.0000254 0.0004932 -0.0000910 0.0003951 -0.0016470 0.0021222 0.0000371 -0.0000134 0.0003578 -0.0003637 0.0019673 -0.0022506 0.0007572 -0.0007552 0.0001007 0.0002457 0.0002389 0.0003079 0.0002116 0.0002641 -0.0000736 0.0002845 -0.0039539 0.0020856 -0.0004079 0.0004262 0.0013745 -0.0012721 0.0083719 -0.0091572 -0.0002097 0.0006391 0.0069016 -0.0155797 -0.0000336 0.0003574 -0.0000365 0.0003801 0.0000010 0.0002069 0.0002296 -0.0000280 0.0000273 0.0003139 -0.0000302 -0.0000668 0.0000333 0.0001127 0.0002746 -0.0001228 -0.0001134 -0.0008722 -0.0003158 0.0002341 0.0004579 -0.0002708 -0.0000632 0.0004453 -0.0023811 0.0019672 0.0003201 0.0000551 0.0008576 -0.0062481 0.0005675 -0.0008499 0.0004120 0.0010234 0.0022545 -0.0013429 -0.0000185 0.0000992 -0.0000801 0.0003651 0.0006841 -0.0006688 0.0001054 0.0003260 0.0032954 -0.0043553 0.0001701 0.0001142 0.0022625 -0.0040956 0.0025977 -0.0008675 0.0001093 0.0000276 -0.0008179 0.0006251 0.0000230 0.0000837 0.0012005 -0.0012556 -0.0000146 0.0002225 -0.0001953 0.0004252 0.0014320 -0.0002613 0.0002264 -0.0002485 -0.0010210 0.0018457 -0.0008164 0.0018321 0.0000234 0.0003675 0.0000973 0.0002219 -0.0000821 0.0009875 -0.0002566 -0.0000188 -0.0028913 -0.0026367 -0.0004129 0.0003925 -0.0000094 0.0001029 -0.0004181 0.0007743 0.0129988 -0.0169035 -0.0000416 0.0000257 -0.0000350 0.0002089 0.0010146 -0.0010464 0.0135943 -0.0291240 -0.0014244 0.0004253 0.0006444 -0.0001711 -0.0000791 0.0003064 -0.0000443 0.0002822 0.0001933 0.0000911 0.0000049 0.0002373 0.0002447 -0.0001984
0.0000320 -0.0000897 0.0000192 -0.0000405 0.0000936 -0.0001540 0.0000078 0.0000843 -0.0000116 0.0007072 -0.0000378 0.0002720 -0.0000128 0.0000521 -0.0000223 0.0004381 -0.0000099 -0.0000026 0.0001265 -0.0001948 0.0000455 -0.0000464 0.0000747 -0.0000756 0.0000213 -0.0006373 0.0000297 0.0006558 0.0000295 0.0002871 0.0000085 0.0007658 0.0000393 0.0003276 0.0001249 -0.0001264 0.0000566 0.0003535 0.0000559 0.0001908 0.0001522 -0.0001383 0.0000808 0.0000988 0.0001481 -0.0002030 0.0000397 0.0003213 0.0000340 0.0004415 -0.0000314 0.0001087 -0.0000135 0.0002287 -0.0000495 0.0001353 -0.0000654 0.0003917 0.0000000 0.0000329 -0.0000675 0.0002804 0.0001665 -0.0001575 -0.0000382 -0.0002456 0.0001567 0.0000134 0.0001300 0.0000646 -0.0000142 0.0005110 -0.0000670 0.0003794 -0.0017739 0.0025759 0.0000175 0.0000752 0.0004167 -0.0003125 0.0016110 -0.0010322 0.0005241 -0.0004819 0.0001199 0.0002993 0.0007382 -0.0004291 0.0002503 -0.0000289 -0.0000026 0.0002629 -0.0097186 0.0044879 -0.0001059 0.0002248 0.0013856 -0.0012963 0.0060063 -0.0079537 -0.0001699 0.0006051 0.0089860 -0.0121738 0.0000831 0.0003263 0.0000483 0.0004349 -0.0000204 0.0002624 0.0000907 0.0000637 0.0000110 0.0003383 -0.0000853 -0.0001199 0.0000313 0.0001681 0.0002638 -0.0000982 -0.0001450 -0.0006736 0.0001374 0.0003545 0.0002427 0.0000453 -0.0001337 0.0005341 -0.0009688 0.0016987 0.0005536 0.0001753 0.0020344 -0.0047989 0.0005872 -0.0006268 0.0014481 -0.0009285 -0.0004412 0.0001781 0.0000219 0.0001637 -0.0000925 0.0004682 0.0005632 -0.0004922 -0.0002169 0.0007436 0.0017853 -0.0019930 0.0012084 -0.0012191 0.0062515 -0.0067629 0.0013209 -0.0001144 0.0000627 0.0002157 -0.0004066 0.0006472 0.0002545 0.0000364 0.0012657 -0.0007525 0.0000081 0.0003322 -0.0003948 0.0007493 -0.0002604 0.0013438 0.0005103 0.0002165 -0.0010536 0.0013021 0.0009702 0.0010876 0.0003710 0.0001936 0.0000732 0.0003580 -0.0000351 0.0011140 -0.0001322 0.0000515 -0.0017756 -0.0014157 -0.0001167 0.0002673 0.0000035 0.0001723 -0.0001950 0.0005918 0.0075391 -0.0093590 0.0005288 -0.0004806 -0.0000327 0.0002947 -0.0003047 -0.0000573 0.0093588 -0.0199294 -0.0012174 0.0006801 0.0003329 0.0002832 -0.0001032 0.0003893 -0.0000211 0.0003466 -0.0000682 0.0004268 -0.0000078 0.0003643 0.0003859 0.0001008
0.0000311 -0.0000476 0.0000085 0.0000126 0.0000835 -0.0001075 0.0000103 0.0001409 -0.0000111 0.0007751 -0.0000526 0.0003402 -0.0000183 0.0001111 -0.0000213 0.0004979 -0.0000173 0.0000720 0.0001217 -0.0001538 0.0000406 0.0000066 0.0001149 -0.0000703 -0.0000165 -0.0005551 0.0000282 0.0007198 0.0000437 0.0003718 0.0000222 0.0008745 0.0000403 0.0003713 0.0001164 -0.0000676 0.0000657 0.0004032 0.0000613 0.0001293 0.0001629 -0.0001197 0.0001023 0.0000982 0.0000095 -0.0000567 0.0000456 0.0003624 -0.0000514 0.0004970 -0.0000261 0.0001013 0.0000001 0.0002381 -0.0000358 0.0000896 -0.0000604 0.0003511 0.0000046 -0.0000239 -0.0000669 0.0002489 0.0000409 -0.0000756 -0.0000359 -0.0001753 0.0001696 -0.0000304 0.0007160 -0.0002650 -0.0000046 0.0004543 -0.0001239 0.0003361 0.0009276 0.0002878 0.0000380 -0.0000725 0.0003096 -0.0003568 0.0020472 -0.0013406 0.0002590 -0.0004890 0.0001208 0.0002560 0.0003589 -0.0000947 0.0002551 -0.0001719 0.0000758 0.0000376 -0.0102240 0.0083431 0.0017189 -0.0010789 0.0011555 -0.0013727 0.0067212 -0.0095245 -0.0001819 0.0004946 0.0157232 -0.0196859 0.0000676 0.0002280 0.0000716 0.0003463 -0.0000257 0.0002390 0.0000397 0.0001863 -0.0000075 0.0002986 -0.0000448 -0.0001142 0.0000281 0.0001181 0.0002417 -0.0000869 0.0000097 -0.0007539 0.0009394 0.0001262 0.0005247 0.0002354 -0.0001646 0.0005450 0.0019294 -0.0017454 0.0004779 0.0002783 0.0020231 -0.0024104 0.0005706 -0.0006860 0.0017608 -0.0025139 0.0002303 -0.0009591 0.0000283 0.0000790 0.0000235 0.0003616 0.0004229 -0.0003247 -0.0001120 0.0005459 -0.0021683 0.0018579 0.0014424 -0.0012985 0.0048824 -0.0044772 0.0011839 0.0004370 0.0000337 0.0002242 0.0005706 0.0002809 0.0004772 -0.0002414 0.0005606 0.0001774 -0.0000288 0.0004080 -0.0001370 0.0006565 0.0000769 0.0005661 0.0004843 0.0004011 0.0001969 0.0006821 0.0017470 -0.0021289 0.0000624 0.0003076 0.0000395 0.0003596 -0.0001749 0.0012811 -0.0000809 0.0000309 0.0017721 -0.0106855 0.0001713 0.0003062 -0.0000270 0.0003148 -0.0002063 0.0000970 0.0098609 -0.0133017 0.0007323 -0.0007081 -0.0000892 0.0003543 -0.0001682 -0.0002989 0.0001088 -0.0096466 0.0003116 0.0003384 0.0004517 -0.0000134 -0.0000298 0.0002954 0.0000119 0.0002740 0.0002455 0.0000926 -0.0000166 0.0004012 -0.0004635 0.0009800
0.0000273 -0.0000233 0.0000173 0.0000314 0.0000769 -0.0000857 0.0000191 0.0001667 -0.0000093 0.0007818 -0.0000190 0.0003341 -0.0000198 0.0001539 -0.0000311 0.0005163 -0.0000201 0.0001574 0.0001043 -0.0001005 0.0000130 0.0000493 0.0001478 -0.0000795 -0.0000966 -0.0003372 0.0000261 0.0007402 0.0000269 0.0004250 0.0000294 0.0009691 0.0000621 0.0004028 0.0001301 -0.0000423 0.0000693 0.0004563 0.0003433 0.0000715 0.0001888 -0.0000946 0.0000170 0.0002257 0.0000187 -0.0000267 0.0000520 0.0004250 0.0000410 0.0004105 -0.0000533 0.0001825 -0.0000063 0.0002832 -0.0000629 0.0001382 -0.0000721 0.0003635 0.0000237 0.0000061 -0.0000843 0.0002737 0.0000423 0.0000234 -0.0000609 -0.0001027 0.0001848 -0.0000018 0.0001669 0.0000944 0.0000000 0.0004712 -0.0000856 0.0003179 0.0004070 0.0003711 0.0000508 -0.0000077 0.0002379 -0.0002177 0.0023291 -0.0009959 0.0001595 -0.0003177 0.0001157 0.0002838 0.0000753 0.0003380 0.0004063 -0.0000398 -0.0000145 0.0002150 -0.0025092 0.0032085 0.0016321 -0.0009102 0.0014340 -0.0016922 0.0091446 -0.0097507 -0.0001888 0.0005570 0.0109269 -0.0166895 -0.0000278 0.0004205 0.0000517 0.0003243 -0.0000335 0.0002482 -0.0003202 0.0005908 -0.0000133 0.0002928 -0.0001713 0.0000620 0.0000290 0.0001434 0.0002115 0.0000684 0.0000103 -0.0005636 0.0008891 -0.0000928 0.0003092 0.0006155 -0.0000957 0.0005099 -0.0001481 -0.0004590 0.0004452 0.0004292 0.0002807 0.0012396 0.0005549 -0.0005950 0.0013400 -0.0011992 0.0008481 -0.0016041 0.0000066 0.0001720 0.0000283 0.0004375 0.0007678 -0.0005492 0.0000434 0.0003619 -0.0003172 -0.0003809 0.0008314 0.0001827 0.0008110 -0.0005236 0.0005493 -0.0000708 0.0001405 0.0002002 0.0005736 0.0001524 0.0002688 0.0004576 0.0002512 0.0002719 -0.0000368 0.0004444 0.0000022 0.0007462 -0.0038478 0.0039003 0.0002477 0.0005609 0.0008482 0.0003597 -0.0032014 0.0010994 -0.0003727 0.0008912 -0.0000413 0.0003673 -0.0000580 0.0008080 -0.0001976 0.0000749 -0.0072201 0.0028141 -0.0000786 0.0004716 0.0000039 0.0003718 -0.0003751 0.0006150 0.0055107 -0.0155015 -0.0001747 0.0002970 -0.0001061 0.0003177 0.0006771 -0.0006235 -0.0080804 0.0011836 0.0015339 -0.0002724 0.0000307 -0.0000264 -0.0000041 0.0001805 0.0000494 0.0001388 0.0003027 -0.0001422 0.0000024 0.0001890 -0.0008287 0.0010941
0.0000298 -0.0000670 0.0000164 0.0000013 0.0000901 -0.0001466 0.0000320 0.0001063 -0.0000112 0.0006923 0.0000330 0.0001526 -0.0000013 0.0000670 -0.0000190 0.0004389 -0.0000109 0.0001522 0.0001222 -0.0001719 -0.0000238 0.0000102 0.0001197 -0.0000984 -0.0001466 -0.0003088 0.0000225 0.0005929 0.0000376 0.0002979 0.0000340 0.0008527 0.0001120 0.0002447 0.0001599 -0.0001413 0.0000778 0.0003879 0.0004528 -0.0000115 0.0002167 -0.0001585 0.0000593 0.0001681 0.0001829 -0.0002755 0.0000612 0.0004175 0.0000501 0.0003178 -0.0000400 0.0001665 -0.0000158 0.0002851 -0.0000586 0.0001323 -0.0001083 0.0003466 0.0000167 -0.0000059 -0.0001066 0.0002485 0.0000598 -0.0000031 -0.0000129 -0.0001548 0.0000204 0.0000682 -0.0004572 0.0005731 -0.0000212 0.0004876 -0.0000272 0.0002615 -0.0012108 0.0013824 0.0001205 -0.0000507 0.0003143 -0.0002618 0.0021017 -0.0012709 0.0001911 -0.0003992 0.0001200 0.0003023 0.0008120 -0.0000157 -0.0001924 0.0004392 0.0000442 0.0002242 -0.0003911 0.0028594 -0.0002813 0.0004963 0.0011049 -0.0011910 0.0033533 -0.0016165 0.0000833 0.0002816 -0.0063104 0.0066431 -0.0000432 0.0004856 0.0000938 0.0003859 -0.0000486 0.0002326 -0.0004043 0.0006074 -0.0000211 0.0002734 -0.0003794 0.0004964 0.0000190 0.0001790 0.0001283 0.0001659 0.0000124 -0.0003368 0.0003194 0.0001652 0.0003724 0.0003227 -0.0000634 0.0004760 -0.0014585 0.0016747 0.0001980 0.0006014 -0.0005461 -0.0007464 0.0002313 -0.0001592 -0.0004959 0.0019790 0.0001084 -0.0009621 0.0000418 0.0002468 0.0000469 0.0004296 0.0004374 -0.0000702 -0.0000648 0.0004045 0.0015660 -0.0014016 0.0010090 -0.0000998 -0.0030936 0.0026670 -0.0004287 0.0004097 0.0000307 0.0002968 0.0003540 0.0002287 -0.0001342 0.0008446 0.0001068 0.0005100 -0.0000403 0.0005049 0.0000940 0.0008810 -0.0029617 0.0043675 -0.0000168 0.0005427 0.0008192 0.0004790 0.0014164 -0.0027912 -0.0002990 0.0006010 -0.0000236 0.0003187 -0.0000670 0.0007752 -0.0002803 0.0003488 -0.0095520 0.0080117 0.0003942 0.0001624 -0.0000587 0.0005362 -0.0001805 0.0004737 -0.0031001 0.0007984 0.0001478 -0.0002271 -0.0000588 0.0003055 0.0012604 -0.0003933 -0.0065324 0.0036870 0.0027079 -0.0016522 -0.0003033 0.0006381 -0.0000366 0.0002856 -0.0000421 0.0002966 0.0000339 0.0003969 -0.0000049 0.0002909 -0.0001873 0.0009480
0.0000205 -0.0000035 0.0000322 0.0000300 0.0000947 -0.0000910 0.0000247 0.0001641 -0.0000180 0.0007137 0.0000097 0.0002405 0.0000011 0.0001280 -0.0000274 0.0004743 -0.0000103 0.0001416 0.0001423 -0.0001571 -0.0000214 0.0000665 0.0001249 -0.0000765 -0.0000748 -0.0002925 0.0000108 0.0006192 0.0000407 0.0003325 0.0000286 0.0008611 0.0001337 0.0002652 0.0001709 -0.0000932 0.0000831 0.0004029 0.0000409 0.0001447 0.0002114 -0.0001352 0.0000358 0.0002068 0.0001876 -0.0001870 0.0000507 0.0004265 0.0001366 0.0002375 -0.0000467 0.0002235 -0.0000273 0.0003274 -0.0000673 0.0001671 -0.0001247 0.0003789 -0.0000039 0.0000812 -0.0001127 0.0002655 0.0001550 -0.0000416 0.0000932 -0.0002107 -0.0000991 0.0002657 0.0002049 0.0001082 -0.0000444 0.0005478 -0.0001915 0.0004130 -0.0000580 0.0007330 0.0000462 0.0001110 0.0002458 -0.0001328 0.0001870 -0.0013411 0.0003726 -0.0005955 0.0000879 0.0003487 0.0001599 0.0002915 -0.0000581 0.0004666 0.0000486 0.0002789 -0.0004866 0.0036700 0.0007298 -0.0004621 0.0011492 -0.0010929 -0.0035016 0.0053645 0.0002298 0.0001484 -0.0164574 0.0128058 -0.0000207 0.0005165 0.0001026 0.0002546 -0.0000569 0.0002054 -0.0001114 0.0003039 -0.0000452 0.0002462 -0.0002825 0.0005615 -0.0000225 0.0001696 0.0002524 0.0000346 -0.0000442 -0.0002673 0.0003377 0.0003434 0.0007142 -0.0003678 -0.0000082 0.0003096 0.0003391 0.0005733 0.0009448 -0.0003496 0.0024289 -0.0028719 0.0001317 -0.0000358 0.0011684 0.0007950 0.0018429 -0.0024248 0.0001040 0.0000723 0.0001819 0.0002448 0.0003816 0.0003472 -0.0001131 0.0004090 -0.0001811 0.0009799 0.0000964 0.0000605 -0.0026069 0.0019405 -0.0000067 0.0008728 -0.0000837 0.0003625 0.0000995 0.0006571 0.0000901 0.0001980 -0.0002704 0.0007078 -0.0000119 0.0003936 -0.0002517 0.0011298 -0.0014992 0.0050799 -0.0000304 0.0006320 0.0006929 0.0005422 0.0027150 -0.0029188 0.0001069 -0.0000932 0.0000761 0.0002088 -0.0002243 0.0012050 -0.0004480 0.0005670 -0.0024013 -0.0031248 0.0005897 0.0000162 -0.0001762 0.0006732 -0.0000860 -0.0001962 0.0042720 -0.0050283 0.0003308 -0.0006225 -0.0000993 0.0003122 0.0011723 -0.0002489 0.0059815 -0.0052484 0.0017387 -0.0013592 -0.0005032 0.0008204 -0.0000269 0.0002706 -0.0001200 0.0003523 -0.0001762 0.0007278 0.0000020 0.0003408 -0.0006017 0.0013993
0.0000293 0.0000082 0.0000408 0.0000425 0.0000943 -0.0000607 0.0000275 0.0001902 -0.0000234 0.0007048 0.0000036 0.0002605 0.0000016 0.0001580 -0.0000370 0.0004788 -0.0000041 0.0001497 0.0001369 -0.0001286 0.0000349 0.0000004 0.0001416 -0.0000813 -0.0000022 -0.0003281 0.0000035 0.0006145 0.0000237 0.0003494 0.0000166 0.0008397 0.0001461 0.0002791 0.0001798 -0.0000742 0.0000842 0.0004055 0.0001942 -0.0000032 0.0001932 -0.0001013 -0.0000116 0.0002209 0.0000422 0.0000421 0.0000369 0.0004126 0.0000448 0.0002983 -0.0000735 0.0003005 -0.0000341 0.0003669 -0.0000345 0.0001799 -0.0001241 0.0003981 -0.0000188 0.0001637 -0.0001204 0.0002836 0.0003198 -0.0001946 0.0001068 -0.0001683 0.0000010 0.0003227 0.0004579 0.0000278 -0.0000193 0.0005663 -0.0002725 0.0004745 -0.0003667 0.0010728 -0.0001203 0.0003551 0.0001714 0.0000164 -0.0022915 0.0019283 0.0005017 -0.0004744 0.0000779 0.0003683 -0.0000789 0.0002221 0.0006105 0.0000188 0.0000612 0.0004175 0.0038126 -0.0011279 0.0007986 -0.0002351 0.0005148 -0.0003434 0.0011357 -0.0012965 0.0001248 0.0003456 -0.0019311 0.0056675 -0.0000294 0.0006569 0.0000806 0.0001862 -0.0000665 0.0002135 0.0000130 0.0002613 -0.0000515 0.0002519 -0.0001325 0.0004684 -0.0000300 0.0002379 0.0002992 -0.0000350 -0.0002649 -0.0001232 0.0002960 -0.0000642 0.0009055 -0.0002785 -0.0000580 0.0003160 0.0006356 0.0010304 0.0013920 -0.0007457 0.0025913 -0.0007923 0.0003859 -0.0001199 0.0010363 0.0003123 0.0016191 -0.0012765 0.0001092 0.0001634 0.0001737 0.0003009 0.0004922 0.0003595 0.0001449 0.0003638 -0.0002104 0.0017441 -0.0013093 0.0016752 0.0021609 -0.0040042 0.0007596 -0.0002221 0.0000514 0.0003998 0.0000987 0.0005586 0.0002146 0.0003228 0.0000908 0.0005950 -0.0000184 0.0004513 -0.0001827 0.0010773 -0.0006574 0.0053187 -0.0001241 0.0008783 0.0015063 -0.0005990 -0.0015710 0.0017237 0.0004012 -0.0001373 0.0000699 0.0002378 -0.0000625 0.0010893 -0.0004228 0.0007774 0.0023486 -0.0042330 0.0001324 0.0005288 -0.0002636 0.0007706 -0.0002748 0.0008347 0.0168352 -0.0205584 0.0001313 -0.0001502 -0.0000695 0.0003284 0.0018091 -0.0005367 0.0038535 -0.0038733 0.0001440 -0.0001282 -0.0004831 0.0009816 -0.0000290 0.0003048 -0.0001365 0.0003819 -0.0002461 0.0008015 -0.0000277 0.0003606 -0.0013127 0.0015769
0.0000489 0.0000090 0.0000284 0.0000491 0.0000969 -0.0000585 0.0000296 0.0001477 -0.0000340 0.0006862 0.0000061 0.0002058 -0.0000226 0.0001601 -0.0000366 0.0004720 -0.0000123 0.0000972 0.0001388 -0.0001640 0.0000625 -0.0000728 0.0001469 -0.0000967 -0.0000071 -0.0004303 0.0000063 0.0005737 0.0000208 0.0002962 0.0000205 0.0008064 0.0001506 0.0001867 0.0001912 -0.0001362 0.0000919 0.0003700 0.0001473 0.0002139 0.0001810 -0.0001307 -0.0000130 0.0002009 0.0000331 -0.0000372 0.0000356 0.0003736 -0.0001766 0.0005236 -0.0000719 0.0002143 -0.0000152 0.0003206 -0.0000483 0.0001365 -0.0001287 0.0003256 -0.0000355 0.0000682 -0.0001225 0.0002130 0.0003382 -0.0002959 0.0000766 -0.0002137 0.0001445 0.0000893 0.0003048 0.0001738 0.0000041 0.0004686 -0.0002949 0.0004990 -0.0005078 0.0006515 -0.0000668 0.0001838 0.0001646 -0.0001003 -0.0047840 0.0040043 0.0004332 -0.0004711 0.0000737 0.0003253 0.0003142 0.0000136 0.0005324 -0.0001004 0.0000707 0.0003711 0.0039824 -0.0034806 -0.0000131 0.0005087 -0.0012215 0.0009616 0.0025359 -0.0053398 0.0001154 0.0002695 -0.0004741 0.0120251 -0.0000511 0.0005884 -0.0001316 0.0002662 -0.0000661 0.0001649 0.0001754 0.0000198 -0.0000612 0.0002228 -0.0001574 0.0003633 -0.0000365 0.0002422 0.0001494 0.0000296 -0.0002264 -0.0001955 0.0002415 -0.0003267 0.0014084 0.0000965 -0.0001264 0.0003751 0.0007496 0.0003637 0.0001701 0.0002568 0.0036284 -0.0020313 0.0004153 -0.0002431 -0.0026992 0.0031944 -0.0006031 0.0012143 0.0000573 0.0002314 0.0001252 0.0003037 0.0004999 0.0000803 0.0001509 0.0002895 -0.0001156 0.0014242 -0.0002441 0.0011715 0.0015121 -0.0063081 0.0009844 -0.0008182 0.0001396 0.0003238 0.0001166 0.0002557 -0.0002088 0.0007355 0.0001828 0.0003010 -0.0000073 0.0004071 0.0001114 0.0006515 -0.0021934 0.0049266 0.0000765 0.0006265 -0.0004524 0.0016831 0.0010253 -0.0011695 0.0001310 0.0004124 0.0000604 0.0002233 0.0006357 0.0004191 -0.0001260 0.0007803 0.0042055 -0.0076976 0.0002957 0.0002834 -0.0001714 0.0005643 -0.0006225 0.0017082 0.0128769 -0.0130416 0.0003389 -0.0002566 -0.0000365 0.0003683 0.0006473 0.0000567 0.0080850 -0.0089750 -0.0013933 0.0013857 0.0004823 0.0005273 -0.0000188 0.0003720 -0.0001109 0.0003903 -0.0001789 0.0008157 -0.0000405 0.0004458 -0.0000689 0.0007835
0.0000337 0.0000595 0.0000315 0.0000626 0.0000862 -0.0000163 0.0000077 0.0001621 -0.0000379 0.0007099 0.0000250 0.0002386 -0.0000473 0.0002259 -0.0000479 0.0005050 -0.0000266 0.0000840 0.0001447 -0.0001487 0.0000563 -0.0000357 0.0001467 -0.0000738 0.0000159 -0.0004301 0.0000085 0.0006522 0.0000260 0.0003216 0.0000238 0.0009319 0.0001498 0.0002270 0.0001891 -0.0001010 0.0000909 0.0004225 0.0001098 0.0004140 0.0001597 -0.0000642 0.0000038 0.0001830 0.0001482 -0.0000744 0.0000350 0.0004220 -0.0000684 0.0004346 -0.0000780 0.0002425 -0.0000221 0.0003404 -0.0001108 0.0001996 -0.0001328 0.0003382 -0.0000775 0.0001653 -0.0001422 0.0002563 0.0002607 -0.0000942 0.0000687 -0.0002429 0.0001273 0.0001146 0.0005424 -0.0000310 -0.0000363 0.0005288 -0.0001955 0.0004163 0.0004735 0.0001472 -0.0000042 0.0002724 0.0000324 0.0001851 -0.0010714 0.0009468 0.0001985 -0.0001870 0.0000651 0.0003706 -0.0004399 0.0010296 0.0002209 0.0002433 -0.0000057 0.0004831 0.0029408 -0.0054748 -0.0002406 0.0005805 -0.0007777 0.0002437 -0.0106049 0.0064527 -0.0002197 0.0006491 -0.0043962 0.0132214 -0.0001042 0.0006741 -0.0001561 0.0003574 -0.0000788 0.0001803 0.0000008 0.0001241 -0.0000753 0.0002191 -0.0001728 0.0002268 -0.0000678 0.0002598 0.0001137 0.0000958 -0.0001157 -0.0002972 0.0006567 -0.0004063 0.0019444 -0.0008992 -0.0001054 0.0003151 0.0013827 -0.0012747 -0.0004054 0.0007565 -0.0044718 0.0038932 0.0002454 -0.0001065 -0.0027861 0.0027486 0.0003965 0.0001427 0.0000509 0.0001137 0.0001582 0.0002800 0.0003447 0.0001745 -0.0000208 0.0004090 -0.0016701 0.0014356 -0.0001685 0.0012499 -0.0034005 0.0002233 -0.0010759 0.0014745 0.0001500 0.0002422 -0.0002248 0.0005808 -0.0003326 0.0007260 0.0004707 -0.0006778 0.0000180 0.0002418 0.0002348 0.0005338 -0.0077555 0.0074673 0.0001954 0.0005819 -0.0018332 0.0029660 0.0020817 -0.0001222 0.0003976 0.0005375 0.0001004 0.0001682 0.0004246 -0.0000215 -0.0003115 0.0006253 0.0022348 -0.0248604 0.0001847 -0.0000619 -0.0001339 0.0003865 -0.0009508 0.0013382 0.0030778 -0.0101698 0.0001348 0.0002601 -0.0000746 0.0003426 -0.0002714 0.0002326 0.0072527 -0.0073729 -0.0027071 0.0013431 0.0006899 -0.0000223 0.0000107 0.0002293 -0.0000522 0.0002779 -0.0002059 0.0005196 -0.0000149 0.0003021 0.0001199 0.0009000
0.0000339 -0.0000081 0.0000474 0.0000115 0.0000949 -0.0000719 0.0000078 0.0001233 -0.0000431 0.0006673 0.0000512 0.0001454 -0.0000348 0.0001529 -0.0000452 0.0004448 -0.0000196 0.0000923 0.0001526 -0.0001661 0.0000632 -0.0001093 0.0001685 -0.0001268 0.0000286 -0.0004330 0.0000017 0.0005742 0.0000370 0.0002363 0.0000146 0.0008734 0.0001593 0.0001475 0.0001913 -0.0001476 0.0001051 0.0003639 -0.0004599 0.0007978 0.0001621 -0.0000829 0.0001113 0.0000465 0.0000684 0.0000992 0.0000314 0.0004069 0.0000244 0.0003131 -0.0000769 0.0002393 -0.0000307 0.0003323 -0.0000842 0.0001484 -0.0001405 0.0003228 -0.0000830 0.0001837 -0.0001597 0.0002598 0.0002039 -0.0000600 0.0000368 -0.0001924 0.0000465 0.0002770 0.0004139 -0.0000642 -0.0000252 0.0005336 -0.0001223 0.0002841 0.0010331 -0.0002009 -0.0000987 0.0003948 0.0000541 0.0002141 0.0003136 0.0000562 0.0001168 -0.0000103 0.0000616 0.0003731 -0.0010436 0.0017186 -0.0001535 0.0007074 -0.0000486 0.0004837 -0.0007602 -0.0001332 0.0001786 -0.0002811 -0.0000195 -0.0005090 -0.0111568 0.0087146 -0.0004834 0.0009960 0.0080802 -0.0121031 -0.0000904 0.0006912 0.0001314 -0.0000230 -0.0001045 0.0002037 -0.0001853 0.0002994 -0.0000999 0.0002316 -0.0000967 0.0003493 -0.0000945 0.0002780 0.0002150 -0.0000707 -0.0001765 -0.0003223 0.0004428 -0.0001487 0.0008705 -0.0007090 -0.0000940 0.0003196 0.0000191 0.0004052 -0.0001178 0.0005903 -0.0108540 0.0103383 0.0001264 0.0001695 -0.0013334 0.0013286 0.0010977 -0.0010446 0.0000305 0.0001258 0.0000663 0.0004008 0.0004947 0.0001138 -0.0000564 0.0003973 -0.0008663 0.0010659 -0.0010601 0.0018914 -0.0057014 0.0045673 -0.0021018 0.0021974 0.0000657 0.0003456 -0.0010627 0.0013806 0.0000600 0.0004347 0.0002648 -0.0006654 -0.0000283 0.0003205 0.0000446 0.0007260 -0.0105739 0.0109557 0.0002065 0.0003660 0.0004541 0.0010120 0.0012874 0.0007894 0.0008186 -0.0000493 0.0000428 0.0002909 -0.0001956 0.0009683 -0.0001068 0.0004500 -0.0183238 0.0089952 0.0003222 -0.0001563 -0.0000469 0.0002852 -0.0006532 0.0010567 -0.0055620 0.0024510 -0.0006130 0.0005881 -0.0000721 0.0003751 0.0015711 -0.0003260 -0.0083430 0.0032350 -0.0028891 0.0019887 0.0000468 0.0003371 -0.0000521 0.0002796 -0.0000652 0.0003167 -0.0003013 0.0006027 -0.0000435 0.0003097 -0.0004579 0.0010037
0.0000390 -0.0000011 0.0000464 0.0000166 0.0001088 -0.0000678 0.0000011 0.0001322 -0.0000519 0.0006778 0.0000262 0.0001719 -0.0000299 0.0001517 -0.0000515 0.0004442 -0.0000324 0.0001036 0.0001559 -0.0001415 0.0000575 -0.0000896 0.0001925 -0.0001405 0.0000258 -0.0004321 -0.0000058 0.0005832 0.0000297 0.0002462 0.0000100 0.0008693 0.0001503 0.0001405 0.0001923 -0.0001428 0.0001121 0.0003463 -0.0006557 0.0008784 0.0001809 -0.0001182 0.0000970 0.0000100 -0.0000081 0.0001962 0.0000297 0.0003626 0.0000175 0.0003194 -0.0000917 0.0001787 -0.0000187 0.0002889 -0.0000340 0.0000581 -0.0001534 0.0002806 -0.0000596 0.0000823 -0.0001540 0.0002032 0.0001537 -0.0001289 0.0000184 -0.0002110 0.0001242 0.0001517 0.0002101 0.0000687 0.0000056 0.0004426 -0.0001049 0.0002844 0.0008897 -0.0006858 -0.0000666 0.0002090 0.0001120 -0.0000004 -0.0031435 0.0012309 0.0000955 0.0000139 0.0000299 0.0003263 -0.0003507 0.0006923 0.0002419 0.0003365 -0.0000646 0.0003381 0.0009397 0.0006509 0.0006869 -0.0004282 -0.0001055 0.0000407 0.0027960 -0.0023995 -0.0002782 0.0007842 0.0022900 -0.0079054 -0.0000209 0.0005083 0.0003070 -0.0002246 -0.0001072 0.0001345 -0.0001355 0.0002826 -0.0001075 0.0001801 0.0000112 0.0001038 -0.0001176 0.0001991 0.0002909 -0.0002362 -0.0002490 -0.0002142 0.0000497 -0.0000764 -0.0006180 0.0005301 -0.0000834 0.0002820 -0.0023071 0.0025968 -0.0004422 0.0007419 -0.0072474 0.0091289 0.0000421 0.0000940 -0.0025685 0.0036469 -0.0002161 0.0000865 0.0000138 0.0000774 -0.0000112 0.0003778 0.0005033 -0.0000888 -0.0001434 0.0002463 0.0011413 0.0002307 -0.0000518 0.0002394 -0.0015497 0.0006783 -0.0001397 0.0012677 -0.0000636 0.0003752 -0.0007358 0.0011771 0.0001607 0.0001091 0.0001000 -0.0004379 -0.0000542 0.0002234 -0.0002374 0.0007961 -0.0020813 0.0042268 -0.0000871 0.0010171 0.0008966 0.0003595 -0.0002079 0.0010025 0.0008195 -0.0003930 -0.0000256 0.0003157 -0.0000247 0.0013948 0.0001139 0.0001502 0.0019722 0.0036504 0.0004461 -0.0001985 0.0000103 0.0002012 0.0000983 0.0004977 -0.0081204 0.0161695 -0.0004737 0.0001826 -0.0000934 0.0003574 0.0005981 0.0011796 0.0091753 -0.0123375 -0.0007042 0.0010730 -0.0003442 0.0007898 -0.0000931 0.0002979 -0.0000696 0.0002644 -0.0003998 0.0006806 -0.0000925 0.0003266 -0.0004300 0.0003821
0.0000223 0.0000109 0.0000403 0.0000147 0.0001073 -0.0000713 -0.0000157 0.0001218 -0.0000567 0.0006533 0.0000626 0.0001155 -0.0000140 0.0001299 -0.0000586 0.0004192 -0.0000332 0.0001038 0.0001783 -0.0001524 0.0000640 -0.0000845 0.0001927 -0.0001444 0.0000728 -0.0004263 -0.0000097 0.0005528 0.0000248 0.0002165 0.0000081 0.0008573 0.0001558 0.0001068 0.0001908 -0.0001565 0.0001030 0.0003396 0.0002134 0.0002838 0.0001840 -0.0001113 -0.0000651 0.0001433 0.0000730 0.0001118 0.0000284 0.0003538 -0.0000631 0.0003609 -0.0001130 0.0001937 -0.0000302 0.0002907 -0.0000767 0.0001019 -0.0001598 0.0002855 -0.0000535 0.0001048 -0.0001715 0.0002180 0.0001448 -0.0001383 0.0000147 -0.0001648 0.0000624 0.0001683 0.0002762 0.0001404 -0.0000001 0.0004299 -0.0000426 0.0002214 0.0009940 -0.0005538 0.0000747 0.0000864 0.0000125 0.0000978 -0.0028883 0.0009615 0.0002070 -0.0001646 0.0000092 0.0003238 -0.0006635 0.0009876 0.0002974 0.0002217 0.0000033 0.0002366 0.0017600 -0.0022494 0.0001621 0.0001395 -0.0007909 0.0010029 0.0042881 -0.0034043 0.0000867 0.0004871 -0.0105587 0.0098183 -0.0000934 0.0005842 0.0000503 0.0001337 -0.0001080 0.0001080 0.0000517 0.0000798 -0.0000924 0.0001685 -0.0001238 0.0001869 -0.0001197 0.0002080 0.0002824 -0.0001357 -0.0003585 -0.0001070 -0.0003584 0.0004288 -0.0001605 0.0005064 -0.0001240 0.0003104 -0.0016145 0.0015571 -0.0006799 0.0009160 -0.0163968 0.0142781 0.0000862 0.0000562 -0.0046310 0.0041574 0.0022159 -0.0009030 -0.0000192 0.0001475 -0.0000569 0.0003575 0.0003769 0.0000138 -0.0000416 0.0003357 -0.0005879 0.0017892 0.0013223 -0.0003539 0.0008956 -0.0009046 -0.0009959 0.0020062 0.0000376 0.0002326 -0.0000437 0.0004002 0.0003609 -0.0001341 -0.0000835 0.0000752 -0.0000544 0.0002021 -0.0000945 0.0006081 0.0024248 -0.0020489 -0.0003066 0.0014767 0.0004606 0.0005207 -0.0001482 0.0010925 0.0007427 -0.0001126 -0.0000989 0.0003358 0.0000573 0.0010681 -0.0000808 0.0003203 0.0073812 -0.0049758 -0.0003185 0.0006192 -0.0002147 0.0003609 0.0001655 0.0001511 -0.0066410 0.0126062 -0.0012373 0.0014236 -0.0001068 0.0004147 0.0000337 0.0012345 0.0029660 -0.0020762 -0.0007326 0.0000397 -0.0000300 0.0005084 -0.0000499 0.0002783 -0.0001104 0.0003010 -0.0000850 0.0003961 -0.0001171 0.0003241 -0.0005348 -0.0000211
0.0000317 -0.0000020 0.0000276 0.0000072 0.0001049 -0.0000856 -0.0000244 0.0000765 -0.0000609 0.0006153 0.0000753 0.0000076 -0.0000072 0.0000601 -0.0000591 0.0003689 -0.0000394 0.0000412 0.0001977 -0.0002118 0.0000431 -0.0001172 0.0001899 -0.0001576 -0.0000202 -0.0003650 -0.0000117 0.0004396 0.0000274 0.0001246 -0.0000019 0.0007295 0.0001642 -0.0000420 0.0002005 -0.0002578 0.0000970 0.0002573 0.0002078 0.0001499 0.0001705 -0.0001450 -0.0000875 0.0001516 0.0001003 0.0000246 0.0000179 0.0003092 -0.0001100 0.0003631 -0.0001054 0.0001691 -0.0000387 0.0002787 -0.0001354 0.0001174 -0.0001633 0.0002548 -0.0000630 0.0000692 -0.0001776 0.0001831 0.0002248 -0.0002385 0.0000992 -0.0002215 -0.0000296 0.0001864 0.0000715 0.0001758 -0.0000156 0.0004216 -0.0000324 0.0001304 0.0009797 -0.0004843 0.0000766 0.0000683 -0.0001357 0.0002789 0.0009301 -0.0012726 0.0002616 -0.0002835 0.0000036 0.0002916 -0.0007497 0.0015766 -0.0000481 0.0002508 -0.0000044 0.0001000 0.0058318 -0.0105217 0.0007633 -0.0009814 -0.0016275 0.0014585 0.0016584 0.0020381 0.0002236 0.0001875 -0.0156295 0.0043905 -0.0002070 0.0005984 -0.0000170 0.0001163 -0.0001169 0.0000865 0.0001090 -0.0000241 -0.0001018 0.0001790 -0.0001761 0.0003786 -0.0001335 0.0002209 0.0002983 -0.0001167 -0.0001202 -0.0004832 -0.0003353 0.0005623 0.0001250 0.0005466 -0.0001547 0.0003191 0.0003834 -0.0003354 -0.0005449 0.0011514 -0.0105607 0.0086657 0.0000940 0.0000268 -0.0025140 0.0013255 0.0023604 -0.0006739 -0.0000045 0.0001740 -0.0000718 0.0003343 0.0003621 0.0001362 0.0000324 0.0002858 -0.0020404 0.0009703 -0.0009863 0.0017918 0.0010204 0.0010323 0.0011817 -0.0006383 0.0000576 0.0002132 0.0001164 0.0002013 0.0004880 -0.0002697 -0.0011121 0.0012127 -0.0000232 0.0002119 -0.0000937 0.0007573 -0.0018332 0.0003365 -0.0004405 0.0011668 0.0002901 0.0009040 -0.0012383 0.0026806 -0.0000164 0.0006784 -0.0001117 0.0003182 -0.0005236 0.0018883 -0.0000234 0.0002458 0.0072235 -0.0100500 -0.0007467 0.0009027 -0.0002231 0.0003460 -0.0003449 0.0005576 -0.0120601 0.0177589 -0.0012526 0.0018435 -0.0001006 0.0004580 0.0021489 -0.0012817 -0.0023305 -0.0060677 0.0006728 -0.0014836 0.0004955 0.0000836 -0.0000480 0.0003094 -0.0001448 0.0004018 -0.0000444 0.0004734 -0.0001209 0.0004255 -0.0001134 -0.0003450
0.0000382 0.0000270 0.0000347 0.0000041 0.0001042 -0.0000564 -0.0000479 0.0001305 -0.0000681 0.0006601 0.0000315 0.0001027 -0.0000063 0.0000840 -0.0000661 0.0003929 -0.0000483 0.0000096 0.0001792 -0.0001649 0.0000547 -0.0001169 0.0001759 -0.0001257 -0.0000302 -0.0004001 -0.0000163 0.0005046 0.0000334 0.0001809 -0.0000157 0.0007631 0.0001586 0.0000014 0.0001856 -0.0002026 0.0000876 0.0002851 -0.0002060 0.0002768 0.0001685 -0.0001163 -0.0000329 0.0001039 0.0000509 0.0000771 0.0000044 0.0003039 -0.0000614 0.0002823 -0.0000951 0.0001859 -0.0000467 0.0003066 -0.0001521 0.0001569 -0.0001675 0.0002854 -0.0000817 0.0001413 -0.0001879 0.0002096 0.0003182 -0.0003021 0.0000339 -0.0001975 -0.0000296 0.0002550 -0.0003031 0.0003110 -0.0000385 0.0004792 -0.0002050 0.0003149 -0.0003446 0.0004684 0.0000907 0.0001326 -0.0001480 0.0003908 0.0013038 -0.0003392 0.0001633 -0.0001099 0.0000027 0.0003124 -0.0006579 0.0016223 0.0001302 0.0001539 -0.0000604 0.0002567 0.0092937 -0.0124157 0.0011845 -0.0008593 -0.0014701 0.0017592 0.0000672 0.0044249 0.0003188 0.0001316 -0.0056762 -0.0005443 -0.0001711 0.0006440 -0.0000687 0.0002504 -0.0001277 0.0001066 -0.0001633 0.0003062 -0.0001095 0.0002081 0.0000260 0.0002048 -0.0001559 0.0002689 0.0003265 -0.0001310 0.0002464 -0.0009285 0.0002145 0.0001058 -0.0004366 0.0008346 -0.0000500 0.0002053 0.0014427 -0.0004043 -0.0003171 0.0010515 -0.0052173 0.0009502 0.0001512 -0.0000603 0.0003331 -0.0006936 -0.0008984 0.0013892 0.0001146 -0.0000613 0.0000323 0.0002026 -0.0002154 0.0006949 0.0001130 0.0001287 -0.0005023 -0.0000040 -0.0015862 0.0018546 0.0006837 -0.0003087 0.0012980 -0.0001563 -0.0000910 0.0002787 -0.0001660 0.0005532 0.0002167 -0.0000372 -0.0010029 0.0008546 0.0000408 0.0000263 -0.0000432 0.0008189 -0.0022891 0.0027607 -0.0001681 0.0007833 -0.0001614 0.0009701 -0.0017239 0.0040221 -0.0001867 0.0005181 -0.0000274 0.0002094 -0.0002221 0.0015780 -0.0001480 -0.0000449 0.0048795 0.0028317 -0.0003750 0.0004701 -0.0001386 0.0002738 -0.0003405 0.0003637 -0.0120975 0.0195120 0.0001892 0.0005792 -0.0001559 0.0003867 0.0016654 -0.0012435 0.0085217 -0.0201845 0.0013940 -0.0012595 0.0002741 0.0005113 -0.0000542 0.0001659 -0.0001359 0.0003076 -0.0001327 0.0003839 -0.0000931 0.0002561 0.0004708 -0.0006436
0.0000392 -0.0000309 0.0000408 -0.0000453 0.0001083 -0.0001092 -0.0000539 0.0001117 -0.0000712 0.0006408 0.0000196 0.0000687 0.0000093 0.0000230 -0.0000631 0.0003559 -0.0000266 -0.0000267 0.0001754 -0.0001633 0.0001056 -0.0001989 0.0001760 -0.0001510 0.0001192 -0.0005448 -0.0000232 0.0004970 0.0000275 0.0001635 -0.0000266 0.0007549 0.0001616 -0.0000156 0.0001760 -0.0002078 0.0000833 0.0002782 -0.0002129 0.0002291 0.0001786 -0.0001210 0.0000165 0.0000877 0.0000426 0.0000748 -0.0000004 0.0003036 0.0000569 0.0001008 -0.0001051 0.0001866 -0.0000535 0.0002984 -0.0001434 0.0001523 -0.0001743 0.0003026 -0.0000766 0.0001663 -0.0002023 0.0002323 0.0003539 -0.0003188 -0.0000438 -0.0001623 -0.0000287 0.0002564 -0.0001168 0.0000430 -0.0000440 0.0004754 -0.0001911 0.0003259 -0.0005890 0.0008952 0.0002271 0.0000623 -0.0000749 0.0003391 0.0011605 -0.0001273 0.0000153 -0.0001579 -0.0000026 0.0003488 -0.0009880 0.0017029 0.0000694 0.0001000 -0.0000134 0.0003131 0.0002831 -0.0014198 0.0005552 0.0001886 -0.0000967 0.0009317 -0.0016260 0.0009565 0.0000187 0.0004538 0.0030983 -0.0133345 -0.0001332 0.0006480 -0.0003428 0.0004653 -0.0001378 0.0001230 -0.0001820 0.0003852 -0.0000979 0.0002078 -0.0001254 0.0003622 -0.0001529 0.0002978 0.0003039 -0.0000647 0.0000714 -0.0006583 -0.0000088 0.0004274 0.0001504 0.0003940 -0.0000752 0.0002753 0.0005049 0.0012312 0.0003024 0.0004452 -0.0127253 0.0046300 0.0001933 -0.0000131 -0.0012133 0.0014375 -0.0010577 0.0011921 0.0000967 -0.0000346 0.0000257 0.0002703 -0.0001427 0.0004022 0.0002736 0.0001895 -0.0003426 0.0016321 0.0010504 -0.0000084 -0.0016218 0.0005544 0.0002085 0.0012147 -0.0001615 0.0003927 0.0000247 0.0002326 0.0001548 0.0003833 0.0000850 -0.0000633 -0.0000189 0.0001542 -0.0000482 0.0006559 0.0007135 0.0020008 -0.0000541 0.0009542 -0.0001580 0.0009797 0.0017501 0.0015518 0.0004439 -0.0003161 0.0000067 0.0002810 0.0001361 0.0009111 -0.0001955 0.0002691 -0.0025979 0.0041276 -0.0000726 0.0000694 -0.0001130 0.0002952 0.0001262 0.0003275 -0.0036844 0.0067847 0.0005254 0.0000572 -0.0001713 0.0004611 0.0005188 -0.0001148 0.0030622 -0.0120899 0.0002790 -0.0002494 -0.0005468 0.0009679 -0.0001043 0.0002984 -0.0001289 0.0003503 -0.0001414 0.0005148 -0.0000679 0.0003313 0.0002150 -0.0004782
0.0000277 0.0000171 0.0000173 0.0000185 0.0000927 -0.0000356 -0.0000492 0.0001267 -0.0000707 0.0007059 -0.0000253 0.0001778 -0.0000204 0.0001053 -0.0000659 0.0004024 -0.0000325 -0.0000283 0.0001833 -0.0001327 0.0000562 -0.0000756 0.0001729 -0.0000968 0.0000676 -0.0004793 -0.0000275 0.0006199 -0.0000009 0.0002786 -0.0000362 0.0008684 0.0001406 0.0000757 0.0001793 -0.0001512 0.0000702 0.0003370 -0.0001307 0.0003349 0.0001694 -0.0000735 -0.0000647 0.0001771 0.0000525 0.0001455 0.0000007 0.0003117 0.0000998 0.0000442 -0.0001136 0.0001582 -0.0000398 0.0002756 -0.0001384 0.0001176 -0.0001834 0.0002839 -0.0000705 0.0001019 -0.0002037 0.0002049 0.0002684 -0.0002266 0.0000528 -0.0002634 0.0000150 0.0001391 0.0007768 -0.0006860 -0.0000450 0.0004361 -0.0001442 0.0002267 0.0002184 0.0001638 0.0002083 -0.0000511 -0.0000357 0.0002259 -0.0011609 0.0003933 0.0000450 -0.0001992 -0.0000181 0.0003440 -0.0009803 0.0009179 -0.0000032 -0.0000542 0.0000099 0.0001477 -0.0018748 0.0009378 0.0005877 0.0001094 -0.0001337 0.0002564 -0.0025794 0.0018442 -0.0001689 0.0004751 -0.0055976 -0.0096601 -0.0000603 0.0004141 -0.0000953 0.0001952 -0.0001312 0.0000480 -0.0003825 0.0004102 -0.0001012 0.0001558 -0.0003464 0.0003778 -0.0001630 0.0001997 0.0002753 -0.0000344 -0.0001941 -0.0002080 -0.0000344 0.0000692 0.0002233 0.0005503 -0.0002115 0.0003264 0.0001359 0.0015177 0.0005393 -0.0000263 -0.0018730 -0.0022597 0.0000863 -0.0000505 0.0009807 -0.0008625 -0.0009201 0.0005064 0.0000403 -0.0000614 0.0000488 0.0001715 0.0004162 -0.0001320 0.0001408 0.0002701 0.0018579 -0.0019597 0.0018969 -0.0004992 -0.0004346 0.0022434 0.0005058 0.0003889 -0.0002405 0.0003891 -0.0008700 0.0009072 -0.0001099 0.0006464 0.0005970 -0.0004701 -0.0001224 0.0002186 -0.0002790 0.0006457 0.0031998 0.0001051 -0.0005390 0.0016059 -0.0003571 0.0014936 -0.0019873 0.0039342 0.0001182 0.0002055 -0.0000489 0.0002883 -0.0003318 0.0008752 -0.0000575 0.0003315 -0.0023655 -0.0075711 0.0000516 -0.0000757 -0.0000429 0.0000805 -0.0003679 0.0006894 -0.0050776 0.0073861 -0.0006624 0.0009722 -0.0002057 0.0004822 0.0004851 -0.0009787 0.0139295 -0.0226665 0.0029741 -0.0026091 -0.0007644 0.0008409 -0.0001146 0.0002455 -0.0001723 0.0003468 -0.0000300 0.0003131 -0.0000543 0.0003200 -0.0000552 0.0001495
0.0000247 0.0000037 0.0000073 0.0000307 0.0000984 -0.0000417 -0.0000581 0.0001230 -0.0000826 0.0007127 -0.0000191 0.0001589 -0.0000244 0.0000974 -0.0000635 0.0003854 -0.0000184 0.0000040 0.0001972 -0.0001426 0.0000544 -0.0000902 0.0001670 -0.0000916 0.0001072 -0.0004606 -0.0000268 0.0006174 0.0000144 0.0002703 -0.0000395 0.0008858 0.0001449 0.0000851 0.0001937 -0.0001584 0.0000535 0.0003591 -0.0005464 0.0008047 0.0001553 -0.0000476 -0.0001452 0.0001875 0.0000124 0.0002564 0.0000001 0.0003190 -0.0001079 0.0002453 -0.0001357 0.0001818 -0.0000470 0.0002708 -0.0001522 0.0001258 -0.0001831 0.0002717 -0.0000721 0.0001327 -0.0002152 0.0002057 0.0003324 -0.0002553 0.0000429 -0.0002618 0.0001526 -0.0000003 0.0007136 -0.0005793 -0.0000474 0.0004415 -0.0002487 0.0002646 -0.0007357 0.0005964 0.0000987 0.0000442 0.0000437 0.0001740 -0.0039902 0.0035009 0.0003087 -0.0002950 -0.0000392 0.0003467 -0.0012034 0.0009134 0.0002322 -0.0002376 -0.0000099 0.0001681 0.0038742 -0.0045710 0.0004545 0.0002708 -0.0009458 0.0008118 -0.0037516 0.0031842 -0.0000841 0.0004550 -0.0082709 -0.0020110 0.0000122 0.0004099 -0.0000063 0.0001242 -0.0001346 0.0000467 -0.0005730 0.0003858 -0.0001053 0.0001768 -0.0000906 0.0001684 -0.0001540 0.0002049 0.0003010 -0.0000321 -0.0002205 -0.0001693 -0.0000812 0.0002728 0.0002595 0.0000020 -0.0001616 0.0002636 0.0006416 0.0002044 0.0003721 0.0000758 0.0028700 -0.0065996 -0.0001826 0.0003647 0.0009950 -0.0025215 -0.0003810 0.0001477 0.0000854 -0.0001010 -0.0000224 0.0002243 0.0004752 0.0000289 -0.0000808 0.0004591 0.0043782 -0.0055959 0.0017319 0.0000783 0.0018957 0.0006962 -0.0021290 0.0024904 -0.0002157 0.0003514 -0.0012691 0.0014363 -0.0004349 0.0007973 0.0004436 0.0001499 -0.0000964 0.0001722 -0.0001093 0.0004351 0.0050034 -0.0043341 -0.0001534 0.0013463 -0.0006307 0.0021094 -0.0007200 0.0020359 -0.0008608 0.0015665 -0.0000807 0.0002730 0.0001084 0.0005796 -0.0000083 0.0000824 0.0073186 -0.0059244 0.0001155 -0.0000424 -0.0000758 0.0000194 -0.0009484 0.0007383 -0.0050176 0.0135849 -0.0014400 0.0007697 -0.0001849 0.0003670 0.0004739 -0.0007514 0.0196037 -0.0301172 0.0043068 -0.0035607 -0.0003460 0.0000247 -0.0000629 0.0000797 -0.0001548 0.0002015 0.0004455 -0.0004777 -0.0000379 0.0001008 0.0002406 -0.0004909
0.0000450 -0.0000863 0.0000093 -0.0000295 0.0001047 -0.0001269 -0.0000634 0.0000455 -0.0000860 0.0006319 -0.0000070 -0.0000593 0.0000191 -0.0000672 -0.0000532 0.0002957 -0.0000062 -0.0000343 0.0002089 -0.0002301 0.0001128 -0.0002776 0.0001729 -0.0001438 0.0001733 -0.0005490 -0.0000314 0.0004353 0.0000367 0.0000992 -0.0000314 0.0007114 0.0001725 -0.0001287 0.0002082 -0.0003243 0.0000580 0.0002479 -0.0006817 0.0008855 0.0001635 -0.0001626 -0.0000848 0.0000420 -0.0001084 0.0002064 0.0000029 0.0002683 -0.0001433 0.0003095 -0.0001431 0.0001094 -0.0000565 0.0002148 -0.0001085 0.0000411 -0.0001789 0.0002026 -0.0000444 0.0000376 -0.0002104 0.0001356 0.0003762 -0.0003580 0.0000855 -0.0003389 0.0002741 -0.0001294 0.0000384 -0.0001837 -0.0000662 0.0003928 -0.0002280 0.0001414 -0.0023199 0.0021156 0.0000543 0.0001064 0.0001048 -0.0000306 0.0008122 -0.0001416 0.0002180 -0.0002559 -0.0000153 0.0002506 -0.0001942 0.0004438 0.0003205 -0.0004318 0.0000560 -0.0000081 -0.0030764 -0.0006001 0.0006454 -0.0004953 0.0001749 0.0003005 -0.0037532 0.0028176 -0.0000459 0.0003689 0.0145209 -0.0320124 -0.0000343 0.0003752 -0.0001229 0.0001666 -0.0001432 0.0000181 -0.0003271 0.0002242 -0.0001056 0.0001513 0.0003593 -0.0002372 -0.0001498 0.0001657 0.0003382 -0.0001809 -0.0000139 -0.0005004 0.0001886 0.0000877 0.0015608 -0.0018441 -0.0001158 0.0002098 0.0014335 -0.0008819 0.0002638 0.0001881 0.0032403 -0.0054721 0.0000175 0.0001616 -0.0038781 0.0029539 0.0012986 -0.0007050 0.0000905 -0.0001677 -0.0000840 0.0002365 0.0004025 0.0000881 0.0001248 0.0001059 0.0031108 -0.0032825 0.0001158 0.0010324 0.0000087 0.0020608 -0.0029307 0.0029734 -0.0001334 0.0002795 -0.0010576 0.0011119 -0.0001346 0.0003790 0.0005591 -0.0002523 -0.0000017 0.0000306 0.0000647 0.0003013 -0.0034249 0.0032648 0.0001091 0.0009224 0.0008687 0.0005623 0.0047438 -0.0024950 0.0000914 0.0006649 0.0000190 0.0001578 0.0006836 0.0003343 -0.0001397 0.0000841 0.0045347 -0.0027419 -0.0003611 0.0001582 -0.0000623 0.0000433 -0.0004630 0.0004352 -0.0004954 0.0107553 -0.0008155 0.0004369 -0.0000772 0.0002144 -0.0001039 0.0000388 0.0027625 -0.0045766 0.0003023 -0.0009175 -0.0002699 -0.0000761 -0.0000818 0.0001430 -0.0001155 0.0001487 0.0003978 -0.0004121 -0.0000775 0.0001751 0.0001278 -0.0009619
0.0000545 -0.0000824 0.0000106 -0.0000216 0.0001067 -0.0001178 -0.0000611 0.0000336 -0.0000821 0.0006420 0.0000116 -0.0000704 0.0000358 -0.0000728 -0.0000532 0.0002952 -0.0000166 -0.0000396 0.0002035 -0.0002006 0.0001328 -0.0002859 0.0001698 -0.0001422 0.0001166 -0.0004784 -0.0000403 0.0004564 0.0000233 0.0001168 -0.0000336 0.0007330 0.0001900 -0.0001661 0.0002122 -0.0003308 0.0000657 0.0002473 -0.0003292 0.0007716 0.0001689 -0.0001536 -0.0001165 0.0001244 -0.0000343 0.0000469 0.0000007 0.0002794 0.0000591 0.0001046 -0.0001389 0.0001027 -0.0000670 0.0002177 -0.0000748 0.0000222 -0.0001849 0.0002109 -0.0000155 0.0000162 -0.0001968 0.0001127 0.0002822 -0.0003172 0.0001858 -0.0003808 0.0001574 0.0000318 -0.0003879 0.0003530 -0.0000950 0.0004127 -0.0003185 0.0001929 -0.0012905 0.0015280 0.0000734 0.0001221 0.0000859 -0.0000334 0.0013429 -0.0028941 0.0000769 -0.0000994 0.0000001 0.0002047 0.0005020 -0.0004028 0.0001164 -0.0002755 0.0000724 -0.0000813 -0.0020839 -0.0038455 0.0004941 -0.0011551 0.0008346 -0.0000576 0.0006784 0.0010053 -0.0000484 0.0003039 0.0072233 0.0083009 -0.0000543 0.0002846 -0.0000013 0.0000615 -0.0001482 -0.0000205 -0.0001873 0.0001401 -0.0001170 0.0001175 0.0003259 -0.0002684 -0.0001704 0.0000763 0.0003727 -0.0003227 0.0001335 -0.0005617 0.0009142 -0.0009138 0.0010559 -0.0007227 -0.0001924 0.0002521 0.0009111 -0.0004279 0.0001081 0.0002002 0.0048794 -0.0045787 0.0006095 -0.0006096 -0.0068182 0.0070508 0.0026983 -0.0004268 0.0001035 -0.0003469 -0.0000534 0.0000346 0.0001093 0.0000980 0.0003279 -0.0003563 0.0007940 -0.0004855 0.0000019 0.0008259 0.0012792 0.0002889 -0.0008088 0.0006650 -0.0000903 0.0001418 -0.0013490 0.0013962 0.0000379 -0.0000809 -0.0000296 -0.0005365 0.0000223 -0.0001566 0.0000363 0.0000421 -0.0110657 0.0088763 -0.0002087 0.0011716 0.0008657 -0.0003205 0.0048722 -0.0035650 0.0010015 -0.0004145 0.0000231 -0.0000410 0.0006013 -0.0001073 -0.0001790 -0.0001267 -0.0072418 0.0110470 -0.0009104 0.0005908 -0.0001260 -0.0000929 0.0000704 -0.0001773 0.0069405 -0.0073286 0.0005763 -0.0006973 -0.0000841 0.0000999 -0.0003310 0.0007781 -0.0011721 -0.0028439 -0.0008932 -0.0008151 -0.0003446 0.0003231 -0.0000868 0.0000217 -0.0000934 0.0000451 0.0001548 -0.0002151 -0.0000444 0.0000371 0.0002680 -0.0009085
0.0000664 -0.0001359 0.0000292 -0.0000707 0.0001147 -0.0001509 -0.0000479 -0.0000034 -0.0000859 0.0006142 0.0000825 -0.0001491 0.0000471 -0.0001246 -0.0000453 0.0002504 0.0000014 -0.0000461 0.0002114 -0.0002074 0.0001617 -0.0003292 0.0002049 -0.0002187 0.0001451 -0.0005232 -0.0000391 0.0004174 0.0000165 0.0000576 -0.0000416 0.0007063 0.0002131 -0.0002376 0.0002382 -0.0003713 0.0000730 0.0002153 -0.0006239 0.0009109 0.0001612 -0.0001411 -0.0000450 0.0000791 0.0000930 -0.0000513 0.0000036 0.0002711 0.0001901 -0.0001048 -0.0001372 0.0001082 -0.0000759 0.0002233 -0.0000642 0.0000175 -0.0001861 0.0002129 -0.0000126 0.0000359 -0.0002016 0.0001034 0.0003521 -0.0004250 0.0002292 -0.0004081 0.0000811 0.0000409 -0.0000802 0.0002628 -0.0000950 0.0004109 -0.0002177 0.0001316 -0.0007863 0.0008321 0.0000938 0.0001561 0.0000400 0.0000503 -0.0011052 -0.0016344 0.0002572 -0.0002580 -0.0000391 0.0002016 0.0000756 0.0006471 0.0002935 -0.0003548 -0.0000623 -0.0000711 0.0031823 -0.0062698 0.0002961 -0.0010321 0.0006149 0.0002389 0.0072859 -0.0068227 -0.0001067 0.0004195 0.0007933 0.0181266 0.0000780 0.0002398 -0.0000069 -0.0000662 -0.0001623 -0.0000180 -0.0000428 -0.0000224 -0.0001229 0.0001391 -0.0001336 0.0001053 -0.0001588 0.0000713 0.0003009 -0.0001313 0.0000928 -0.0004372 0.0010397 -0.0009257 -0.0008604 0.0014784 -0.0002547 0.0003113 0.0003953 0.0002286 0.0003260 0.0001237 -0.0025330 0.0049030 0.0005116 -0.0003665 -0.0052141 0.0055548 0.0014747 0.0006099 0.0000666 -0.0002725 -0.0000043 -0.0000625 -0.0005184 0.0006023 0.0001639 -0.0001801 -0.0001770 0.0007803 0.0014230 -0.0002525 0.0045923 -0.0055078 -0.0001533 0.0015855 -0.0000970 0.0001336 0.0001445 0.0000615 0.0000299 -0.0000807 -0.0005788 0.0005307 -0.0000411 -0.0000100 -0.0000124 0.0000456 -0.0067158 0.0039410 -0.0002783 0.0014187 -0.0000675 0.0005333 0.0045128 -0.0039644 -0.0002715 0.0009126 -0.0000029 -0.0000347 0.0003840 -0.0001236 -0.0000913 -0.0001041 0.0010474 0.0017259 -0.0001662 -0.0000981 -0.0000975 -0.0001791 0.0001439 -0.0001768 -0.0028163 -0.0056540 0.0010500 -0.0011163 -0.0001128 0.0000877 0.0011093 -0.0003255 0.0105910 -0.0200958 0.0010655 -0.0019845 -0.0001702 0.0000262 -0.0000276 -0.0000788 -0.0000806 0.0000111 0.0001795 -0.0003265 0.0000021 -0.0000728 -0.0001629 -0.0007263
0.0000871 -0.0001720 0.0000382 -0.0000950 0.0001181 -0.0001619 -0.0000354 -0.0000304 -0.0000931 0.0006058 0.0001098 -0.0002406 0.0000673 -0.0001835 -0.0000295 0.0002245 0.0000155 -0.0001331 0.0002318 -0.0002698 0.0001517 -0.0003454 0.0002385 -0.0002670 0.0002065 -0.0006350 -0.0000334 0.0003365 0.0000356 -0.0000401 -0.0000415 0.0005992 0.0002291 -0.0003388 0.0002465 -0.0004600 0.0000902 0.0001368 -0.0005357 0.0005523 0.0001527 -0.0002141 -0.0000102 0.0000103 0.0001259 -0.0001119 -0.0000007 0.0001968 0.0000236 0.0001367 -0.0001235 0.0000292 -0.0000646 0.0001831 -0.0000696 -0.0000556 -0.0001855 0.0001353 0.0000270 -0.0000796 -0.0002158 0.0000416 0.0003263 -0.0004712 0.0002100 -0.0004947 0.0000813 -0.0001252 0.0003563 -0.0001946 -0.0000767 0.0003219 -0.0001453 0.0000618 0.0004998 0.0002266 0.0001038 0.0000226 0.0000454 -0.0000492 0.0002725 -0.0021560 0.0003370 -0.0004204 -0.0000397 0.0001005 0.0000870 0.0006566 0.0003884 -0.0002556 0.0000443 -0.0003665 -0.0017137 -0.0014197 0.0002082 -0.0008818 0.0006474 -0.0001872 -0.0036623 0.0017522 0.0000523 0.0002310 0.0032627 -0.0018761 0.0001319 0.0001747 0.0000530 -0.0002524 -0.0001605 -0.0000273 -0.0001177 0.0000584 -0.0001231 0.0001294 -0.0002485 0.0002382 -0.0001333 0.0000047 0.0002948 -0.0001639 0.0000101 -0.0004438 0.0008136 -0.0007791 -0.0009376 0.0014676 -0.0001947 0.0002237 -0.0015000 0.0010107 -0.0000713 0.0001368 -0.0064388 0.0080900 0.0001451 -0.0000604 -0.0017442 0.0007163 0.0000898 0.0010725 0.0000478 -0.0002727 0.0000443 -0.0001911 -0.0004369 0.0007852 0.0002382 -0.0004052 0.0005435 0.0012645 0.0013806 -0.0007176 0.0018886 -0.0044177 0.0004532 0.0007792 0.0000022 0.0000106 0.0009393 -0.0009934 0.0000351 -0.0000511 -0.0001025 -0.0002018 -0.0000839 0.0000109 -0.0000315 0.0003016 -0.0022790 0.0010435 0.0002127 0.0008910 -0.0001385 0.0006631 0.0010022 0.0003108 -0.0008370 0.0011487 -0.0000366 0.0000484 0.0006178 -0.0002737 0.0001406 -0.0000519 -0.0008630 0.0018686 0.0005367 -0.0009307 0.0000037 -0.0002301 -0.0003869 0.0005252 -0.0103514 0.0166610 -0.0002333 0.0003417 -0.0000795 -0.0000076 0.0010846 -0.0008409 0.0021858 -0.0028311 -0.0002788 -0.0003418 0.0000421 -0.0001828 -0.0000419 -0.0000391 -0.0000647 -0.0000063 -0.0000329 0.0001739 -0.0000503 0.0000577 0.0002742 -0.0008075
0.0001061 -0.0001402 0.0000332 -0.0000595 0.0001276 -0.0001317 -0.0000285 0.0000220 -0.0000963 0.0006599 0.0001277 -0.0001557 0.0000779 -0.0001361 -0.0000285 0.0002599 0.0000306 -0.0001626 0.0002563 -0.0002633 0.0001426 -0.0002888 0.0002046 -0.0002110 0.0001878 -0.0005742 -0.0000360 0.0004131 0.0000425 0.0000252 -0.0000564 0.0006051 0.0002328 -0.0002684 0.0002214 -0.0003916 0.0000846 0.0001613 0.0001548 -0.0001214 0.0001473 -0.0001840 -0.0000714 0.0001315 0.0002014 -0.0000817 -0.0000219 0.0001864 -0.0000644 0.0002719 -0.0001333 0.0001026 -0.0000658 0.0002330 -0.0000793 -0.0000300 -0.0002073 0.0001496 0.0000286 -0.0000287 -0.0002148 0.0000185 0.0003693 -0.0004385 0.0000722 -0.0003837 0.0001953 -0.0001782 0.0005119 -0.0003873 -0.0000704 0.0003104 -0.0002699 0.0001443 0.0010849 -0.0002778 0.0001639 -0.0000765 0.0000012 -0.0000113 0.0006747 -0.0013954 0.0001974 -0.0003733 -0.0000291 0.0000791 0.0002978 -0.0001799 0.0004745 -0.0003022 0.0001137 -0.0004335 -0.0083430 0.0039424 0.0009787 -0.0015564 0.0002562 -0.0001610 -0.0055679 0.0022074 -0.0000036 0.0001663 0.0006420 0.0082700 0.0000349 0.0002131 0.0002656 -0.0002253 -0.0001514 -0.0000031 -0.0000787 0.0001040 -0.0001270 0.0001195 -0.0001928 0.0003385 -0.0001527 -0.0000382 0.0005083 -0.0005210 0.0001406 -0.0005578 0.0005960 -0.0005992 0.0008918 -0.0002209 -0.0001099 0.0001788 -0.0038088 0.0027620 -0.0001141 -0.0000706 0.0054381 -0.0041564 0.0002588 -0.0002740 -0.0023896 0.0014134 -0.0009803 0.0015510 0.0001218 -0.0004828 0.0000478 -0.0003141 0.0003213 -0.0001951 0.0003324 -0.0006059 0.0013737 0.0001585 0.0003427 -0.0008116 -0.0003831 0.0008869 -0.0002492 -0.0003895 0.0000068 -0.0000836 -0.0000451 -0.0001930 0.0002986 -0.0004355 0.0001488 -0.0010600 -0.0000287 -0.0001830 -0.0001733 0.0004463 -0.0002940 0.0008791 0.0005169 0.0001927 0.0003171 0.0001348 -0.0020719 0.0027568 -0.0004481 0.0006125 -0.0001195 0.0000090 0.0007509 -0.0004535 -0.0000162 -0.0001747 -0.0070310 0.0111342 -0.0002156 -0.0002487 -0.0001693 -0.0001099 -0.0006217 0.0004413 0.0048386 0.0033074 -0.0006440 0.0005979 -0.0001062 -0.0001379 0.0013561 -0.0008606 -0.0021006 -0.0049353 -0.0008386 -0.0002205 -0.0005586 0.0004346 -0.0000445 -0.0000715 -0.0000289 -0.0001201 -0.0001297 0.0002578 -0.0000561 -0.0000005 0.0013572 -0.0012653
0.0001019 -0.0001390 0.0000470 -0.0001043 0.0001398 -0.0001555 -0.0000303 0.0000569 -0.0000950 0.0006656 0.0001432 -0.0001195 0.0000990 -0.0001580 -0.0000317 0.0002605 0.0000588 -0.0001342 0.0002803 -0.0002687 0.0001599 -0.0002756 0.0001917 -0.0002068 0.0002409 -0.0006167 -0.0000344 0.0004221 0.0000336 0.0000339 -0.0000738 0.0005267 0.0002253 -0.0002667 0.0002291 -0.0003776 0.0000702 0.0001584 0.0001173 0.0000675 0.0001595 -0.0001939 -0.0000412 0.0001508 0.0002327 -0.0000480 -0.0000298 0.0001619 0.0001119 0.0001012 -0.0001403 0.0001563 -0.0000751 0.0002672 -0.0000653 0.0000208 -0.0002324 0.0001820 0.0000083 0.0000528 -0.0002161 0.0000310 0.0004301 -0.0005182 0.0000223 -0.0002792 0.0002963 -0.0002420 -0.0002502 0.0001970 -0.0000734 0.0003633 -0.0002251 0.0001469 -0.0000683 -0.0002638 0.0001080 0.0000561 -0.0000111 -0.0000175 -0.0007637 0.0001696 0.0002368 -0.0003848 -0.0000248 0.0001010 0.0001487 -0.0003624 0.0003069 -0.0003298 0.0000265 -0.0002672 0.0016263 -0.0014613 0.0016202 -0.0014044 0.0001041 0.0000080 0.0063874 -0.0065960 -0.0002764 0.0004675 0.0005983 0.0107232 0.0000835 0.0003430 0.0001628 -0.0000341 -0.0001507 0.0000516 0.0001148 -0.0000227 -0.0001202 0.0001592 -0.0001277 0.0005185 -0.0001622 0.0000309 0.0004763 -0.0004316 0.0003301 -0.0005108 -0.0002249 0.0001994 0.0011563 -0.0002541 -0.0000849 0.0001740 -0.0008276 0.0020013 0.0002350 -0.0000599 0.0040991 -0.0032392 0.0002033 -0.0003238 0.0008842 0.0007114 -0.0003157 0.0005082 0.0001544 -0.0005704 0.0000347 -0.0003198 0.0005456 -0.0007609 0.0000744 -0.0003439 0.0011875 -0.0006749 0.0014012 -0.0012514 -0.0001009 0.0033093 -0.0009071 0.0006895 -0.0000734 -0.0000930 -0.0007791 0.0002849 0.0005861 -0.0007742 0.0004693 -0.0011225 0.0000062 -0.0002051 -0.0000744 0.0002445 0.0002669 0.0026452 0.0005275 -0.0001373 0.0009455 0.0001496 -0.0052969 0.0047034 -0.0003355 0.0002061 -0.0001116 -0.0001669 0.0000838 0.0001971 -0.0001160 -0.0004490 -0.0065631 0.0079226 -0.0006088 0.0001198 -0.0001731 -0.0000932 0.0004374 -0.0005135 0.0012472 0.0024837 0.0006748 -0.0007653 -0.0001150 -0.0001765 0.0009487 -0.0008374 0.0059802 -0.0237184 -0.0010795 0.0003431 -0.0007557 0.0004764 0.0000074 -0.0001692 -0.0000423 -0.0001440 0.0000122 -0.0001466 0.0000110 -0.0001875 0.0005931 -0.0008421
0.0000970 -0.0001953 0.0000487 -0.0001714 0.0001452 -0.0002322 -0.0000159 -0.0000122 -0.0000933 0.0006413 0.0001330 -0.0001942 0.0001161 -0.0002505 -0.0000231 0.0002355 0.0000879 -0.0001712 0.0002886 -0.0003286 0.0001588 -0.0003218 0.0001858 -0.0002499 0.0003486 -0.0007776 -0.0000413 0.0003427 0.0000342 -0.0000642 -0.0000779 0.0003978 0.0002225 -0.0003895 0.0002446 -0.0005166 0.0000903 0.0000594 0.0002500 0.0001807 0.0001789 -0.0002958 0.0000716 -0.0000135 0.0002344 -0.0001625 -0.0000197 0.0000922 -0.0000042 0.0001954 -0.0001240 0.0000298 -0.0000779 0.0001714 -0.0000523 -0.0000293 -0.0002468 0.0001469 0.0000293 -0.0000320 -0.0002023 0.0000185 0.0003819 -0.0005808 0.0001663 -0.0005049 0.0002212 -0.0003709 -0.0001469 -0.0001720 -0.0000633 0.0003529 -0.0003264 0.0001981 0.0001450 0.0000323 0.0000396 0.0000496 0.0001027 -0.0001432 0.0002664 -0.0016298 0.0003766 -0.0005975 -0.0000167 0.0000362 -0.0000109 -0.0000918 -0.0001625 -0.0000798 0.0000577 -0.0004442 0.0052050 -0.0053829 0.0003815 -0.0000930 0.0005815 -0.0004915 -0.0022030 0.0026045 0.0000475 0.0003087 0.0019454 -0.0015662 0.0001941 0.0003092 0.0000774 -0.0000302 -0.0001534 0.0000523 -0.0002207 0.0003061 -0.0001134 0.0001688 -0.0002961 0.0005922 -0.0001483 0.0000049 0.0003972 -0.0003707 0.0002881 -0.0004770 -0.0004368 0.0005978 0.0009816 -0.0007243 -0.0000755 0.0001656 0.0001603 0.0009393 0.0001302 0.0002720 -0.0122602 0.0084326 0.0000975 -0.0003834 0.0019219 -0.0011948 0.0003643 -0.0001577 0.0001805 -0.0005723 0.0000513 -0.0003461 0.0003759 -0.0002114 0.0001315 -0.0004646 0.0011717 -0.0018613 0.0018167 -0.0011679 0.0008913 0.0003222 -0.0012186 0.0010875 0.0000321 -0.0002010 0.0002546 -0.0007902 0.0004675 -0.0005629 0.0002963 -0.0010046 -0.0000169 -0.0001372 0.0002113 -0.0001733 0.0030047 -0.0012470 0.0006448 -0.0005150 -0.0003539 0.0008418 -0.0007562 -0.0002702 -0.0001940 -0.0001508 -0.0000709 -0.0002341 0.0000331 0.0002313 0.0000382 -0.0004052 -0.0138603 0.0179951 -0.0002862 -0.0004457 -0.0000278 -0.0001541 0.0001010 -0.0000733 -0.0033295 0.0151935 0.0004452 -0.0009488 -0.0000681 -0.0001681 -0.0005915 0.0010041 0.0059401 -0.0182690 0.0033238 -0.0022826 0.0001522 -0.0005392 0.0000053 -0.0000512 -0.0000401 -0.0000769 0.0000884 -0.0002221 0.0000148 -0.0000882 0.0000729 -0.0007182
0.0001087 -0.0001779 0.0000567 -0.0001691 0.0001389 -0.0002088 -0.0000127 -0.0000219 -0.0000933 0.0007144 0.0001340 -0.0001491 0.0001114 -0.0002206 -0.0000222 0.0003030 0.0000858 -0.0002183 0.0003048 -0.0003282 0.0001496 -0.0002774 0.0002120 -0.0002535 0.0002786 -0.0007380 -0.0000556 0.0004231 0.0000243 -0.0000106 -0.0000774 0.0004731 0.0002027 -0.0003610 0.0002436 -0.0005606 0.0001064 0.0000657 0.0006593 -0.0001680 0.0001804 -0.0003349 0.0001020 -0.0000575 0.0001063 -0.0000658 -0.0000163 0.0000638 -0.0000453 0.0002818 -0.0001215 -0.0000713 -0.0000799 0.0000835 -0.0000618 -0.0000646 -0.0002409 0.0001282 0.0000336 -0.0000928 -0.0001808 0.0000073 0.0004425 -0.0006642 0.0002540 -0.0007271 0.0002437 -0.0004277 0.0009836 -0.0012570 -0.0000392 0.0002998 -0.0002052 0.0000201 -0.0004112 0.0008385 -0.0000061 -0.0001155 0.0000143 -0.0001568 0.0020487 -0.0032829 0.0003049 -0.0008255 -0.0000206 -0.0000533 -0.0010355 0.0011512 0.0001663 -0.0006038 0.0000739 -0.0007133 -0.0036375 -0.0000221 0.0007379 -0.0014155 0.0006945 -0.0002759 -0.0060068 0.0036984 0.0003269 0.0000195 0.0154825 -0.0342260 0.0001411 0.0002408 0.0001335 -0.0002462 -0.0001638 0.0000023 -0.0003443 0.0004886 -0.0001200 0.0001260 -0.0005164 0.0005197 -0.0001251 -0.0001592 0.0003269 -0.0004419 0.0001217 -0.0006265 -0.0004977 0.0003600 0.0008438 -0.0010998 -0.0000715 0.0001401 -0.0006301 0.0004887 0.0002794 -0.0002759 -0.0129941 0.0088712 0.0002579 -0.0005550 0.0006064 -0.0026995 -0.0008267 0.0000045 0.0001608 -0.0007148 0.0000889 -0.0005043 0.0002186 -0.0001764 0.0002326 -0.0006702 -0.0003175 -0.0007534 -0.0005608 0.0007414 0.0026874 -0.0034030 -0.0017873 0.0003612 -0.0000241 -0.0002382 0.0000609 -0.0005702 0.0005108 -0.0007877 -0.0001914 -0.0004551 0.0000322 -0.0002877 0.0000782 -0.0001671 -0.0022546 0.0007597 0.0005873 -0.0004761 0.0000326 -0.0006373 0.0029384 -0.0032233 -0.0001533 -0.0002380 -0.0000058 -0.0003172 0.0001302 -0.0000682 -0.0001776 -0.0002708 0.0024441 0.0068261 -0.0002468 -0.0003020 -0.0000019 -0.0001305 -0.0005072 0.0002573 0.0071642 -0.0054119 -0.0005580 -0.0000360 -0.0000424 -0.0002434 -0.0012579 0.0019508 0.0027570 -0.0149008 0.0040287 -0.0038137 0.0002168 -0.0005270 0.0000228 0.0000014 -0.0000557 -0.0000342 0.0000698 -0.0002522 -0.0000229 -0.0000655 0.0000456 -0.0005737
