-0.0000000 -0.0000000 -0.0000000 -0.0000000 -0.0000000 -0.0000000 -0.0000000 -0.0000000 -0.0000000 -0.0000000 -0.0000000 -0.0000000 -0.0000000 -0.0000000 -0.0000000 -0.0000000 -0.0000000 -0.0000000 -0.0000000 -0.0000000 -0.0000000 -0.0000000 -0.0000000 -0.0000000 -0.0000000 -0.0000000 -0.0000000 -0.0000000 -0.0000000 -0.0000000 -0.0000000 -0.0000000 -0.0000000 -0.0000000 -0.0000000 -0.0000000 -0.0000000 -0.0000000 -0.0000000 -0.0000000 -0.0000000 -0.0000000 -0.0000000 -0.0000000 -0.0000000 -0.0000000 -0.0000000 -0.0000000 -0.0000000 -0.0000000 -0.0000000 -0.0000000 -0.0000000 -0.0000000 -0.0000000 -0.0000000 -0.0000000 -0.0000000 -0.0000000 -0.0000000 -0.0000000 -0.0000000 -0.0000000 -0.0000000 -0.0000000 -0.0000000 -0.0000000 -0.0000000 -0.0000000 -0.0000000 -0.0000000 -0.0000000 -0.0000000 -0.0000000 -0.0000000 -0.0000000 -0.0000000 -0.0000000 -0.0000000 -0.0000000 -0.0000000 -0.0000000 -0.0000000 -0.0000000 -0.0000000 -0.0000000 -0.0000000 -0.0000000 -0.0000000 -0.0000000 -0.0000000 -0.0000000 -0.0000000 -0.0000000 -0.0000000 -0.0000000 -0.0000000 -0.0000000 -0.0000000 -0.0000000 -0.0000000 -0.0000000 -0.0000000 -0.0000000 -0.0000000 -0.0000000 -0.0000000 -0.0000000 -0.0000000 -0.0000000 -0.0000000 -0.0000000 -0.0000000 -0.0000000 -0.0000000 -0.0000000 -0.0000000 -0.0000000 -0.0000000 -0.0000000 -0.0000000 -0.0000000 -0.0000000 -0.0000000 -0.0000000 -0.0000000 -0.0000000 -0.0000000 -0.0000000 -0.0000000 -0.0000000 -0.0000000 -0.0000000 -0.0000000 -0.0000000 -0.0000000 -0.0000000 -0.0000000 -0.0000000 -0.0000000
-0.0000000 -0.0000000 -0.0000000 -0.0000000 -0.0000000 -0.0000000 -0.0000000 -0.0000000 -0.0000000 -0.0000000 -0.0000000 -0.0000000 -0.0000000 -0.0000000 -0.0000000 -0.0000000 -0.0000000 -0.0000000 -0.0000000 -0.0000000 -0.0000000 -0.0000000 -0.0000000 -0.0000000 -0.0000000 -0.0000000 -0.0000000 -0.0000000 -0.0000000 -0.0000000 -0.0000000 -0.0000000 -0.0000000 -0.0000000 -0.0000000 -0.0000000 -0.0000000 -0.0000000 -0.0000000 -0.0000000 -0.0000000 -0.0000000 -0.0000000 -0.0000000 -0.0000000 -0.0000000 -0.0000000 -0.0000000 -0.0000000 -0.0000000 -0.0000000 -0.0000000 -0.0000000 -0.0000000 -0.0000000 -0.0000000 -0.0000000 -0.0000000 -0.0000000 -0.0000000 -0.0000000 -0.0000000 -0.0000000 -0.0000000 -0.0000000 -0.0000000 -0.0000000 -0.0000000 -0.0000000 -0.0000000 -0.0000000 -0.0000000 -0.0000000 -0.0000000 -0.0000000 -0.0000000 -0.0000000 -0.0000000 -0.0000000 -0.0000000 -0.0000000 -0.0000000 -0.0000000 -0.0000000 -0.0000000 -0.0000000 -0.0000000 -0.0000000 -0.0000000 -0.0000000 -0.0000000 -0.0000000 -0.0000000 -0.0000000 -0.0000000 -0.0000000 -0.0000000 -0.0000000 -0.0000000 -0.0000000 -0.0000000 -0.0000000 -0.0000000 -0.0000000 -0.0000000 -0.0000000 -0.0000000 -0.0000000 -0.0000000 -0.0000000 -0.0000000 -0.0000000 -0.0000000 -0.0000000 -0.0000000 -0.0000000 -0.0000000 -0.0000000 -0.0000000 -0.0000000 -0.0000000 -0.0000000 -0.0000000 -0.0000000 -0.0000000 -0.0000000 -0.0000000 -0.0000000 -0.0000000 -0.0000000 -0.0000000 -0.0000000 -0.0000000 -0.0000000 -0.0000000 -0.0000000 -0.0000000 -0.0000000 -0.0000000 -0.0000000
0.0000143 0.0000643 -0.0000185 -0.0000356 -0.0000037 0.0001085 0.0000191 0.0000824 0.0000155 0.0000949 0.0000105 -0.0000244 0.0000204 0.0001126 -0.0000203 0.0000101 0.0000121 0.0000304 -0.0000278 0.0000575 -0.0000063 0.0000372 0.0000141 0.0000076 0.0000020 0.0001177 0.0000004 0.0000213 0.0000013 -0.0000477 -0.0000153 0.0001003 -0.0000093 -0.0000009 0.0000011 0.0000224 -0.0000015 0.0000081 -0.0000000 0.0000375 0.0000016 0.0000262 0.0000116 -0.0000566 0.0000327 0.0001802 0.0000320 -0.0002799 0.0001713 0.0004426 0.0000509 0.0001133 -0.0000259 -0.0001101 0.0000455 0.0001777 -0.0001221 0.0000715 0.0000904 0.0002663 0.0000537 0.0003797 0.0001116 -0.0002139 -0.0000032 0.0000095 0.0001440 0.0000173 0.0000287 0.0001081 0.0000021 -0.0001009 -0.0000135 -0.0001196 0.0000058 -0.0000958 -0.0000801 -0.0002136 0.0000167 -0.0001131 0.0000023 0.0000433 -0.0000017 -0.0001008 -0.0000190 -0.0001867 0.0000258 0.0000475 0.0000299 -0.0000362 -0.0000091 -0.0001475 -0.0000132 -0.0000852 -0.0000135 -0.0001832 -0.0000434 -0.0002807 -0.0000044 0.0001179 0.0000309 -0.0002942 -0.0000211 -0.0000825 0.0000141 -0.0001302 -0.0000503 -0.0003430 0.0000192 -0.0000852 -0.0001468 -0.0005440 0.0000965 -0.0001955 0.0000359 -0.0002062 0.0001619 0.0002378 0.0001504 0.0000540 0.0000635 -0.0001110 0.0000402 0.0000330 0.0001453 0.0001146 0.0000899 0.0001317 0.0003058 0.0005145 -0.0002219 -0.0003037 0.0001068 0.0003732 0.0002440 0.0004302 -0.0000169 -0.0001701 0.0000029 -0.0000870
0.0000075 -0.0000230 -0.0000190 -0.0003076 -0.0000500 0.0000090 0.0000165 -0.0000020 0.0000158 -0.0000065 0.0000561 -0.0002048 0.0000363 0.0001059 -0.0000319 -0.0001525 0.0000324 0.0000024 0.0000354 -0.0001456 -0.0000271 -0.0000420 0.0000029 -0.0000376 0.0000044 0.0001189 -0.0000093 -0.0000643 0.0000083 -0.0001829 -0.0000277 0.0001331 0.0000400 -0.0002329 0.0000120 -0.0000726 0.0000098 -0.0001772 -0.0000040 -0.0000308 0.0000059 -0.0000839 0.0001660 -0.0000430 0.0001153 0.0004068 0.0000134 -0.0009378 0.0011606 0.0025161 0.0000902 0.0002049 -0.0001040 -0.0007138 0.0001878 0.0006176 -0.0002378 -0.0001717 0.0003176 0.0001995 0.0003476 0.0006029 -0.0000323 0.0000690 0.0000398 0.0002140 -0.0000888 0.0004377 0.0000991 0.0004810 0.0000141 -0.0000827 -0.0000518 -0.0003701 -0.0000179 -0.0000448 -0.0000820 -0.0001420 0.0000036 -0.0002127 0.0000105 0.0001171 -0.0000283 -0.0002704 -0.0000833 -0.0003815 0.0000688 0.0002518 0.0000216 -0.0000322 -0.0000237 -0.0000985 -0.0001646 -0.0003485 -0.0000582 -0.0003982 -0.0001787 -0.0007932 -0.0000026 0.0002942 -0.0000398 -0.0004715 0.0000198 -0.0000590 -0.0000181 -0.0002417 0.0000069 -0.0003805 0.0000316 0.0000500 -0.0001510 -0.0004886 0.0001436 -0.0002379 0.0000759 -0.0000830 0.0002840 0.0005843 -0.0003685 -0.0001319 0.0000654 -0.0000731 0.0001046 0.0001266 0.0001495 0.0000628 0.0000733 -0.0000006 0.0003794 0.0006118 -0.0001903 -0.0003281 0.0001114 0.0003644 0.0002805 0.0005022 -0.0000173 -0.0001352 0.0000102 -0.0000507
-0.0000137 -0.0000423 -0.0000842 -0.0005793 -0.0001017 0.0000916 -0.0000004 0.0001311 0.0000198 0.0000718 0.0000253 -0.0002545 0.0000455 0.0001204 -0.0000448 -0.0001315 0.0001002 0.0000691 0.0000596 -0.0001596 -0.0000224 -0.0000216 0.0000417 -0.0000626 -0.0000070 0.0000363 -0.0000492 -0.0001314 0.0000033 -0.0000265 -0.0000649 0.0002340 -0.0000372 -0.0001315 -0.0000144 -0.0000119 0.0000320 -0.0001316 -0.0000026 -0.0000068 0.0000254 -0.0000407 0.0002604 0.0000911 0.0001604 0.0005788 0.0000710 -0.0013451 0.0019324 0.0041781 0.0001795 0.0003453 -0.0002726 -0.0013798 0.0004462 0.0011178 -0.0002958 -0.0007369 0.0003097 0.0002115 0.0004116 0.0006870 -0.0000268 0.0001026 0.0000483 0.0002999 -0.0001315 0.0005525 0.0001071 0.0006170 0.0000021 -0.0001061 -0.0000342 -0.0003711 -0.0000218 -0.0000620 -0.0000920 -0.0002078 -0.0000333 -0.0003736 -0.0000085 0.0000843 -0.0000256 -0.0003356 -0.0001213 -0.0004465 0.0000559 0.0002608 0.0000402 -0.0000687 -0.0000195 -0.0001138 -0.0001630 -0.0005169 -0.0000866 -0.0004859 -0.0001929 -0.0008733 -0.0000220 0.0001148 -0.0000833 -0.0006043 -0.0000023 -0.0000506 -0.0000336 -0.0003433 -0.0001138 -0.0003215 0.0000269 0.0000393 -0.0001432 -0.0005348 0.0001188 -0.0002879 0.0000035 -0.0002275 0.0002814 0.0005917 -0.0005987 -0.0001608 0.0000437 -0.0002959 0.0001056 0.0000199 0.0001791 0.0000490 0.0000602 -0.0000968 0.0003646 0.0004229 -0.0001727 -0.0004454 0.0001655 0.0001552 0.0002795 0.0002652 -0.0000662 -0.0004270 -0.0000051 -0.0002423
-0.0000261 -0.0000874 -0.0001427 -0.0006593 -0.0000937 0.0001236 0.0000063 0.0001888 0.0000144 0.0000267 0.0000428 -0.0004104 0.0000617 0.0000555 -0.0000549 -0.0001725 0.0001221 -0.0000209 0.0000435 -0.0002452 -0.0000228 -0.0000694 0.0000298 -0.0001451 0.0000050 -0.0001442 -0.0000535 -0.0001942 0.0000021 0.0000520 -0.0000009 0.0001152 -0.0000762 -0.0001149 0.0000214 -0.0000490 0.0000560 -0.0001683 -0.0000024 -0.0000435 0.0000337 -0.0000549 0.0003971 0.0002294 0.0001840 0.0006315 -0.0000035 -0.0012294 0.0017605 0.0040933 0.0002328 0.0002910 -0.0003710 -0.0016408 0.0005516 0.0010350 -0.0004258 -0.0009800 0.0002377 0.0001224 0.0003978 0.0006864 0.0002123 -0.0002287 0.0000383 0.0002114 0.0000479 0.0003229 0.0000962 0.0004873 -0.0000147 -0.0003360 -0.0000466 -0.0004089 -0.0000274 -0.0002410 -0.0001730 -0.0004618 -0.0000183 -0.0005380 -0.0000442 0.0000003 0.0000010 -0.0002894 -0.0000950 -0.0005362 0.0000700 0.0002508 -0.0000075 -0.0001087 -0.0000444 -0.0000946 -0.0001426 -0.0004417 -0.0000702 -0.0004265 -0.0001875 -0.0008692 -0.0000589 -0.0001342 -0.0000174 -0.0006530 -0.0000232 0.0001012 -0.0000287 -0.0004342 -0.0001516 -0.0002878 0.0000250 0.0001901 -0.0002545 -0.0007647 0.0002196 -0.0002581 -0.0000341 -0.0001289 0.0003754 0.0011343 -0.0014573 -0.0016781 0.0000558 -0.0000151 0.0000907 0.0002447 0.0002488 0.0002589 0.0000591 0.0000317 0.0002897 0.0004293 -0.0002489 -0.0008569 0.0001500 0.0001915 0.0002963 0.0004534 -0.0001339 -0.0007753 -0.0000627 -0.0003740
-0.0000373 -0.0002148 -0.0001040 -0.0007922 -0.0000683 0.0000723 0.0000294 0.0000768 -0.0000227 -0.0001386 0.0000090 -0.0006764 0.0000383 -0.0000538 -0.0000272 -0.0002672 0.0000890 -0.0001950 0.0000363 -0.0003581 -0.0000120 -0.0001935 0.0000327 -0.0001987 0.0000067 -0.0003707 -0.0000322 -0.0003390 0.0000111 -0.0001998 0.0000244 -0.0000846 -0.0000128 -0.0002504 0.0000527 -0.0001975 0.0000620 -0.0003052 -0.0000080 -0.0001175 0.0000383 -0.0001173 0.0003231 0.0001074 0.0001582 0.0004461 -0.0001043 -0.0009743 0.0019739 0.0047884 0.0002462 0.0003590 -0.0004581 -0.0015864 0.0005384 0.0010713 -0.0003711 -0.0007870 0.0002160 0.0002340 0.0004435 0.0007988 0.0002344 0.0000404 0.0000457 0.0003898 0.0002836 0.0001235 0.0001158 0.0005889 -0.0000161 -0.0003555 -0.0000504 -0.0004586 -0.0000375 -0.0002658 -0.0002373 -0.0005586 0.0000027 -0.0005214 -0.0000828 -0.0000915 0.0000073 -0.0001733 -0.0000740 -0.0005732 0.0000726 0.0002579 -0.0000382 -0.0001649 -0.0000782 -0.0000156 -0.0001847 -0.0002727 -0.0000700 -0.0004038 -0.0001774 -0.0008919 -0.0001089 -0.0003710 -0.0000173 -0.0007058 0.0000007 0.0001040 -0.0000059 -0.0005536 -0.0001345 -0.0004418 0.0000301 0.0002153 -0.0003308 -0.0010059 0.0003180 -0.0002762 -0.0000234 -0.0001353 0.0004406 0.0013484 -0.0030272 -0.0041242 0.0001144 0.0001716 0.0000980 0.0002972 0.0002871 0.0003216 0.0000767 0.0000270 0.0002757 0.0004809 -0.0002322 -0.0014426 0.0000982 0.0001168 0.0003256 0.0005408 -0.0001698 -0.0009531 -0.0000785 -0.0004775
-0.0000521 -0.0002281 -0.0000882 -0.0007538 -0.0000404 0.0001184 -0.0000023 0.0000379 -0.0000282 -0.0002195 -0.0000666 -0.0007261 0.0000251 -0.0001393 -0.0000147 -0.0002209 0.0000731 -0.0001773 -0.0000414 -0.0002170 -0.0000095 -0.0001443 0.0000338 -0.0001225 -0.0000369 -0.0003979 -0.0000198 -0.0003775 -0.0000001 -0.0005599 0.0000132 -0.0000724 0.0000224 -0.0002123 0.0000653 -0.0002038 0.0000804 -0.0002532 -0.0000006 -0.0000905 0.0000339 -0.0000687 0.0002002 -0.0000719 0.0001478 0.0004060 -0.0002629 -0.0006685 0.0024914 0.0063981 0.0003140 0.0005689 -0.0005746 -0.0017541 0.0006538 0.0013109 -0.0003518 -0.0006138 0.0001914 0.0002883 0.0004157 0.0009147 0.0001944 -0.0000621 0.0000498 0.0004275 0.0003112 0.0000279 0.0001281 0.0006202 -0.0000252 -0.0004032 -0.0000350 -0.0005033 -0.0000354 -0.0003325 -0.0002207 -0.0006188 -0.0000016 -0.0005638 -0.0000981 -0.0001943 0.0000137 -0.0001365 -0.0000748 -0.0005915 0.0000560 0.0001779 -0.0000283 -0.0002457 -0.0000870 -0.0001335 -0.0001460 -0.0002987 -0.0000801 -0.0004903 -0.0001512 -0.0008929 -0.0001350 -0.0006187 -0.0000435 -0.0008154 -0.0000247 0.0000428 0.0000355 -0.0006183 -0.0001652 -0.0005096 -0.0000142 0.0001088 -0.0003340 -0.0010514 0.0002705 -0.0003418 -0.0000626 -0.0002536 0.0004094 0.0012416 -0.0035046 -0.0048841 0.0001502 0.0003255 0.0001070 0.0003123 0.0002730 0.0004756 0.0000793 0.0000646 0.0003138 0.0004657 -0.0002775 -0.0015161 0.0001005 0.0002902 0.0003317 0.0007739 -0.0001552 -0.0008333 -0.0000899 -0.0002926
-0.0000537 -0.0002975 -0.0000221 -0.0008068 0.0000035 -0.0000042 -0.0000164 -0.0001057 -0.0000051 -0.0003869 -0.0000795 -0.0007957 0.0000326 -0.0003012 0.0000342 -0.0002911 0.0000462 -0.0001959 -0.0000138 -0.0002602 0.0000096 -0.0001694 -0.0000001 -0.0001896 -0.0000590 -0.0004966 -0.0000106 -0.0004114 -0.0000032 -0.0008118 0.0000226 -0.0001524 0.0000151 -0.0002369 0.0000784 -0.0002795 0.0000999 -0.0003222 0.0000085 -0.0001464 0.0000562 -0.0001192 0.0001571 -0.0002231 0.0001482 0.0003094 -0.0000636 -0.0006595 0.0024895 0.0066424 0.0004297 0.0006836 -0.0005452 -0.0020340 0.0007559 0.0012869 -0.0003572 -0.0007511 0.0000969 0.0001652 0.0003594 0.0008693 0.0001136 -0.0001758 0.0000656 0.0002798 -0.0000123 0.0002468 0.0001341 0.0004696 -0.0000318 -0.0002199 -0.0000338 -0.0004808 -0.0000397 -0.0001731 -0.0002181 -0.0004968 0.0000020 -0.0003791 -0.0001109 -0.0002010 0.0000285 -0.0000207 -0.0000736 -0.0005269 0.0000264 0.0001507 -0.0000713 -0.0001700 -0.0000751 -0.0001083 -0.0000841 -0.0003080 -0.0000838 -0.0005426 -0.0001518 -0.0008979 -0.0001089 -0.0003886 -0.0000897 -0.0007117 -0.0000335 0.0001210 0.0000294 -0.0005156 -0.0001809 -0.0003724 -0.0000458 0.0001134 -0.0003266 -0.0009952 0.0002216 -0.0003633 -0.0000897 -0.0002205 0.0003653 0.0011467 -0.0042387 -0.0053402 0.0001456 0.0004191 0.0001312 0.0003067 0.0002507 0.0004687 0.0000688 0.0001085 0.0003545 0.0003933 -0.0003964 -0.0015603 0.0001105 0.0002525 0.0003137 0.0008241 -0.0001664 -0.0009312 -0.0001083 -0.0002903
-0.0000635 -0.0003803 0.0000556 -0.0009059 0.0000179 -0.0001754 -0.0000219 -0.0002775 0.0000135 -0.0004938 -0.0000993 -0.0008815 0.0000546 -0.0004383 0.0000106 -0.0003518 0.0000435 -0.0002957 0.0000163 -0.0003230 -0.0000072 -0.0002007 -0.0000123 -0.0003308 -0.0000595 -0.0005579 -0.0000032 -0.0004625 -0.0000014 -0.0009796 0.0000224 -0.0001466 -0.0000282 -0.0002065 0.0000674 -0.0003638 0.0000984 -0.0003586 0.0000212 -0.0001533 0.0000625 -0.0001250 0.0000532 -0.0003797 0.0001396 0.0002879 0.0001142 -0.0006211 0.0024707 0.0061048 0.0004840 0.0009018 -0.0005763 -0.0022274 0.0008490 0.0013588 -0.0004016 -0.0008025 0.0000352 0.0002688 0.0005110 0.0010146 -0.0001160 0.0003222 0.0000462 0.0004490 0.0000709 0.0003372 0.0001072 0.0004731 -0.0000309 -0.0002106 -0.0000406 -0.0005126 -0.0000573 -0.0002064 -0.0002251 -0.0004716 -0.0000059 -0.0003021 -0.0001445 -0.0002738 0.0000349 0.0000258 -0.0000610 -0.0005042 0.0000043 0.0001010 -0.0000863 -0.0002242 -0.0000828 -0.0001329 -0.0000732 -0.0003823 -0.0001207 -0.0007859 -0.0001752 -0.0010541 -0.0001128 -0.0002465 -0.0001806 -0.0006714 -0.0000108 0.0000393 0.0000350 -0.0005456 -0.0001047 -0.0005006 -0.0000588 0.0000086 -0.0003857 -0.0012263 0.0002217 -0.0003991 -0.0000984 -0.0002829 0.0003868 0.0011866 -0.0046169 -0.0074257 0.0001826 0.0005658 0.0001277 0.0002630 0.0002390 0.0003594 0.0000619 0.0000853 0.0002097 0.0002501 -0.0005336 -0.0021783 0.0000694 0.0000611 0.0002841 0.0007612 -0.0002643 -0.0013030 -0.0001453 -0.0004214
-0.0000770 -0.0003857 0.0000885 -0.0006662 0.0000128 -0.0001494 -0.0000404 -0.0003082 0.0000189 -0.0005047 -0.0000869 -0.0009574 0.0000483 -0.0004642 -0.0000476 -0.0003450 0.0000066 -0.0003798 -0.0000171 -0.0003153 -0.0000600 -0.0002090 -0.0000530 -0.0004221 -0.0000697 -0.0005535 -0.0000028 -0.0004644 -0.0000077 -0.0011816 0.0000468 -0.0000564 -0.0000428 -0.0001939 0.0000652 -0.0003545 0.0001240 -0.0003664 0.0000340 -0.0001144 0.0000450 -0.0001638 0.0000013 -0.0005323 0.0001837 0.0004286 0.0000889 -0.0006264 0.0025134 0.0055641 0.0004666 0.0010857 -0.0008212 -0.0030053 0.0007425 0.0014091 -0.0006056 -0.0013261 0.0000555 0.0002617 0.0006591 0.0009916 -0.0001140 0.0002275 0.0000089 0.0003133 0.0003224 -0.0000231 0.0000084 0.0002347 -0.0000407 -0.0002636 -0.0000398 -0.0005273 -0.0000885 -0.0000685 -0.0002400 -0.0003733 -0.0000143 -0.0001821 -0.0001675 -0.0003154 0.0000212 0.0001300 -0.0000586 -0.0003790 0.0000051 0.0001419 -0.0000844 -0.0001132 -0.0001037 0.0000627 -0.0001269 -0.0002826 -0.0001771 -0.0009269 -0.0001943 -0.0010075 -0.0002001 -0.0006909 -0.0001716 -0.0005779 0.0000097 0.0001689 0.0000290 -0.0005214 -0.0001975 -0.0003409 -0.0000619 0.0001561 -0.0004430 -0.0013144 0.0002475 -0.0003480 -0.0000562 -0.0002193 0.0002988 0.0010299 -0.0062050 -0.0085793 0.0001971 0.0007856 0.0001432 0.0004494 0.0002760 0.0005691 0.0001214 0.0003942 0.0001194 0.0001917 -0.0008153 -0.0028618 0.0000216 0.0000384 0.0003213 0.0009656 -0.0002053 -0.0008860 -0.0001462 -0.0001173
-0.0000568 -0.0005387 0.0001753 -0.0003952 0.0000056 -0.0002272 -0.0000200 -0.0004214 -0.0000011 -0.0006182 -0.0001247 -0.0011777 0.0000496 -0.0005753 -0.0000345 -0.0004734 -0.0000534 -0.0006757 0.0000190 -0.0005398 -0.0000674 -0.0003812 -0.0000236 -0.0006805 -0.0000548 -0.0007815 0.0000123 -0.0005551 -0.0000001 -0.0011327 0.0001136 -0.0001115 0.0000618 -0.0003769 0.0000824 -0.0003970 0.0001221 -0.0005292 0.0000294 -0.0002007 0.0000382 -0.0002896 0.0003476 -0.0002495 0.0002288 0.0005317 0.0002146 -0.0000892 0.0017625 0.0026832 0.0006287 0.0016869 -0.0011087 -0.0039134 0.0008092 0.0012439 -0.0007875 -0.0027427 -0.0000218 0.0001823 0.0008077 0.0009182 -0.0000762 -0.0003259 0.0000303 -0.0000058 0.0002034 -0.0003630 -0.0000912 -0.0003000 -0.0000457 -0.0002113 -0.0000732 -0.0005094 -0.0000753 0.0000399 -0.0002570 -0.0003512 -0.0000135 -0.0001059 -0.0001693 -0.0002407 -0.0000234 0.0000756 -0.0000485 -0.0002975 0.0000393 0.0003427 -0.0000881 0.0000816 -0.0001216 -0.0001768 -0.0000804 -0.0003654 -0.0001790 -0.0013036 -0.0001997 -0.0011999 -0.0000668 0.0003711 -0.0000990 -0.0007250 -0.0000641 0.0000994 -0.0000071 -0.0005441 -0.0004016 -0.0009602 -0.0000431 0.0002211 -0.0006407 -0.0020343 0.0007344 0.0002743 0.0000772 -0.0001812 0.0002500 0.0006242 -0.0085038 -0.0088222 0.0000990 0.0005004 0.0001981 0.0006113 0.0003759 0.0009951 0.0002268 0.0007582 0.0001057 0.0000122 -0.0015349 -0.0046279 0.0000035 -0.0001849 0.0003762 0.0010982 -0.0001031 -0.0002878 -0.0001205 0.0002151
-0.0000312 -0.0007533 0.0002041 -0.0001106 0.0000258 -0.0003827 0.0000036 -0.0004084 0.0000013 -0.0008475 -0.0002268 -0.0015089 0.0000681 -0.0008989 0.0000174 -0.0006161 -0.0000774 -0.0010140 -0.0000134 -0.0007042 -0.0000939 -0.0005996 -0.0000739 -0.0007911 -0.0000620 -0.0012800 0.0000090 -0.0007402 0.0000050 -0.0009435 0.0001478 -0.0001560 0.0000720 -0.0004089 0.0001114 -0.0003998 0.0000689 -0.0006326 0.0000102 -0.0002779 0.0000208 -0.0003015 0.0004874 -0.0000081 0.0001818 0.0004181 0.0003656 0.0008506 0.0009999 0.0003153 0.0007503 0.0021710 -0.0011547 -0.0037378 0.0008390 0.0011245 -0.0009332 -0.0030569 -0.0000894 0.0002154 0.0006783 0.0012730 -0.0000524 -0.0003162 0.0000459 0.0000090 0.0001608 -0.0003458 -0.0001004 -0.0003286 -0.0000466 -0.0002138 -0.0000914 -0.0006103 -0.0000554 0.0000385 -0.0003119 -0.0004938 -0.0000200 -0.0001249 -0.0001308 -0.0002103 -0.0000800 -0.0002355 -0.0000215 -0.0003779 0.0000998 0.0004958 -0.0000052 0.0001732 -0.0001275 -0.0006201 -0.0000199 -0.0004195 -0.0001312 -0.0019110 -0.0001971 -0.0016972 0.0002021 0.0022271 -0.0000765 -0.0007639 -0.0001524 0.0001723 -0.0000688 -0.0005982 -0.0005691 -0.0014175 -0.0000310 0.0003874 -0.0007770 -0.0025221 0.0009179 0.0004453 0.0001252 -0.0001184 0.0003119 0.0007118 -0.0073803 -0.0089575 0.0000427 0.0002967 0.0002531 0.0006815 0.0003927 0.0011310 0.0002805 0.0007507 0.0001094 -0.0001202 -0.0022549 -0.0065700 0.0000085 -0.0004008 0.0003934 0.0010719 -0.0001358 -0.0003855 -0.0001368 0.0001803
-0.0000338 -0.0007226 0.0002292 0.0001103 0.0000533 -0.0003497 -0.0000113 -0.0004539 0.0000022 -0.0008449 -0.0001678 -0.0015539 0.0000426 -0.0010832 0.0000576 -0.0006202 -0.0000474 -0.0009733 -0.0000426 -0.0006625 -0.0000768 -0.0005569 -0.0000909 -0.0007422 -0.0001126 -0.0015788 -0.0000038 -0.0008834 -0.0000424 -0.0013807 0.0001420 -0.0001625 0.0000187 -0.0004375 0.0001170 -0.0004750 0.0001125 -0.0006553 -0.0000115 -0.0002793 0.0000433 -0.0002983 0.0000703 -0.0005566 0.0001519 0.0001677 0.0002695 0.0006505 0.0017761 0.0018921 0.0005625 0.0015559 -0.0011116 -0.0035268 0.0005798 0.0007723 -0.0007990 -0.0022951 0.0000633 -0.0000104 0.0004688 0.0013265 0.0001369 -0.0002750 -0.0000009 -0.0000875 0.0001643 -0.0004596 -0.0000295 -0.0001316 -0.0000423 -0.0001036 -0.0000566 -0.0005968 -0.0000487 0.0000839 -0.0002580 -0.0004408 -0.0000462 -0.0000765 -0.0000812 -0.0001785 -0.0001013 -0.0002947 -0.0000440 -0.0005016 0.0000806 0.0002668 0.0000023 0.0000512 -0.0001472 -0.0005103 -0.0001378 -0.0001754 -0.0001518 -0.0018695 -0.0001900 -0.0016292 0.0001472 0.0017907 -0.0001414 -0.0006349 -0.0000536 0.0002356 -0.0001324 -0.0007290 -0.0004350 -0.0009636 -0.0000782 0.0002209 -0.0005108 -0.0017292 0.0003193 -0.0003689 0.0000187 -0.0002332 0.0001224 0.0003428 -0.0045674 -0.0074214 0.0001297 0.0004694 0.0002993 0.0005051 0.0003739 0.0009448 0.0002710 0.0003382 0.0000808 -0.0000943 -0.0026474 -0.0070953 0.0000091 -0.0003373 0.0003483 0.0009038 -0.0002367 -0.0007344 -0.0001677 -0.0001459
-0.0000354 -0.0006583 0.0002295 0.0000345 0.0000573 -0.0003052 -0.0000089 -0.0007441 0.0000099 -0.0007095 -0.0000201 -0.0013861 0.0000308 -0.0009772 0.0000247 -0.0005230 -0.0000222 -0.0008313 0.0000545 -0.0006594 0.0000178 -0.0004338 0.0000084 -0.0006771 -0.0001338 -0.0016066 -0.0000016 -0.0010427 -0.0000870 -0.0019926 0.0000887 -0.0002618 0.0000804 -0.0006291 0.0001001 -0.0006484 0.0001424 -0.0007182 -0.0000215 -0.0002971 0.0000869 -0.0003195 -0.0003580 -0.0012107 0.0001316 -0.0001943 0.0001689 0.0000568 0.0021753 0.0029601 0.0004123 0.0009076 -0.0010623 -0.0034524 0.0004555 0.0003286 -0.0007142 -0.0018843 0.0001323 0.0001164 0.0003853 0.0011323 0.0002703 -0.0003609 -0.0000252 -0.0001411 0.0000016 -0.0004272 0.0000478 -0.0000267 -0.0000276 0.0000002 -0.0000618 -0.0005772 -0.0000519 0.0000514 -0.0001089 -0.0002572 -0.0000726 -0.0000380 -0.0000308 -0.0000680 -0.0000285 -0.0000189 -0.0000829 -0.0005110 0.0000703 0.0001111 -0.0000150 -0.0001166 -0.0001324 -0.0001708 -0.0001604 -0.0000451 -0.0001679 -0.0012107 -0.0001612 -0.0010413 -0.0000027 0.0004199 -0.0001732 -0.0005223 -0.0000045 0.0002774 -0.0001320 -0.0006623 -0.0004127 -0.0002019 -0.0001588 -0.0000234 -0.0003174 -0.0009886 -0.0001026 -0.0005345 -0.0001926 -0.0002535 -0.0001431 -0.0001421 -0.0037765 -0.0050421 0.0002101 0.0009816 0.0002363 0.0005201 0.0003879 0.0011972 0.0002145 0.0002135 0.0001595 -0.0001585 -0.0027995 -0.0071132 0.0001039 -0.0001139 0.0002537 0.0007350 -0.0002718 -0.0009829 -0.0001548 -0.0002932
-0.0000052 -0.0005789 0.0002027 -0.0001883 0.0000774 -0.0001226 0.0000271 -0.0006402 0.0000363 -0.0005652 -0.0000063 -0.0012480 0.0000444 -0.0007678 -0.0000002 -0.0004179 -0.0000059 -0.0007380 0.0001535 -0.0005541 0.0000769 -0.0003395 0.0000488 -0.0004442 -0.0001034 -0.0016145 -0.0000160 -0.0011908 -0.0000819 -0.0019422 0.0000519 -0.0003266 0.0001212 -0.0006098 0.0000524 -0.0005900 0.0001377 -0.0006947 -0.0000195 -0.0002525 0.0001042 -0.0002104 -0.0005093 -0.0012121 0.0000670 -0.0004290 0.0002493 -0.0000774 0.0021705 0.0034326 0.0003593 0.0007616 -0.0009291 -0.0030102 0.0003343 0.0002642 -0.0006645 -0.0015648 0.0000738 0.0006615 0.0003923 0.0011830 0.0002328 0.0000399 -0.0000070 0.0001729 -0.0001570 0.0001544 0.0000756 0.0002568 -0.0000219 -0.0000321 -0.0000719 -0.0005958 -0.0000711 0.0000368 -0.0001349 -0.0002158 -0.0000399 -0.0000014 -0.0000374 0.0000066 0.0000434 0.0002414 -0.0000331 -0.0003058 0.0001183 0.0003198 -0.0000401 -0.0000527 -0.0001008 0.0000248 -0.0000096 0.0000409 -0.0000643 -0.0005896 -0.0001182 -0.0006257 0.0000243 0.0003440 -0.0001321 -0.0004056 -0.0000743 0.0003562 -0.0000780 -0.0005992 -0.0005018 -0.0001398 -0.0001332 0.0000232 -0.0004692 -0.0013674 -0.0000498 -0.0004062 -0.0001986 -0.0002564 -0.0001108 -0.0001606 -0.0035385 -0.0052451 0.0002389 0.0011729 0.0001777 0.0005382 0.0004056 0.0013751 0.0001751 0.0003590 0.0001979 -0.0003076 -0.0027773 -0.0066617 0.0001813 -0.0001977 0.0002444 0.0006426 -0.0002624 -0.0011628 -0.0001163 -0.0002346
0.0000084 -0.0003748 0.0001810 -0.0001409 0.0001216 0.0001460 0.0000469 -0.0004172 0.0000232 -0.0003991 -0.0000276 -0.0011524 0.0000401 -0.0006280 -0.0000237 -0.0002565 0.0000182 -0.0006305 0.0001129 -0.0003719 0.0001016 -0.0002254 0.0000447 -0.0002851 -0.0000984 -0.0015174 -0.0000272 -0.0012346 -0.0000905 -0.0020021 0.0000336 -0.0002535 0.0000945 -0.0004461 0.0000418 -0.0004575 0.0001345 -0.0005877 -0.0000171 -0.0001804 0.0001219 -0.0000969 -0.0004238 -0.0009786 0.0000682 -0.0002988 0.0001769 -0.0000198 0.0018422 0.0035264 0.0003463 0.0008139 -0.0008766 -0.0029126 0.0002570 0.0003429 -0.0005862 -0.0016030 0.0000642 0.0007977 0.0003712 0.0012232 -0.0000676 0.0003131 0.0000057 0.0002183 -0.0000826 0.0001570 0.0000527 0.0002978 -0.0000262 -0.0001769 -0.0000569 -0.0006114 -0.0000830 -0.0000113 -0.0001941 -0.0002240 0.0000143 0.0000403 -0.0001111 -0.0000788 0.0000640 0.0003494 0.0000363 -0.0002121 0.0001132 0.0003741 -0.0000764 -0.0000456 -0.0000993 0.0000452 0.0000505 0.0000740 0.0000545 -0.0001992 -0.0000762 -0.0005187 0.0000693 0.0006642 -0.0000726 -0.0003839 -0.0000902 0.0002892 -0.0000484 -0.0006427 -0.0003595 -0.0008007 -0.0000870 0.0000855 -0.0007287 -0.0022006 0.0001935 -0.0003258 -0.0000484 -0.0000872 0.0000118 0.0001604 -0.0036557 -0.0052557 0.0002348 0.0014489 0.0001938 0.0006484 0.0004066 0.0015381 0.0001891 0.0006441 0.0000936 -0.0003071 -0.0029561 -0.0062203 0.0001318 -0.0001623 0.0002370 0.0007749 -0.0002986 -0.0011881 -0.0001124 -0.0001379
0.0000239 -0.0003783 0.0002351 -0.0000467 0.0001160 0.0000896 0.0000625 -0.0004959 0.0000082 -0.0005106 -0.0000215 -0.0013157 0.0000355 -0.0008381 -0.0000313 -0.0003438 -0.0000195 -0.0006960 0.0000370 -0.0003879 0.0000665 -0.0002654 0.0000223 -0.0004148 -0.0001093 -0.0016670 -0.0000191 -0.0013414 -0.0001184 -0.0023014 0.0000759 -0.0002206 0.0000435 -0.0004064 0.0001048 -0.0004892 0.0001265 -0.0005802 0.0000027 -0.0002055 0.0001307 -0.0001295 -0.0003203 -0.0009199 0.0001134 -0.0001156 0.0000946 0.0000070 0.0015667 0.0032419 0.0003690 0.0009187 -0.0007971 -0.0030373 0.0002668 0.0003663 -0.0006120 -0.0017416 0.0000730 0.0007583 0.0002469 0.0013886 -0.0002377 0.0004121 0.0000273 0.0000980 -0.0000725 0.0000440 0.0000479 0.0002151 -0.0000067 -0.0000632 -0.0000607 -0.0006430 -0.0000888 -0.0000041 -0.0001669 -0.0001236 0.0000271 0.0002056 -0.0001243 -0.0000859 0.0000917 0.0003669 0.0000570 -0.0001660 0.0001095 0.0003052 -0.0000239 -0.0000442 -0.0000986 -0.0000218 0.0001020 0.0000982 0.0001054 -0.0001202 -0.0000364 -0.0004373 0.0001913 0.0014492 -0.0000537 -0.0001649 -0.0000381 0.0002904 -0.0000128 -0.0003863 -0.0002215 -0.0008112 -0.0000828 0.0001503 -0.0007129 -0.0020938 0.0001983 -0.0002707 -0.0000709 0.0000124 -0.0000115 0.0001562 -0.0041559 -0.0039111 0.0001899 0.0014366 0.0002141 0.0007577 0.0003550 0.0015292 0.0002286 0.0008472 0.0000392 -0.0002405 -0.0027516 -0.0058950 0.0001283 -0.0000129 0.0002026 0.0008265 -0.0003026 -0.0010615 -0.0000977 -0.0001048
0.0000237 -0.0004306 0.0002524 -0.0000927 0.0000609 0.0000294 0.0000771 -0.0005411 0.0000196 -0.0005585 -0.0001333 -0.0012542 0.0000390 -0.0009779 -0.0000715 -0.0004014 -0.0000408 -0.0007180 0.0001187 -0.0004712 0.0000409 -0.0002746 0.0000276 -0.0005082 -0.0001084 -0.0018107 -0.0000136 -0.0013955 -0.0001252 -0.0023035 0.0001151 -0.0001559 0.0001046 -0.0004034 0.0000872 -0.0004301 0.0001442 -0.0004981 0.0000096 -0.0001409 0.0001259 -0.0000819 -0.0002774 -0.0008004 0.0001145 0.0000144 -0.0000428 0.0001545 0.0015158 0.0028726 0.0003416 0.0010619 -0.0007520 -0.0028042 0.0003273 0.0004992 -0.0005847 -0.0016200 0.0000132 0.0010351 0.0002363 0.0016341 -0.0000107 0.0006008 0.0000278 0.0003851 -0.0001386 0.0003761 0.0000093 0.0004073 0.0000087 0.0000629 -0.0000687 -0.0006484 -0.0000810 0.0000108 -0.0001452 -0.0000757 0.0000425 0.0003728 -0.0000777 -0.0000135 0.0001249 0.0003507 0.0000934 -0.0000670 0.0001230 0.0003127 0.0000139 -0.0000030 -0.0001009 -0.0000470 0.0002387 0.0002443 0.0000943 -0.0002319 0.0000234 -0.0002000 0.0002621 0.0018880 -0.0000520 0.0000473 0.0000353 0.0002417 -0.0000015 -0.0001735 -0.0001541 -0.0007275 -0.0000877 0.0001212 -0.0006383 -0.0018677 0.0001481 -0.0002629 -0.0001053 -0.0000593 -0.0000143 0.0001537 -0.0036285 -0.0034310 0.0001421 0.0014033 0.0002051 0.0008223 0.0002908 0.0015826 0.0002161 0.0010114 0.0001911 -0.0002682 -0.0024625 -0.0056187 0.0001418 0.0001185 0.0002147 0.0009203 -0.0002985 -0.0009135 -0.0000952 -0.0000306
0.0000226 -0.0003068 0.0001500 -0.0000095 0.0000887 0.0001639 0.0000912 -0.0003581 0.0000416 -0.0003491 -0.0001859 -0.0010169 0.0000268 -0.0007230 -0.0000604 -0.0001965 -0.0000532 -0.0005689 0.0001413 -0.0004150 0.0000447 -0.0002030 0.0000514 -0.0004359 -0.0001092 -0.0017396 -0.0000290 -0.0012729 -0.0001186 -0.0019844 0.0000857 -0.0001018 0.0000625 -0.0002445 0.0000374 -0.0002338 0.0001712 -0.0003995 -0.0000126 -0.0000431 0.0000896 -0.0000030 -0.0002215 -0.0005818 0.0000989 0.0000159 -0.0000445 0.0002264 0.0013396 0.0024834 0.0003296 0.0010737 -0.0007134 -0.0025547 0.0003925 0.0004695 -0.0005271 -0.0015196 0.0000517 0.0011226 0.0002815 0.0015939 -0.0000020 0.0004614 -0.0000159 0.0004727 -0.0000751 0.0003878 -0.0000373 0.0004917 0.0000042 0.0001580 -0.0000828 -0.0005524 -0.0000658 0.0001250 -0.0001598 -0.0000163 0.0000730 0.0004660 -0.0000709 0.0000435 0.0001185 0.0004334 0.0001251 0.0000330 0.0001238 0.0003471 -0.0000262 0.0000665 -0.0000731 0.0000867 0.0003375 0.0003780 0.0000553 -0.0002820 0.0000543 0.0000011 0.0002094 0.0016176 -0.0000497 0.0001392 0.0000320 0.0002703 -0.0000023 -0.0001675 -0.0001849 -0.0008132 -0.0000789 0.0001276 -0.0006658 -0.0019598 0.0001512 -0.0002440 -0.0000740 -0.0001054 0.0000095 0.0002939 -0.0027794 -0.0034479 0.0001216 0.0015303 0.0001594 0.0008958 0.0002795 0.0016859 0.0001995 0.0011233 0.0001991 -0.0001959 -0.0023893 -0.0052080 0.0001039 0.0002516 0.0001950 0.0010066 -0.0003056 -0.0007897 -0.0001134 0.0000908
0.0000274 -0.0002497 0.0001376 0.0000014 0.0001154 0.0002111 0.0001041 -0.0002702 0.0000534 -0.0002409 -0.0000483 -0.0010739 0.0000363 -0.0005839 -0.0000266 -0.0001354 -0.0000510 -0.0005348 0.0000814 -0.0003671 0.0000578 -0.0001989 0.0000505 -0.0003571 -0.0000780 -0.0016577 -0.0000347 -0.0011316 -0.0001042 -0.0016847 0.0000497 -0.0001184 -0.0000305 -0.0001693 0.0000615 -0.0001896 0.0001773 -0.0003638 -0.0000122 -0.0000483 0.0000795 0.0000203 -0.0002180 -0.0004864 0.0000742 -0.0001533 -0.0002776 -0.0002208 0.0014610 0.0027587 0.0001328 0.0002228 -0.0007109 -0.0022779 0.0002948 0.0001462 -0.0004741 -0.0015170 0.0000968 0.0007944 0.0002060 0.0013576 -0.0001205 0.0005423 0.0000030 0.0003859 0.0000524 0.0003257 -0.0000169 0.0004390 -0.0000016 0.0002082 -0.0000716 -0.0004849 -0.0000650 0.0002153 -0.0001809 0.0000472 0.0000693 0.0005517 -0.0001102 0.0000855 0.0001039 0.0005521 0.0001135 0.0001151 0.0001202 0.0003543 -0.0000938 0.0001594 -0.0000596 0.0001637 0.0003285 0.0004447 0.0000334 -0.0002220 0.0000221 0.0000314 0.0001690 0.0014199 -0.0000261 0.0001972 -0.0000304 0.0003960 -0.0000743 -0.0001046 -0.0003236 -0.0006912 -0.0000645 0.0002787 -0.0006798 -0.0019238 0.0001549 -0.0002177 -0.0000565 -0.0000427 -0.0000041 0.0003770 -0.0024452 -0.0031609 0.0000892 0.0015864 0.0001461 0.0009615 0.0002657 0.0018262 0.0001820 0.0011507 0.0000833 0.0000274 -0.0023711 -0.0048344 0.0000708 0.0004546 0.0001195 0.0011859 -0.0003266 -0.0006235 -0.0001342 0.0002489
0.0000209 -0.0001323 0.0001626 -0.0000903 0.0001144 0.0004062 0.0001474 -0.0000847 0.0000428 -0.0000898 -0.0000153 -0.0010741 0.0000517 -0.0004741 -0.0000552 -0.0000783 -0.0000184 -0.0005024 0.0000344 -0.0002460 0.0000596 -0.0001299 0.0000626 -0.0003105 -0.0000515 -0.0013945 -0.0000251 -0.0009398 -0.0000717 -0.0012822 0.0000733 -0.0000680 0.0000310 -0.0001480 0.0000537 -0.0001036 0.0001661 -0.0002261 -0.0000020 0.0000090 0.0000958 0.0001263 -0.0002488 -0.0003364 0.0000372 -0.0001740 -0.0001982 -0.0004181 0.0015510 0.0027602 0.0000035 0.0000135 -0.0007796 -0.0018841 0.0002414 0.0002686 -0.0004912 -0.0013839 0.0000293 0.0008615 0.0001679 0.0013435 -0.0001397 0.0009538 0.0000098 0.0006056 0.0001470 0.0004727 -0.0000046 0.0005445 -0.0000042 0.0003735 -0.0000683 -0.0004478 -0.0000796 0.0003716 -0.0001763 0.0002066 0.0000520 0.0006897 -0.0001271 0.0001277 0.0001097 0.0006662 0.0000827 0.0001714 0.0000851 0.0003880 -0.0001296 0.0002809 -0.0000718 0.0002671 0.0002479 0.0004787 0.0000429 -0.0000154 -0.0000262 0.0000049 0.0001654 0.0014100 0.0000285 0.0002424 -0.0000544 0.0005574 -0.0001211 0.0000410 -0.0003670 -0.0003942 -0.0000684 0.0005023 -0.0006556 -0.0016680 0.0001387 -0.0001419 -0.0000815 0.0001386 -0.0000141 0.0004697 -0.0030819 -0.0021467 0.0000473 0.0017281 0.0001330 0.0010578 0.0002433 0.0019752 0.0001519 0.0011937 0.0000966 0.0001314 -0.0021243 -0.0047567 0.0000903 0.0005552 0.0000853 0.0012671 -0.0003251 -0.0005347 -0.0001394 0.0003028
0.0000289 0.0000513 0.0001653 -0.0000783 0.0001468 0.0006177 0.0001916 0.0001346 0.0000393 0.0000745 -0.0000841 -0.0009879 0.0000580 -0.0002898 -0.0000814 0.0000228 -0.0000330 -0.0004224 -0.0000138 -0.0001548 0.0000553 -0.0000672 -0.0000028 -0.0002190 -0.0000383 -0.0010348 -0.0000128 -0.0006761 -0.0000557 -0.0009521 0.0000779 -0.0000075 0.0000354 -0.0001084 0.0000626 -0.0000067 0.0001699 -0.0001367 -0.0000017 0.0000535 0.0000806 0.0001914 -0.0002062 -0.0001945 0.0000636 0.0000566 0.0001889 0.0002122 0.0012199 0.0022523 0.0002212 0.0009910 -0.0007817 -0.0019205 0.0003153 0.0006495 -0.0005324 -0.0013612 0.0000770 0.0011042 0.0002092 0.0014299 -0.0002124 0.0009585 -0.0000219 0.0005790 0.0001424 0.0004495 -0.0000168 0.0004806 -0.0000142 0.0004876 -0.0000902 -0.0003458 -0.0000889 0.0004947 -0.0001786 0.0003349 0.0000124 0.0007284 -0.0001225 0.0001890 0.0000990 0.0007772 0.0000437 0.0002409 0.0000635 0.0004696 -0.0001609 0.0004157 -0.0000815 0.0003598 0.0001899 0.0004421 0.0000688 0.0002472 -0.0000426 0.0000534 0.0001766 0.0014346 -0.0000141 0.0003532 0.0000115 0.0006620 -0.0001004 0.0000955 -0.0004056 -0.0001647 -0.0000640 0.0007192 -0.0006038 -0.0013553 0.0001125 -0.0000371 -0.0000979 0.0002978 -0.0000098 0.0005592 -0.0026811 -0.0020183 0.0000198 0.0018804 0.0000948 0.0011397 0.0002238 0.0020394 0.0001260 0.0012612 0.0001180 0.0002844 -0.0020179 -0.0044224 0.0000699 0.0007429 0.0000731 0.0013913 -0.0003236 -0.0004035 -0.0001577 0.0004064
0.0000111 0.0000109 0.0001775 0.0000107 0.0001318 0.0005224 0.0001548 0.0000591 0.0000184 -0.0000187 -0.0000737 -0.0010342 0.0000395 -0.0003171 -0.0000884 -0.0000382 -0.0000611 -0.0004572 0.0000065 -0.0002264 0.0000420 -0.0001289 -0.0000715 -0.0002563 -0.0000103 -0.0007586 0.0000039 -0.0003655 -0.0000333 -0.0007649 0.0000197 0.0000766 0.0000481 -0.0001379 0.0000603 -0.0000031 0.0001676 -0.0001241 0.0000173 0.0000128 0.0000786 0.0001557 -0.0002031 -0.0002450 0.0001140 0.0002300 0.0001509 0.0006755 0.0009182 0.0023183 0.0003467 0.0015217 -0.0008183 -0.0019562 0.0003582 0.0007293 -0.0005342 -0.0013348 0.0000215 0.0012559 0.0002428 0.0014553 -0.0001300 0.0008306 -0.0000258 0.0004944 0.0000196 0.0005028 -0.0000228 0.0004387 -0.0000275 0.0005981 -0.0000924 -0.0002531 -0.0001009 0.0005866 -0.0001827 0.0004577 -0.0000235 0.0007788 -0.0001278 0.0002578 0.0001117 0.0008763 0.0000398 0.0003092 0.0000512 0.0005625 -0.0001443 0.0005176 -0.0000745 0.0004049 0.0001286 0.0004160 0.0001132 0.0005430 -0.0000476 0.0002182 0.0002177 0.0016647 -0.0000639 0.0003977 0.0000265 0.0007758 -0.0001202 0.0001746 -0.0003684 -0.0000298 -0.0000676 0.0008745 -0.0005716 -0.0011252 0.0000907 0.0000671 -0.0000955 0.0003966 -0.0000220 0.0006051 -0.0018137 -0.0016730 0.0000052 0.0019798 0.0000481 0.0012126 0.0002142 0.0020917 0.0000917 0.0013337 0.0001022 0.0004835 -0.0020814 -0.0040535 0.0000624 0.0008522 0.0000383 0.0014556 -0.0003479 -0.0002697 -0.0001802 0.0004821
-0.0000015 -0.0000513 0.0002248 0.0001560 0.0000833 0.0004263 0.0001009 -0.0000023 0.0000198 -0.0001110 -0.0000567 -0.0009487 0.0000092 -0.0003737 -0.0000634 -0.0000907 -0.0000572 -0.0004071 0.0000404 -0.0001690 0.0000076 -0.0000848 -0.0000776 -0.0002752 -0.0000140 -0.0004444 0.0000027 -0.0000447 -0.0000094 -0.0005293 0.0000433 0.0002409 0.0000882 -0.0000628 0.0000030 0.0001037 0.0001378 0.0000866 0.0000276 0.0000942 0.0000731 0.0002585 -0.0001832 -0.0002094 0.0001521 0.0005557 -0.0001133 0.0008613 0.0009207 0.0024574 0.0003687 0.0017544 -0.0008203 -0.0018992 0.0002669 0.0008742 -0.0005183 -0.0011010 0.0000181 0.0012676 0.0002851 0.0015433 -0.0001204 0.0007407 -0.0000296 0.0004688 -0.0001579 0.0006911 -0.0000247 0.0004791 -0.0000301 0.0006614 -0.0000841 -0.0001674 -0.0001113 0.0006166 -0.0001774 0.0005436 -0.0000493 0.0008142 -0.0001435 0.0003546 0.0001122 0.0009396 0.0000325 0.0003782 0.0000594 0.0006393 -0.0001287 0.0006325 -0.0000721 0.0004655 0.0000316 0.0004910 0.0001508 0.0008244 -0.0000404 0.0004122 0.0002501 0.0018107 -0.0000443 0.0004228 -0.0001517 0.0009615 -0.0001719 0.0002804 -0.0003900 0.0000955 -0.0000607 0.0009012 -0.0005531 -0.0010208 0.0000778 0.0001587 -0.0000924 0.0004104 -0.0000305 0.0005532 -0.0017182 -0.0000748 0.0000081 0.0020194 0.0000402 0.0012332 0.0002072 0.0021071 0.0000839 0.0013409 0.0000776 0.0006312 -0.0021053 -0.0038546 0.0000225 0.0008917 0.0000162 0.0013988 -0.0003794 -0.0002037 -0.0001896 0.0004649
0.0000109 -0.0001107 0.0002409 0.0002675 0.0000917 0.0002639 0.0001015 -0.0000711 0.0000432 -0.0001522 -0.0000985 -0.0007671 0.0000146 -0.0003927 -0.0000490 -0.0001136 -0.0000324 -0.0003808 0.0000773 -0.0002218 0.0000135 -0.0000849 -0.0000457 -0.0003124 -0.0000224 -0.0004757 0.0000113 -0.0000097 -0.0000110 -0.0004706 0.0001042 0.0001959 0.0000931 -0.0001020 0.0000229 0.0000722 0.0001200 0.0001298 0.0000168 0.0000789 0.0000893 0.0002132 -0.0000393 -0.0000352 0.0001661 0.0006329 -0.0001021 0.0005638 0.0011191 0.0019766 0.0003615 0.0016735 -0.0008486 -0.0018921 0.0002678 0.0008497 -0.0004841 -0.0010955 0.0002478 0.0014168 0.0004043 0.0014712 -0.0002486 0.0007195 -0.0000428 0.0004162 -0.0003942 0.0008697 -0.0000186 0.0004313 -0.0000373 0.0006653 -0.0000719 -0.0000639 -0.0001143 0.0006091 -0.0001802 0.0005843 -0.0000557 0.0008246 -0.0001620 0.0004665 0.0000853 0.0010149 0.0000026 0.0004901 0.0000669 0.0007139 -0.0001410 0.0007381 -0.0000994 0.0005511 0.0000408 0.0005745 0.0001869 0.0011026 -0.0000176 0.0006727 0.0002679 0.0018151 -0.0000502 0.0005292 -0.0001960 0.0010005 -0.0002006 0.0003733 -0.0004989 0.0001571 -0.0000375 0.0009092 -0.0005222 -0.0009699 0.0000624 0.0002666 -0.0001002 0.0004337 -0.0000084 0.0005209 -0.0011012 0.0008931 0.0000277 0.0019994 0.0000427 0.0012126 0.0001840 0.0021020 0.0000814 0.0013392 0.0000912 0.0006750 -0.0019850 -0.0035750 -0.0000270 0.0009807 -0.0000091 0.0013812 -0.0003691 -0.0001436 -0.0001857 0.0004297
-0.0000059 -0.0001551 0.0002059 0.0002423 0.0001003 0.0001932 0.0001111 -0.0001616 0.0000421 -0.0001572 -0.0000345 -0.0007490 0.0000160 -0.0003357 -0.0000593 -0.0001256 -0.0000318 -0.0003943 0.0000787 -0.0002662 0.0000311 -0.0001280 -0.0000552 -0.0003707 -0.0000047 -0.0005047 0.0000217 -0.0000649 -0.0000060 -0.0004434 0.0000780 0.0001487 0.0001185 -0.0001967 0.0000303 -0.0000096 0.0001304 0.0000231 0.0000131 -0.0000072 0.0001014 0.0001070 0.0000490 0.0000591 0.0001644 0.0005475 0.0002576 0.0005938 0.0008420 0.0005986 0.0004190 0.0019040 -0.0008035 -0.0017712 0.0003238 0.0008110 -0.0004188 -0.0013042 0.0002469 0.0016055 0.0003673 0.0015335 -0.0003632 0.0009538 -0.0000249 0.0005731 -0.0001210 0.0006172 -0.0000202 0.0005185 -0.0000484 0.0006767 -0.0000750 0.0000224 -0.0001142 0.0006047 -0.0001830 0.0005980 -0.0000534 0.0008451 -0.0001554 0.0005319 0.0000863 0.0010555 -0.0000056 0.0005572 0.0000697 0.0007738 -0.0001337 0.0007661 -0.0001112 0.0005595 0.0000485 0.0006564 0.0002220 0.0013210 0.0000015 0.0009000 0.0002886 0.0018618 -0.0001141 0.0007033 -0.0000246 0.0008836 -0.0001630 0.0004306 -0.0004428 0.0001278 -0.0000312 0.0009435 -0.0004959 -0.0009216 0.0000660 0.0003564 -0.0000816 0.0004157 0.0000045 0.0005348 -0.0016056 0.0018811 0.0000247 0.0019690 0.0000127 0.0012035 0.0001645 0.0020695 0.0000722 0.0013729 0.0001076 0.0006708 -0.0018738 -0.0033203 0.0000343 0.0009575 -0.0000196 0.0013214 -0.0003459 -0.0000947 -0.0001898 0.0004001
-0.0000474 0.0000299 0.0001614 0.0002209 0.0000914 0.0003884 0.0001013 -0.0000508 0.0000184 0.0000757 0.0000548 -0.0006441 0.0000169 -0.0001342 -0.0000679 -0.0000203 -0.0000191 -0.0002501 0.0000295 -0.0001171 0.0000213 -0.0000197 -0.0000525 -0.0002788 0.0000046 -0.0003953 0.0000005 -0.0000591 -0.0000133 -0.0003131 0.0000436 0.0002410 0.0001539 -0.0001767 0.0000248 -0.0000020 0.0001326 0.0000355 0.0000082 0.0000162 0.0000946 0.0001158 0.0000242 0.0000024 0.0001954 0.0006151 0.0003989 0.0015509 0.0002772 -0.0005407 0.0007454 0.0027505 -0.0007063 -0.0019373 0.0003756 0.0010317 -0.0005084 -0.0014619 0.0000615 0.0013629 0.0002673 0.0013753 -0.0002418 0.0006870 0.0000316 0.0004547 -0.0001003 0.0003613 -0.0000244 0.0004948 -0.0000517 0.0006690 -0.0000806 0.0000616 -0.0001163 0.0005887 -0.0001798 0.0005844 -0.0000910 0.0008768 -0.0001647 0.0005828 0.0000997 0.0010579 -0.0000157 0.0006043 0.0000688 0.0008138 -0.0001483 0.0007804 -0.0001010 0.0005232 0.0000101 0.0007643 0.0002414 0.0014250 0.0000202 0.0010056 0.0003077 0.0019088 -0.0001330 0.0008019 -0.0000114 0.0008711 -0.0001570 0.0005020 -0.0003387 0.0000804 -0.0000189 0.0009801 -0.0004757 -0.0008433 0.0000653 0.0004229 -0.0000652 0.0003879 0.0000129 0.0005136 -0.0015013 0.0021076 0.0000276 0.0019044 -0.0000068 0.0011728 0.0001639 0.0019952 0.0000637 0.0013652 0.0000979 0.0007062 -0.0018996 -0.0031453 0.0000740 0.0009214 -0.0000224 0.0012455 -0.0003447 -0.0000649 -0.0001908 0.0003714
-0.0000751 0.0000838 0.0001874 0.0001325 0.0001060 0.0003662 0.0001229 -0.0000606 0.0000005 0.0001574 0.0000455 -0.0005965 0.0000265 -0.0000750 -0.0000647 -0.0000225 -0.0000024 -0.0002248 0.0000167 -0.0000971 0.0000630 -0.0000430 0.0000266 -0.0003022 0.0000193 -0.0005359 -0.0000118 -0.0001519 -0.0000049 -0.0001621 0.0000706 0.0001491 0.0001313 -0.0002029 0.0000440 -0.0000756 0.0001811 -0.0001027 0.0000236 -0.0000274 0.0001075 0.0000508 0.0000538 -0.0000135 0.0002132 0.0005062 0.0003696 0.0021003 -0.0003156 -0.0015272 0.0009865 0.0032013 -0.0007001 -0.0020652 0.0005133 0.0010416 -0.0005982 -0.0017043 0.0000401 0.0014152 0.0003143 0.0010883 -0.0001047 0.0004594 -0.0000225 0.0003831 0.0000581 0.0001246 -0.0000133 0.0004383 -0.0000538 0.0006566 -0.0000599 0.0000612 -0.0001131 0.0005491 -0.0001734 0.0005534 -0.0001003 0.0008615 -0.0001619 0.0005973 0.0000929 0.0010757 -0.0000032 0.0006230 0.0000748 0.0008179 -0.0001413 0.0007726 -0.0001079 0.0004831 0.0000226 0.0008373 0.0002485 0.0014587 0.0000445 0.0010751 0.0003141 0.0018971 -0.0000951 0.0007747 -0.0000283 0.0008525 -0.0001536 0.0005372 -0.0003386 0.0000344 -0.0000160 0.0009599 -0.0004500 -0.0007986 0.0000542 0.0004644 -0.0000591 0.0003572 0.0000354 0.0004182 -0.0002397 0.0015051 0.0000366 0.0017838 -0.0000209 0.0011188 0.0001560 0.0018935 0.0000778 0.0013051 0.0001728 0.0005978 -0.0017844 -0.0031208 0.0000504 0.0008760 -0.0000189 0.0011301 -0.0003514 -0.0000558 -0.0001752 0.0003070
-0.0000577 0.0000009 0.0001785 0.0000749 0.0001340 0.0002613 0.0001324 -0.0001293 0.0000116 0.0000624 -0.0000155 -0.0006904 0.0000283 -0.0001351 -0.0000451 -0.0000591 -0.0000122 -0.0002839 0.0000832 -0.0000836 0.0000966 -0.0000715 0.0000968 -0.0003323 0.0000267 -0.0005895 -0.0000161 -0.0002188 0.0000032 -0.0001533 0.0000740 0.0001362 0.0001108 -0.0001448 0.0000233 -0.0000875 0.0002109 -0.0001061 0.0000207 0.0000157 0.0001142 0.0001200 0.0000735 0.0000477 0.0002002 0.0005481 0.0001891 0.0020089 -0.0007359 -0.0021237 0.0007877 0.0028668 -0.0006371 -0.0017343 0.0004104 0.0009261 -0.0004701 -0.0016720 0.0000045 0.0017138 0.0003952 0.0010666 -0.0000793 0.0005542 -0.0000405 0.0004381 0.0002489 0.0001671 -0.0000184 0.0004097 -0.0000562 0.0006246 -0.0000349 0.0000576 -0.0001080 0.0005163 -0.0001649 0.0005073 -0.0000877 0.0008235 -0.0001457 0.0006113 0.0000822 0.0010670 -0.0000145 0.0006670 0.0000714 0.0008178 -0.0001310 0.0007548 -0.0001007 0.0004456 0.0000410 0.0008883 0.0002501 0.0014425 0.0000417 0.0011459 0.0003125 0.0018631 -0.0001145 0.0008430 -0.0000277 0.0008770 -0.0000909 0.0004924 -0.0002937 0.0000049 -0.0000234 0.0009856 -0.0004350 -0.0007337 0.0000616 0.0004683 -0.0000306 0.0003892 0.0000620 0.0003791 0.0001146 0.0015340 0.0000422 0.0017325 0.0000007 0.0010653 0.0001389 0.0018028 0.0000894 0.0012410 0.0001782 0.0005225 -0.0015546 -0.0032495 0.0000920 0.0008300 -0.0000159 0.0009959 -0.0003307 -0.0001385 -0.0001798 0.0001812
-0.0000462 -0.0000065 0.0001829 0.0002560 0.0001380 0.0001707 0.0001101 -0.0002122 0.0000248 -0.0000972 -0.0000698 -0.0007601 0.0000138 -0.0003616 -0.0001036 -0.0000802 -0.0000258 -0.0003036 0.0001052 -0.0000912 0.0000710 -0.0000631 0.0000528 -0.0002998 0.0000111 -0.0007280 -0.0000115 -0.0002771 -0.0000169 -0.0004878 0.0001012 0.0001492 0.0001388 -0.0001525 0.0000257 -0.0001229 0.0001848 -0.0000686 0.0000107 0.0000228 0.0001063 0.0001317 0.0000404 -0.0000934 0.0002292 0.0006164 0.0000797 0.0013232 -0.0005603 -0.0021920 0.0005820 0.0022938 -0.0006233 -0.0015480 0.0003198 0.0008556 -0.0003935 -0.0015013 -0.0000284 0.0018115 0.0004125 0.0011793 -0.0002046 0.0005452 -0.0000112 0.0002718 -0.0002297 0.0005065 -0.0000395 0.0002476 -0.0000455 0.0006836 -0.0000536 0.0000888 -0.0000919 0.0006035 -0.0001505 0.0004236 -0.0001077 0.0007947 -0.0001403 0.0005819 0.0001031 0.0010684 -0.0000221 0.0006754 0.0000333 0.0007321 -0.0001906 0.0007440 -0.0000835 0.0004252 0.0001137 0.0009353 0.0002410 0.0014638 0.0000367 0.0012346 0.0003026 0.0016468 -0.0000985 0.0008811 -0.0000918 0.0009395 -0.0000609 0.0005504 -0.0002953 0.0001993 -0.0000432 0.0009468 -0.0003572 -0.0004567 -0.0000127 0.0004615 -0.0000484 0.0005104 0.0000636 0.0002764 0.0002422 0.0021771 0.0000581 0.0015968 0.0000352 0.0009452 0.0001295 0.0015678 0.0000847 0.0011377 0.0001059 0.0005678 -0.0014383 -0.0030770 0.0001338 0.0008227 0.0000237 0.0008419 -0.0003228 -0.0001728 -0.0001729 0.0000458
-0.0000839 -0.0000912 0.0002352 0.0004552 0.0001167 -0.0000595 0.0000855 -0.0004784 0.0000357 -0.0004034 -0.0000174 -0.0009105 0.0000117 -0.0007151 -0.0001252 -0.0002350 -0.0000348 -0.0004052 0.0000334 -0.0001383 0.0000185 -0.0001375 -0.0001061 -0.0002976 -0.0000294 -0.0010021 0.0000059 -0.0004213 -0.0000346 -0.0009687 0.0001076 0.0000910 0.0001096 -0.0002219 0.0000408 -0.0002702 0.0001591 -0.0001293 0.0000170 -0.0000512 0.0000807 0.0000623 0.0000437 -0.0002912 0.0002767 0.0006374 0.0000725 0.0010289 -0.0004624 -0.0019877 0.0005268 0.0019585 -0.0006322 -0.0015271 0.0003513 0.0006805 -0.0003964 -0.0014392 0.0000594 0.0013800 0.0003119 0.0012051 -0.0002297 0.0007900 -0.0000358 0.0002671 -0.0003427 0.0006798 -0.0000588 0.0002248 -0.0000319 0.0007216 -0.0000880 0.0001118 -0.0000818 0.0006100 -0.0001204 0.0003918 -0.0001080 0.0008102 -0.0001399 0.0005613 0.0001340 0.0010727 -0.0000138 0.0006810 0.0000029 0.0006628 -0.0002134 0.0007314 -0.0000705 0.0004058 0.0000727 0.0010315 0.0002443 0.0014859 0.0000496 0.0012547 0.0003104 0.0015779 -0.0000834 0.0009046 -0.0000620 0.0009108 -0.0000588 0.0006387 -0.0002049 0.0003873 -0.0000656 0.0009177 -0.0002677 -0.0001890 -0.0000873 0.0004813 -0.0000848 0.0005806 0.0000112 0.0001375 0.0000372 0.0026484 0.0000533 0.0013813 0.0000404 0.0008494 0.0001165 0.0013721 0.0000855 0.0010840 0.0002071 0.0006468 -0.0013740 -0.0026148 0.0001095 0.0009083 0.0000873 0.0008091 -0.0003168 -0.0000029 -0.0001557 0.0000944
-0.0000887 -0.0001129 0.0002158 0.0006291 0.0001072 -0.0001174 0.0000732 -0.0005697 0.0000291 -0.0004166 -0.0000167 -0.0007525 0.0000245 -0.0008186 -0.0000173 -0.0002352 -0.0000784 -0.0003146 0.0000297 -0.0000631 -0.0000135 -0.0000868 -0.0001052 -0.0002565 -0.0000573 -0.0011620 -0.0000030 -0.0005431 -0.0000564 -0.0011719 0.0000435 0.0001546 0.0000797 -0.0000836 0.0000262 -0.0002518 0.0001685 -0.0000169 0.0000069 0.0000263 0.0000703 0.0001205 0.0000221 -0.0003261 0.0002526 0.0006317 -0.0000022 0.0013919 -0.0006077 -0.0014827 0.0004537 0.0018295 -0.0005788 -0.0013982 0.0002669 0.0006248 -0.0003976 -0.0012603 0.0000628 0.0011330 0.0002062 0.0011784 0.0000419 0.0006394 -0.0000162 0.0002233 0.0000063 0.0003590 -0.0000555 0.0002296 -0.0000332 0.0006921 -0.0000694 0.0000212 -0.0000989 0.0004514 -0.0001145 0.0003719 -0.0000824 0.0008480 -0.0001482 0.0005550 0.0001234 0.0010856 -0.0000003 0.0007539 -0.0000457 0.0006311 -0.0001994 0.0006567 -0.0000473 0.0001127 0.0000178 0.0009458 0.0003481 0.0013933 0.0000873 0.0010670 0.0004583 0.0027744 -0.0001258 0.0009510 -0.0000544 0.0009533 -0.0000467 0.0006192 -0.0001437 0.0005019 -0.0000915 0.0009864 -0.0002058 0.0000025 -0.0000955 0.0005000 -0.0000905 0.0005837 0.0000381 0.0000487 -0.0003929 0.0013271 -0.0000137 0.0010671 0.0000412 0.0007741 0.0001106 0.0012620 0.0000999 0.0011303 0.0002686 0.0008902 -0.0012462 -0.0024494 0.0000760 0.0008294 0.0001216 0.0008734 -0.0002677 0.0000889 -0.0001541 0.0001264
-0.0000740 -0.0001171 0.0001977 0.0006162 0.0001101 -0.0002057 0.0000862 -0.0006552 0.0000321 -0.0003867 -0.0001103 -0.0005671 0.0000359 -0.0007801 0.0000215 -0.0002078 -0.0000873 -0.0002601 0.0000911 -0.0001058 -0.0000081 -0.0000642 -0.0000221 -0.0002539 -0.0000520 -0.0012695 -0.0000025 -0.0006427 -0.0000645 -0.0012468 0.0000473 0.0001039 0.0000829 -0.0000781 0.0000329 -0.0002570 0.0001868 -0.0000656 0.0000042 0.0000034 0.0000828 0.0000638 -0.0000055 -0.0004677 0.0002261 0.0004211 0.0000086 0.0014264 -0.0004992 -0.0012193 0.0003813 0.0016394 -0.0005512 -0.0013663 0.0002033 0.0004184 -0.0003571 -0.0011117 0.0000262 0.0012111 0.0002183 0.0011113 0.0000951 0.0003206 -0.0000152 0.0000759 -0.0000529 0.0002593 -0.0000578 0.0001440 -0.0000337 0.0006211 -0.0000457 -0.0001803 -0.0001440 0.0002723 -0.0001123 0.0002801 -0.0000878 0.0008291 -0.0001519 0.0004507 0.0000984 0.0010783 -0.0000226 0.0007814 -0.0001064 0.0005389 -0.0001929 0.0006038 -0.0000453 -0.0000678 0.0001677 0.0007499 0.0003792 0.0010592 0.0001148 0.0008801 0.0005051 0.0032079 -0.0001811 0.0008971 -0.0000806 0.0009214 -0.0000790 0.0004407 -0.0002494 0.0007115 -0.0001223 0.0009310 -0.0001209 0.0001608 -0.0001383 0.0004164 -0.0001019 0.0005578 0.0000783 0.0000844 -0.0024549 -0.0020186 -0.0000344 0.0009418 0.0000568 0.0007190 0.0000312 0.0009798 0.0000497 0.0008999 0.0001400 0.0005067 -0.0015953 -0.0028845 -0.0000020 0.0004813 0.0001639 0.0009916 -0.0002982 -0.0001598 -0.0001718 0.0000245
-0.0000764 -0.0001778 0.0002065 0.0005157 0.0001516 -0.0003610 0.0000823 -0.0008348 0.0000537 -0.0004611 -0.0000742 -0.0006679 0.0000261 -0.0007827 0.0000362 -0.0002336 -0.0000286 -0.0004022 0.0000499 -0.0001053 0.0000118 -0.0001156 0.0000036 -0.0002588 -0.0000722 -0.0015341 0.0000113 -0.0009832 -0.0000946 -0.0018810 0.0000710 -0.0000551 0.0000925 -0.0001972 0.0000406 -0.0003937 0.0001763 -0.0002116 -0.0000077 -0.0000519 0.0000832 -0.0000212 -0.0001856 -0.0010373 0.0001837 0.0000955 0.0000356 0.0014888 0.0001561 -0.0003736 0.0002646 0.0013920 -0.0006347 -0.0014118 0.0000381 -0.0000215 -0.0003059 -0.0009265 -0.0000440 0.0013508 0.0001411 0.0011527 0.0000369 0.0006519 -0.0000613 0.0002212 -0.0004999 0.0009181 -0.0000684 0.0001740 -0.0000417 0.0005774 -0.0001066 -0.0002731 -0.0001347 0.0002069 -0.0000592 0.0002436 -0.0000995 0.0007614 -0.0001802 0.0004175 0.0000974 0.0010454 -0.0001168 0.0006844 -0.0001618 0.0003727 -0.0001916 0.0004863 -0.0001047 0.0000684 0.0002050 0.0006583 0.0001931 0.0006002 0.0001340 0.0010381 0.0002366 0.0014328 -0.0002575 0.0005079 -0.0000934 0.0006029 -0.0001701 0.0001050 -0.0001671 0.0003065 -0.0001227 0.0005006 -0.0001238 -0.0001721 -0.0000380 0.0001463 -0.0000040 0.0005509 -0.0000332 -0.0001891 -0.0046785 -0.0080559 -0.0000630 0.0005461 0.0001155 0.0004755 -0.0001037 0.0002848 -0.0000278 0.0003324 -0.0007334 -0.0011032 -0.0027422 -0.0047941 -0.0002019 -0.0001612 0.0002184 0.0008331 -0.0004690 -0.0008160 -0.0002072 -0.0002651
-0.0000811 -0.0001335 0.0002080 0.0005942 0.0001711 -0.0003012 0.0000452 -0.0009476 0.0000177 -0.0003424 -0.0000561 -0.0006340 -0.0000379 -0.0010026 0.0000362 -0.0000678 -0.0000619 -0.0003263 -0.0000298 0.0000808 0.0000437 -0.0000329 0.0000358 -0.0000651 -0.0002206 -0.0028032 -0.0000774 -0.0023534 -0.0002410 -0.0037409 0.0000215 -0.0000226 0.0001362 -0.0001160 0.0000269 -0.0004831 0.0001592 -0.0001833 -0.0000047 -0.0000052 0.0000861 -0.0000257 -0.0003673 -0.0017578 0.0001299 -0.0002435 0.0000012 0.0016080 0.0003530 0.0000677 0.0001559 0.0010386 -0.0006259 -0.0015996 -0.0002547 -0.0007164 -0.0003039 -0.0008906 -0.0000661 0.0013571 0.0001189 0.0010579 -0.0000627 0.0006516 -0.0000573 0.0001284 -0.0004353 0.0008024 -0.0000980 0.0001307 -0.0000449 0.0004475 -0.0002021 -0.0003176 -0.0000853 0.0001975 0.0000100 0.0002041 -0.0000715 0.0007739 -0.0001705 0.0004352 0.0001077 0.0010557 -0.0001727 0.0005983 -0.0001947 0.0002431 -0.0002181 0.0003903 -0.0001526 0.0001847 0.0001940 0.0006405 0.0000064 0.0002601 0.0001895 0.0013781 -0.0000352 -0.0002803 -0.0003331 0.0002375 -0.0001822 0.0004435 -0.0002091 -0.0001108 -0.0000852 -0.0002491 -0.0001561 0.0001427 -0.0001904 -0.0005568 0.0000925 -0.0000595 0.0001030 0.0006714 -0.0001524 -0.0004921 -0.0048280 -0.0131491 -0.0001950 0.0001564 0.0001558 0.0003343 -0.0002174 -0.0000973 -0.0000380 0.0000533 -0.0013738 -0.0025757 -0.0034165 -0.0065927 -0.0003446 -0.0003735 0.0002506 0.0007284 -0.0005672 -0.0011296 -0.0002262 -0.0004063
-0.0000688 -0.0001468 0.0002485 0.0005076 0.0001872 -0.0003610 0.0000157 -0.0012698 0.0000052 -0.0003681 -0.0001288 -0.0006796 -0.0000875 -0.0014847 0.0000128 -0.0000477 -0.0000758 -0.0003314 -0.0000046 0.0000730 0.0000741 -0.0000224 0.0000591 0.0000254 -0.0004080 -0.0046818 -0.0001954 -0.0043521 -0.0003960 -0.0061236 0.0000415 -0.0000410 0.0001521 -0.0001698 0.0000166 -0.0007589 0.0001580 -0.0004081 0.0000044 -0.0000625 0.0001070 -0.0001591 -0.0004722 -0.0025136 0.0001094 -0.0006835 0.0001150 0.0016170 0.0002150 -0.0003407 0.0000587 0.0007003 -0.0005731 -0.0017724 -0.0004269 -0.0014490 -0.0003711 -0.0009657 -0.0000120 0.0013559 0.0002796 0.0006665 0.0000188 0.0002239 -0.0000301 -0.0002131 -0.0002312 0.0001860 -0.0001435 -0.0000984 -0.0000494 0.0004421 -0.0002217 -0.0003609 -0.0000831 0.0002323 0.0000355 0.0002096 -0.0000592 0.0007824 -0.0001393 0.0003938 0.0001183 0.0010399 -0.0002010 0.0005784 -0.0001909 0.0002107 -0.0002495 0.0003812 -0.0001429 0.0002515 0.0001283 0.0005473 -0.0000558 0.0000021 0.0001226 0.0010893 -0.0001038 -0.0005652 -0.0003691 0.0002191 -0.0002034 0.0005076 -0.0001763 -0.0001739 -0.0002144 -0.0000083 -0.0002152 0.0001172 -0.0001651 -0.0004631 -0.0000129 -0.0000219 0.0000390 0.0007026 -0.0002054 -0.0006024 -0.0065441 -0.0134540 -0.0002507 0.0000632 0.0001592 0.0003408 -0.0002754 -0.0002160 -0.0000389 0.0000434 -0.0014809 -0.0030475 -0.0032653 -0.0070353 -0.0003306 -0.0003459 0.0002921 0.0006113 -0.0005976 -0.0011541 -0.0002322 -0.0005121
-0.0000338 -0.0001275 0.0002537 0.0002751 0.0002265 -0.0003523 0.0000314 -0.0015417 0.0000393 -0.0004069 -0.0001649 -0.0007854 -0.0001164 -0.0017563 0.0000185 -0.0000905 0.0000084 -0.0003896 0.0000330 0.0000230 0.0001335 -0.0000556 0.0000365 0.0000158 -0.0004862 -0.0055685 -0.0002624 -0.0053986 -0.0004594 -0.0073659 0.0000630 -0.0001100 0.0001892 -0.0002553 0.0000180 -0.0010166 0.0001634 -0.0006098 0.0000147 -0.0000572 0.0001171 -0.0001621 -0.0006636 -0.0030572 0.0000575 -0.0010213 0.0004132 0.0016308 0.0003014 -0.0004596 -0.0000855 0.0003782 -0.0005742 -0.0015795 -0.0006419 -0.0017130 -0.0003917 -0.0008134 -0.0000096 0.0015813 0.0002956 0.0006012 -0.0000260 0.0003144 -0.0000948 -0.0002241 -0.0005359 0.0002662 -0.0002214 -0.0004956 -0.0000467 0.0004495 -0.0001846 -0.0004440 -0.0001073 0.0001840 0.0000443 0.0002070 -0.0000682 0.0007245 -0.0001705 0.0003097 0.0001135 0.0010139 -0.0001952 0.0005668 -0.0001831 0.0001421 -0.0002543 0.0002962 -0.0001104 0.0001977 0.0001110 0.0004770 -0.0000944 -0.0003284 0.0000517 0.0006374 -0.0000904 -0.0003087 -0.0003652 0.0002335 -0.0002085 0.0005686 -0.0001949 -0.0001400 -0.0002774 0.0003236 -0.0002132 0.0000426 -0.0000934 -0.0002636 -0.0002054 0.0000835 -0.0000915 0.0006013 -0.0002456 -0.0007593 -0.0063490 -0.0139651 -0.0002527 0.0000592 0.0001605 0.0002933 -0.0003353 -0.0002965 -0.0000533 0.0000150 -0.0016014 -0.0032994 -0.0033860 -0.0072466 -0.0002604 -0.0004382 0.0002870 0.0005136 -0.0006024 -0.0012534 -0.0002411 -0.0006505
-0.0000143 0.0000420 0.0002572 0.0003538 0.0003531 -0.0000686 0.0000406 -0.0015454 0.0000337 -0.0003008 -0.0001961 -0.0007952 -0.0001616 -0.0019673 0.0000382 0.0001273 -0.0000021 -0.0003357 0.0000068 0.0000531 0.0001428 0.0000007 -0.0000223 0.0000125 -0.0005095 -0.0056803 -0.0002692 -0.0054841 -0.0005124 -0.0078270 0.0000094 -0.0001512 0.0002115 -0.0001210 0.0000158 -0.0009214 0.0001263 -0.0005801 0.0000509 0.0000102 0.0001027 -0.0001054 -0.0010235 -0.0036556 -0.0000436 -0.0015483 0.0007672 0.0019153 -0.0006296 -0.0009054 -0.0001480 0.0002364 0.0001638 0.0004994 -0.0008161 -0.0018973 0.0001694 0.0005514 -0.0000522 0.0014532 0.0004077 0.0003810 -0.0003320 0.0002919 -0.0002143 -0.0006269 -0.0006572 -0.0000970 -0.0004713 -0.0014590 -0.0000305 0.0004519 -0.0001638 -0.0004847 -0.0001068 0.0001226 0.0000372 0.0001399 -0.0000670 0.0007717 -0.0001533 0.0003442 0.0001081 0.0009764 -0.0001388 0.0006722 -0.0001529 0.0001969 -0.0001933 0.0002918 -0.0000957 0.0001407 0.0001851 0.0005678 -0.0001337 -0.0005321 0.0000846 0.0006871 -0.0001342 -0.0005361 -0.0003870 0.0002643 -0.0002410 0.0005178 -0.0001914 -0.0002167 -0.0001989 0.0002112 -0.0001758 -0.0002057 -0.0001178 -0.0004122 -0.0002508 0.0002212 -0.0001150 0.0004351 -0.0001957 -0.0006841 -0.0045725 -0.0162332 -0.0001615 0.0001516 0.0001581 0.0001425 -0.0003779 -0.0004887 -0.0000325 -0.0000481 -0.0015312 -0.0035654 -0.0036056 -0.0074995 -0.0002403 -0.0006178 0.0002583 0.0003510 -0.0006021 -0.0013702 -0.0002321 -0.0008321
-0.0000019 0.0000898 0.0003737 0.0006916 0.0004176 -0.0000800 0.0000064 -0.0017295 0.0000412 -0.0003592 -0.0001104 -0.0007827 -0.0001595 -0.0020353 0.0000824 0.0002365 -0.0000684 -0.0004619 -0.0000072 0.0000390 0.0000753 0.0000088 -0.0000282 -0.0000638 -0.0004761 -0.0052475 -0.0001867 -0.0051503 -0.0005404 -0.0082800 -0.0000124 -0.0001972 0.0002027 -0.0001041 0.0000313 -0.0008481 0.0000835 -0.0005987 0.0000906 0.0000236 0.0000688 -0.0001630 -0.0014404 -0.0043963 -0.0001329 -0.0020906 0.0010531 0.0023520 -0.0014898 -0.0009533 -0.0000961 0.0003372 0.0007803 0.0023974 -0.0008361 -0.0021226 0.0007311 0.0018227 -0.0001497 0.0012553 0.0005474 0.0000428 -0.0005517 0.0002510 -0.0002922 -0.0011578 -0.0006368 -0.0005940 -0.0006789 -0.0023177 -0.0000296 0.0004175 -0.0001701 -0.0003706 -0.0000698 0.0001591 0.0000169 0.0000824 -0.0000382 0.0007122 -0.0000996 0.0004347 0.0000763 0.0009204 -0.0000839 0.0006860 -0.0001102 0.0002862 -0.0001474 0.0002744 -0.0001094 0.0002836 0.0001852 0.0005901 -0.0001211 -0.0003806 0.0001336 0.0009229 -0.0001666 -0.0009067 -0.0003945 0.0002204 -0.0002407 0.0004107 -0.0001535 -0.0003268 -0.0000262 -0.0000198 -0.0001827 -0.0003575 -0.0001508 -0.0005541 -0.0002121 0.0003651 -0.0000787 0.0004053 -0.0001866 -0.0007082 -0.0050795 -0.0158492 -0.0000983 0.0002036 0.0001552 0.0000558 -0.0003778 -0.0005374 0.0000216 0.0000577 -0.0015694 -0.0033715 -0.0036999 -0.0072683 -0.0002741 -0.0005951 0.0003196 0.0003442 -0.0006086 -0.0013543 -0.0002135 -0.0008591
0.0000205 0.0001118 0.0004215 0.0009149 0.0003498 -0.0001878 -0.0000282 -0.0018401 0.0000585 -0.0003302 -0.0000007 -0.0005007 -0.0001422 -0.0017335 0.0000713 0.0003683 -0.0000900 -0.0004091 0.0000152 0.0002085 0.0000507 0.0001037 -0.0000395 0.0000574 -0.0004181 -0.0045537 -0.0001434 -0.0046843 -0.0005359 -0.0082736 0.0000346 -0.0001582 0.0002398 -0.0000908 0.0000291 -0.0007762 0.0000422 -0.0004775 0.0000903 0.0001276 0.0000479 -0.0000899 -0.0016296 -0.0045865 -0.0001590 -0.0021283 0.0010683 0.0027159 -0.0015016 -0.0006658 -0.0000773 0.0003579 0.0008315 0.0027293 -0.0008570 -0.0022489 0.0008037 0.0020889 -0.0001857 0.0011815 0.0004370 0.0000730 -0.0004379 -0.0000376 -0.0003084 -0.0013158 -0.0007309 -0.0006240 -0.0006932 -0.0025115 -0.0000210 0.0003889 -0.0001694 -0.0003912 -0.0000573 0.0001073 0.0000076 0.0000370 0.0000000 0.0005646 -0.0001161 0.0004461 0.0000435 0.0008087 -0.0000801 0.0006488 -0.0001076 0.0002458 -0.0001631 0.0002419 -0.0001093 0.0001430 0.0002356 0.0003847 -0.0000739 -0.0003637 0.0001378 0.0008228 -0.0000590 -0.0002408 -0.0003117 0.0000793 -0.0002440 0.0003027 -0.0001644 -0.0003638 0.0000337 -0.0001765 -0.0002038 -0.0003934 -0.0001046 -0.0005359 -0.0001706 0.0003567 -0.0000205 0.0003703 -0.0001943 -0.0010463 -0.0050816 -0.0148181 -0.0001152 -0.0001248 0.0001754 -0.0001398 -0.0003706 -0.0006261 0.0000373 -0.0001097 -0.0014733 -0.0033982 -0.0036799 -0.0068536 -0.0002144 -0.0006433 0.0003796 0.0002859 -0.0005348 -0.0013977 -0.0001911 -0.0009032
0.0000513 0.0001265 0.0004683 0.0009413 0.0003235 -0.0002508 -0.0000381 -0.0018361 0.0000540 -0.0003015 0.0000124 -0.0002907 -0.0001421 -0.0016265 0.0001095 0.0003781 -0.0000793 -0.0002996 0.0000721 0.0002712 0.0000964 0.0001449 -0.0000070 0.0000850 -0.0003912 -0.0042315 -0.0001267 -0.0044055 -0.0005206 -0.0080636 0.0000934 -0.0001893 0.0002550 -0.0001076 0.0000138 -0.0006957 0.0000421 -0.0004885 0.0000836 0.0001178 0.0000518 -0.0000780 -0.0016230 -0.0045218 -0.0001370 -0.0020584 0.0009176 0.0027621 -0.0015497 -0.0008927 -0.0001156 0.0003334 0.0009621 0.0028083 -0.0008944 -0.0022766 0.0008111 0.0023114 -0.0000776 0.0009676 0.0003155 0.0000865 -0.0002040 -0.0004422 -0.0002773 -0.0014181 -0.0005867 -0.0010362 -0.0006519 -0.0025314 -0.0000129 0.0003094 -0.0001498 -0.0004761 -0.0000559 0.0000319 0.0000066 -0.0000285 0.0000078 0.0004420 -0.0001152 0.0004056 0.0000497 0.0006762 -0.0000704 0.0006711 -0.0001117 0.0001691 -0.0002040 0.0002414 -0.0000870 -0.0000670 0.0002885 0.0002300 -0.0000452 -0.0004036 0.0001265 0.0006766 -0.0000297 -0.0000211 -0.0002346 -0.0000678 -0.0002593 0.0002250 -0.0001507 -0.0004890 -0.0001176 -0.0001283 -0.0002168 -0.0004566 -0.0001006 -0.0006437 -0.0000930 0.0003531 0.0000509 0.0003401 -0.0000972 -0.0008855 -0.0054665 -0.0148167 -0.0000640 -0.0000710 0.0001746 -0.0002189 -0.0003449 -0.0006678 0.0000503 -0.0001515 -0.0014089 -0.0035441 -0.0034702 -0.0068052 -0.0001526 -0.0007223 0.0003816 0.0002502 -0.0005028 -0.0013893 -0.0001616 -0.0009331
0.0000866 0.0001182 0.0004794 0.0009285 0.0003130 -0.0003579 -0.0000270 -0.0018977 0.0000665 -0.0003627 -0.0000372 -0.0001955 -0.0001149 -0.0016466 0.0001383 0.0002649 -0.0000582 -0.0002783 0.0001462 0.0002335 0.0001163 0.0001348 0.0000832 -0.0000005 -0.0003461 -0.0040074 -0.0000981 -0.0041217 -0.0004806 -0.0077306 0.0000644 -0.0001548 0.0002093 -0.0000982 0.0000246 -0.0007139 0.0000428 -0.0005452 0.0000876 0.0000451 0.0000630 -0.0001171 -0.0015212 -0.0042963 -0.0001190 -0.0018735 0.0008266 0.0025503 -0.0015296 -0.0011196 -0.0001479 0.0003717 0.0009498 0.0028462 -0.0008356 -0.0020635 0.0008220 0.0023877 -0.0001281 0.0010841 0.0002330 0.0001063 -0.0000663 -0.0003003 -0.0002428 -0.0011866 -0.0007977 -0.0009247 -0.0005833 -0.0023325 -0.0000155 0.0002367 -0.0001473 -0.0004468 -0.0000333 0.0000113 0.0000070 -0.0000770 0.0000250 0.0003827 -0.0000926 0.0003836 0.0000562 0.0005888 -0.0000399 0.0006375 -0.0000889 0.0001595 -0.0001537 0.0001390 -0.0000736 -0.0000588 0.0002497 0.0001900 -0.0000311 -0.0003410 0.0001362 0.0006714 -0.0000549 -0.0002547 -0.0002407 -0.0001849 -0.0002529 0.0000854 -0.0001540 -0.0005867 -0.0002538 -0.0002133 -0.0002013 -0.0006273 -0.0001144 -0.0008395 -0.0000200 0.0002904 0.0001053 0.0001948 -0.0000116 -0.0008715 -0.0060341 -0.0140753 -0.0000634 -0.0002539 0.0001713 -0.0003062 -0.0003279 -0.0006986 0.0001071 -0.0001000 -0.0013262 -0.0034537 -0.0029436 -0.0068684 -0.0000500 -0.0007192 0.0004125 0.0002241 -0.0004684 -0.0012948 -0.0001382 -0.0008537
0.0001016 0.0001884 0.0004099 0.0009974 0.0003176 -0.0003796 -0.0000191 -0.0018366 0.0000798 -0.0003956 0.0000176 -0.0001966 -0.0001033 -0.0015523 0.0000694 0.0002789 -0.0000312 -0.0002111 0.0000854 0.0002970 0.0001104 0.0001842 0.0000805 0.0000434 -0.0002968 -0.0036340 -0.0000673 -0.0036270 -0.0004315 -0.0071031 0.0000741 -0.0001300 0.0001991 -0.0000740 0.0000368 -0.0006328 0.0000227 -0.0005145 0.0000884 0.0000277 0.0000662 -0.0001202 -0.0013936 -0.0039420 -0.0000891 -0.0016533 0.0008193 0.0023510 -0.0016696 -0.0014554 -0.0001109 0.0003152 0.0009532 0.0027949 -0.0006906 -0.0020358 0.0008740 0.0022968 -0.0001878 0.0011602 0.0002569 0.0000383 0.0000100 -0.0004387 -0.0001937 -0.0011472 -0.0006947 -0.0009303 -0.0005025 -0.0022055 -0.0000066 0.0001759 -0.0001410 -0.0005746 -0.0000426 -0.0001025 0.0000089 -0.0001269 0.0000472 0.0002833 -0.0000925 0.0002563 0.0000462 0.0004555 -0.0000390 0.0005457 -0.0000954 0.0000601 -0.0000934 -0.0000354 -0.0000583 -0.0003255 0.0002721 0.0000068 0.0000010 -0.0004593 0.0001027 0.0003358 0.0000281 0.0003667 -0.0002588 -0.0002989 -0.0002345 0.0000056 -0.0001433 -0.0005690 -0.0000906 -0.0003638 -0.0002065 -0.0006720 -0.0000820 -0.0008478 0.0000103 0.0001769 0.0001236 0.0001591 0.0000431 -0.0009089 -0.0047374 -0.0140867 -0.0000869 -0.0004183 0.0001884 -0.0003537 -0.0003115 -0.0007213 0.0001269 -0.0001717 -0.0014072 -0.0035052 -0.0030336 -0.0069751 -0.0000479 -0.0009109 0.0004467 0.0000730 -0.0004284 -0.0014257 -0.0001389 -0.0009581
0.0001312 0.0001544 0.0004372 0.0009108 0.0002952 -0.0004252 -0.0000059 -0.0018093 0.0000684 -0.0004492 0.0000981 -0.0003083 -0.0001056 -0.0015061 0.0000373 0.0001953 -0.0000064 -0.0002382 0.0000686 0.0002372 0.0001185 0.0001736 0.0000872 0.0000591 -0.0002448 -0.0033344 -0.0000252 -0.0031877 -0.0003766 -0.0064453 0.0001311 -0.0001891 0.0002738 -0.0002320 0.0000566 -0.0005865 0.0000406 -0.0005899 0.0001077 -0.0000497 0.0000849 -0.0001955 -0.0012507 -0.0036221 -0.0000486 -0.0014744 0.0008090 0.0020223 -0.0017241 -0.0019357 -0.0000463 0.0002056 0.0010031 0.0026300 -0.0006458 -0.0020236 0.0008290 0.0021885 -0.0001245 0.0010221 0.0003140 -0.0000791 -0.0000212 -0.0006522 -0.0001692 -0.0011925 -0.0004549 -0.0011410 -0.0004496 -0.0021325 -0.0000017 0.0000944 -0.0001389 -0.0006282 -0.0000228 -0.0001707 0.0000135 -0.0002201 0.0000623 0.0002008 -0.0000673 0.0001900 0.0000517 0.0003737 -0.0000200 0.0004756 -0.0000747 0.0000033 -0.0001272 -0.0001528 -0.0000753 -0.0003568 0.0003077 0.0000380 -0.0000548 -0.0007727 0.0001084 0.0001464 -0.0000489 -0.0000760 -0.0002378 -0.0004331 -0.0002064 -0.0002104 -0.0000585 -0.0006754 0.0000543 -0.0007781 -0.0002012 -0.0009616 -0.0001121 -0.0011058 0.0000377 0.0000271 0.0001448 0.0000005 0.0000136 -0.0010828 -0.0046727 -0.0140355 -0.0000732 -0.0005070 0.0002383 -0.0004279 -0.0003064 -0.0008023 0.0001357 -0.0002374 -0.0014273 -0.0036248 -0.0034139 -0.0068980 -0.0001242 -0.0009624 0.0004914 -0.0000446 -0.0004093 -0.0014874 -0.0001227 -0.0010292
0.0001211 0.0001379 0.0004663 0.0007994 0.0002617 -0.0004125 0.0000126 -0.0017174 0.0000593 -0.0004023 0.0000177 -0.0002068 -0.0000728 -0.0014554 0.0000734 0.0001719 0.0000180 -0.0001922 0.0001632 0.0002490 0.0001489 0.0001998 0.0000962 0.0001053 -0.0001843 -0.0030697 0.0000058 -0.0027525 -0.0003000 -0.0055778 0.0000541 -0.0001381 0.0002836 -0.0001673 0.0000627 -0.0005224 0.0000577 -0.0005213 0.0000954 -0.0000166 0.0001103 -0.0002114 -0.0011782 -0.0032755 -0.0000895 -0.0016061 0.0009068 0.0018195 -0.0017326 -0.0019911 -0.0000874 0.0000646 0.0009818 0.0026958 -0.0006270 -0.0019781 0.0006968 0.0020497 -0.0000923 0.0009628 0.0003775 -0.0000314 -0.0000934 -0.0007725 -0.0002390 -0.0013514 -0.0004000 -0.0010497 -0.0005851 -0.0025348 -0.0000051 0.0000343 -0.0001526 -0.0006008 0.0000156 -0.0001591 0.0000284 -0.0002706 0.0000966 0.0000950 -0.0000446 0.0001916 0.0000637 0.0002920 0.0000061 0.0003912 -0.0000282 -0.0000187 -0.0001032 -0.0001999 -0.0000902 -0.0002202 0.0002692 -0.0000055 -0.0001161 -0.0009846 0.0001019 -0.0000008 -0.0001471 -0.0007073 -0.0002106 -0.0005719 -0.0001982 -0.0003081 -0.0000297 -0.0008041 0.0000523 -0.0010321 -0.0001955 -0.0010854 -0.0001650 -0.0013044 0.0000823 -0.0000503 0.0001580 -0.0000382 -0.0000156 -0.0011660 -0.0042005 -0.0137328 -0.0000946 -0.0006484 0.0002738 -0.0003818 -0.0003170 -0.0007449 0.0001757 -0.0001595 -0.0013544 -0.0035224 -0.0032455 -0.0066871 -0.0000529 -0.0008691 0.0005016 -0.0000973 -0.0003715 -0.0014562 -0.0000961 -0.0010284
0.0001562 0.0002826 0.0004451 0.0005962 0.0004266 0.0000724 0.0000695 -0.0017585 0.0001029 -0.0002230 0.0000558 -0.0000039 -0.0000492 -0.0011332 0.0000897 0.0001205 0.0000077 -0.0002911 0.0001862 0.0002443 0.0001449 0.0000908 0.0000894 0.0000402 -0.0000962 -0.0023166 0.0000834 -0.0020411 -0.0002063 -0.0050728 0.0000524 -0.0002355 0.0003186 -0.0002328 0.0000593 -0.0006158 0.0000807 -0.0005591 0.0000917 -0.0000282 0.0001265 -0.0003174 -0.0014654 -0.0036507 -0.0001699 -0.0023365 0.0009385 0.0017946 -0.0016689 -0.0018247 -0.0000943 -0.0001238 0.0009009 0.0023639 -0.0006478 -0.0022711 0.0006782 0.0018057 -0.0001324 0.0008109 0.0003208 -0.0000528 -0.0002219 -0.0008407 -0.0002578 -0.0018432 -0.0006149 -0.0010720 -0.0007359 -0.0032166 0.0000025 0.0000380 -0.0001421 -0.0005981 0.0000227 -0.0001836 0.0000516 -0.0002629 0.0001283 -0.0000231 -0.0000320 0.0001355 0.0000926 0.0001819 0.0000311 0.0003408 -0.0000000 -0.0000542 -0.0000525 -0.0002694 -0.0000479 -0.0002649 0.0003124 -0.0000488 -0.0000745 -0.0008737 0.0001090 -0.0000730 -0.0001114 -0.0005506 -0.0001256 -0.0006777 -0.0002751 -0.0002982 0.0000585 -0.0009143 0.0000333 -0.0010998 -0.0001931 -0.0010415 -0.0001510 -0.0012565 0.0000647 -0.0000614 0.0001471 -0.0000327 -0.0000292 -0.0012947 -0.0031472 -0.0117078 -0.0001257 -0.0008781 0.0002850 -0.0003846 -0.0003173 -0.0006565 0.0002011 -0.0001514 -0.0013368 -0.0031744 -0.0029123 -0.0063962 -0.0000134 -0.0006401 0.0004681 -0.0001703 -0.0003300 -0.0013997 -0.0001005 -0.0011570
0.0002039 0.0002727 0.0004870 0.0003712 0.0005124 0.0002477 0.0001257 -0.0017263 0.0001813 -0.0001983 0.0001515 -0.0001291 0.0000072 -0.0007398 0.0001031 0.0000522 -0.0000045 -0.0004618 0.0002361 0.0001036 0.0000839 -0.0000150 0.0001160 -0.0001346 0.0000165 -0.0011809 0.0001612 -0.0013088 -0.0001399 -0.0046368 0.0001719 -0.0002813 0.0003421 -0.0004749 0.0000804 -0.0006815 0.0001232 -0.0007002 0.0001198 -0.0000953 0.0000949 -0.0003425 -0.0016808 -0.0040492 -0.0001543 -0.0022778 0.0007444 0.0022398 -0.0015384 -0.0017898 0.0000248 0.0002243 0.0008184 0.0020060 -0.0007683 -0.0022806 0.0006944 0.0018880 -0.0001488 0.0006867 0.0002952 -0.0001512 -0.0002983 -0.0006860 -0.0002691 -0.0020083 -0.0007266 -0.0011380 -0.0007501 -0.0033412 0.0000352 0.0001391 -0.0001165 -0.0005632 0.0000429 -0.0002093 0.0001252 -0.0001896 0.0001345 0.0000168 0.0000300 0.0001846 0.0001350 0.0000622 0.0000717 0.0003088 0.0000008 -0.0001888 -0.0000151 -0.0003934 -0.0000556 -0.0001232 0.0003160 0.0000171 -0.0000125 -0.0005528 0.0001690 0.0001921 -0.0000171 -0.0003672 -0.0000839 -0.0006104 -0.0002140 -0.0003240 0.0001403 -0.0008799 0.0000737 -0.0008728 -0.0002021 -0.0010296 0.0000315 -0.0005852 -0.0000950 0.0000066 0.0000195 -0.0001636 -0.0001257 -0.0016387 -0.0024362 -0.0080553 -0.0002144 -0.0012309 0.0003028 -0.0004897 -0.0004157 -0.0008734 0.0001830 -0.0002197 -0.0010251 -0.0027032 -0.0026838 -0.0058734 -0.0000133 -0.0003536 0.0004147 -0.0004079 -0.0002605 -0.0012020 -0.0001009 -0.0012912
0.0001817 0.0001957 0.0005071 0.0004908 0.0003845 0.0000004 0.0001191 -0.0014293 0.0001755 -0.0001949 0.0001973 -0.0002840 0.0000322 -0.0004643 0.0001135 0.0001874 0.0000528 -0.0003861 0.0002156 0.0001466 0.0000968 0.0000630 0.0000431 -0.0000734 0.0000873 -0.0004567 0.0001734 -0.0008607 -0.0001080 -0.0038380 0.0001446 -0.0001655 0.0002866 -0.0004676 0.0000874 -0.0005193 0.0001441 -0.0007301 0.0001066 -0.0000881 0.0000791 -0.0003061 -0.0015713 -0.0037771 -0.0001023 -0.0019411 0.0007723 0.0020696 -0.0014128 -0.0015018 -0.0000064 0.0001262 0.0008180 0.0019345 -0.0007503 -0.0023958 0.0007535 0.0018577 -0.0001492 0.0006815 0.0002273 -0.0002583 -0.0003132 -0.0010479 -0.0002742 -0.0020833 -0.0003796 -0.0016377 -0.0006903 -0.0032628 0.0000604 0.0002651 -0.0001017 -0.0004716 0.0000979 -0.0001430 0.0001807 -0.0002021 0.0001412 -0.0000225 0.0001105 0.0003456 0.0001629 0.0000067 0.0001177 0.0002274 -0.0000040 -0.0003862 -0.0000064 -0.0005351 -0.0000615 -0.0000608 0.0002926 -0.0000522 0.0000328 -0.0002261 0.0002485 0.0004571 0.0000571 -0.0003610 -0.0000807 -0.0006593 -0.0001327 -0.0003811 0.0001398 -0.0008302 0.0001060 -0.0006818 -0.0002218 -0.0011242 0.0002317 0.0000483 -0.0001860 0.0000452 -0.0000822 -0.0002704 -0.0001340 -0.0017815 -0.0019267 -0.0065552 -0.0002652 -0.0013337 0.0002883 -0.0006137 -0.0005646 -0.0012925 0.0001382 -0.0003183 -0.0009740 -0.0023963 -0.0027382 -0.0055056 -0.0000040 -0.0003901 0.0003261 -0.0007912 -0.0002178 -0.0012916 -0.0001392 -0.0015300
0.0002141 0.0001350 0.0004711 0.0004619 0.0003419 -0.0001282 0.0001095 -0.0013713 0.0001931 -0.0003096 0.0002493 -0.0003493 0.0000463 -0.0005298 0.0001330 0.0000663 0.0001373 -0.0004153 0.0001825 0.0001542 0.0001754 0.0000151 0.0000080 -0.0000052 0.0001312 -0.0002321 0.0002052 -0.0006232 -0.0000732 -0.0032694 0.0001957 -0.0001852 0.0003062 -0.0005493 0.0000955 -0.0005597 0.0001062 -0.0008143 0.0001072 -0.0001469 0.0001005 -0.0003922 -0.0014655 -0.0036080 -0.0000562 -0.0017687 0.0008714 0.0013583 -0.0014787 -0.0015005 -0.0001013 -0.0002630 0.0008444 0.0017767 -0.0006944 -0.0026751 0.0008027 0.0016850 -0.0001928 0.0005753 0.0001442 -0.0004236 -0.0002458 -0.0013295 -0.0002207 -0.0022609 -0.0004807 -0.0018711 -0.0006275 -0.0032581 0.0000650 0.0001698 -0.0000926 -0.0006043 0.0000999 -0.0002489 0.0002226 -0.0002511 0.0001498 -0.0002198 0.0001243 0.0002593 0.0002010 0.0000616 0.0001398 0.0001118 -0.0000600 -0.0006541 -0.0000455 -0.0006408 -0.0000260 -0.0002335 0.0003568 -0.0002836 0.0001157 0.0001720 0.0003040 0.0005600 0.0001080 -0.0003190 -0.0000599 -0.0007549 -0.0001598 -0.0003846 0.0001737 -0.0009466 0.0001453 -0.0005482 -0.0002462 -0.0012456 0.0003909 0.0002897 -0.0002049 0.0000551 -0.0001167 -0.0004666 -0.0000750 -0.0017383 -0.0019958 -0.0073266 -0.0002539 -0.0012908 0.0002566 -0.0006882 -0.0005911 -0.0015078 0.0001237 -0.0004451 -0.0010687 -0.0022498 -0.0027958 -0.0052286 -0.0000356 -0.0004453 0.0003032 -0.0010716 -0.0002489 -0.0014534 -0.0001547 -0.0017882
0.0002114 0.0000519 0.0005328 0.0003568 0.0002996 -0.0003222 0.0000887 -0.0014031 0.0001983 -0.0005614 0.0002676 -0.0004380 0.0000783 -0.0007929 0.0001223 -0.0001505 0.0001642 -0.0004370 0.0002973 0.0000459 0.0002052 -0.0000344 0.0001220 -0.0001079 0.0001570 -0.0000632 0.0002365 -0.0004355 -0.0000442 -0.0028258 0.0003340 -0.0001293 0.0003297 -0.0005905 0.0001088 -0.0006462 0.0001017 -0.0008416 0.0001168 -0.0001337 0.0000933 -0.0003755 -0.0011319 -0.0031499 0.0000830 -0.0008620 0.0005614 0.0010751 -0.0011737 -0.0011040 -0.0002012 -0.0003938 0.0008073 0.0015226 -0.0008540 -0.0023496 0.0007152 0.0018824 -0.0000870 0.0006600 0.0002920 -0.0003307 -0.0000729 -0.0009440 -0.0001446 -0.0019397 -0.0005186 -0.0013750 -0.0004703 -0.0025438 0.0000807 0.0000577 -0.0000718 -0.0007592 0.0000734 -0.0005454 0.0002768 -0.0002579 0.0001580 -0.0003838 0.0001197 0.0000962 0.0002296 0.0000301 0.0001579 0.0000297 -0.0001055 -0.0008091 -0.0000423 -0.0007073 -0.0000316 -0.0002655 0.0003765 -0.0004638 0.0001660 0.0003967 0.0003116 0.0005554 0.0001249 -0.0004597 -0.0000119 -0.0008496 -0.0001453 -0.0004761 0.0001996 -0.0010892 0.0002090 -0.0004422 -0.0002578 -0.0013576 0.0004967 0.0004727 -0.0002539 0.0000846 -0.0001866 -0.0007752 -0.0000824 -0.0017375 -0.0017700 -0.0079830 -0.0002569 -0.0012890 0.0002411 -0.0008236 -0.0005988 -0.0016571 0.0001107 -0.0006295 -0.0009245 -0.0021753 -0.0025863 -0.0052477 -0.0000212 -0.0004571 0.0003156 -0.0011976 -0.0002274 -0.0014318 -0.0001142 -0.0018383
0.0001704 0.0001089 0.0005385 0.0004055 0.0002164 -0.0002694 0.0001045 -0.0012284 0.0001471 -0.0005049 0.0002382 -0.0003658 0.0000843 -0.0007926 0.0000707 -0.0001396 0.0001676 -0.0002029 0.0003738 0.0000412 0.0002025 0.0001025 0.0001895 -0.0000186 0.0001650 0.0001072 0.0002098 -0.0000981 -0.0000197 -0.0020383 0.0002993 0.0001177 0.0002952 -0.0003592 0.0000914 -0.0005061 0.0001152 -0.0006534 0.0001057 -0.0000146 0.0001088 -0.0002806 -0.0008572 -0.0025779 0.0001889 -0.0002686 0.0002991 0.0009430 -0.0003650 -0.0007422 -0.0003192 -0.0005781 0.0007186 0.0012493 -0.0008434 -0.0021866 0.0006404 0.0018501 0.0000230 0.0009018 0.0004392 -0.0002504 -0.0000046 -0.0009856 -0.0001045 -0.0015341 -0.0003515 -0.0011095 -0.0002405 -0.0015913 0.0000838 -0.0000699 -0.0000815 -0.0006889 0.0000958 -0.0006876 0.0002569 -0.0004204 0.0001670 -0.0005030 0.0001327 0.0000959 0.0002382 -0.0001362 0.0001792 -0.0000408 -0.0000581 -0.0007484 -0.0000388 -0.0007125 -0.0000204 -0.0001482 0.0003750 -0.0004994 0.0001525 0.0003788 0.0003242 0.0005306 0.0000310 -0.0011755 -0.0000527 -0.0010304 -0.0001998 -0.0005968 0.0001951 -0.0012873 0.0002301 -0.0007622 -0.0002541 -0.0014837 0.0003591 0.0000668 -0.0001588 -0.0000442 -0.0001232 -0.0008214 -0.0000311 -0.0015650 -0.0020399 -0.0087328 -0.0002054 -0.0010365 0.0001986 -0.0009419 -0.0006083 -0.0017374 0.0000868 -0.0007336 -0.0009706 -0.0021698 -0.0025805 -0.0052445 0.0000088 -0.0004664 0.0003313 -0.0012676 -0.0001399 -0.0014260 -0.0000790 -0.0018007
0.0001571 0.0001208 0.0004241 0.0003195 0.0001636 -0.0002465 0.0001249 -0.0011516 0.0001143 -0.0004898 0.0001598 -0.0004139 0.0001136 -0.0007930 0.0000669 -0.0002552 0.0001984 -0.0001585 0.0003858 -0.0000821 0.0002499 0.0000784 0.0001818 0.0000362 0.0001556 -0.0002691 0.0001868 -0.0002468 -0.0000154 -0.0018877 0.0002603 0.0001383 0.0002474 -0.0003429 0.0001033 -0.0005347 0.0001836 -0.0007206 0.0000987 -0.0000574 0.0001532 -0.0003203 -0.0007669 -0.0024248 0.0002325 -0.0001452 0.0003273 0.0007571 0.0001423 -0.0008354 -0.0003522 -0.0006573 0.0006804 0.0008439 -0.0007891 -0.0022440 0.0006275 0.0016254 0.0000604 0.0009399 0.0003723 -0.0001459 0.0000138 -0.0012130 -0.0000255 -0.0015852 -0.0002244 -0.0011824 -0.0001857 -0.0012764 0.0000634 -0.0003574 -0.0000984 -0.0007034 0.0001168 -0.0007411 0.0001704 -0.0006479 0.0002001 -0.0006292 0.0001115 -0.0000359 0.0002312 -0.0003143 0.0002136 -0.0001490 -0.0000272 -0.0007020 -0.0000587 -0.0006895 0.0000146 -0.0000561 0.0003241 -0.0005794 0.0001651 0.0003703 0.0002901 0.0002760 -0.0000566 -0.0016341 -0.0000481 -0.0011538 -0.0001986 -0.0005992 0.0002288 -0.0014982 0.0002890 -0.0012145 -0.0002305 -0.0014048 0.0000685 -0.0007423 0.0000903 -0.0002711 0.0000732 -0.0004531 0.0000892 -0.0010489 -0.0034518 -0.0105621 -0.0001387 -0.0005713 0.0001635 -0.0009550 -0.0006074 -0.0017626 0.0000698 -0.0007174 -0.0010249 -0.0024637 -0.0025225 -0.0054117 -0.0000031 -0.0006298 0.0003917 -0.0012908 -0.0001445 -0.0014783 -0.0000469 -0.0017637
0.0001595 0.0000237 0.0004743 0.0002039 0.0001704 -0.0003688 0.0000827 -0.0013100 0.0001221 -0.0007281 0.0001081 -0.0005985 0.0001096 -0.0012349 0.0000451 -0.0004061 0.0002243 -0.0003146 0.0003953 -0.0002148 0.0002526 -0.0000530 0.0001623 -0.0001167 0.0000785 -0.0011828 0.0001622 -0.0010975 -0.0000786 -0.0029244 0.0002873 0.0000285 0.0002646 -0.0004494 0.0001189 -0.0007289 0.0002271 -0.0008489 0.0001025 -0.0001244 0.0001583 -0.0003481 -0.0006917 -0.0024565 0.0002617 0.0000376 0.0002903 0.0005163 0.0003134 -0.0004932 -0.0003630 -0.0007519 0.0007130 0.0005133 -0.0008219 -0.0020633 0.0005894 0.0016647 0.0000282 0.0011683 0.0002640 -0.0000421 -0.0000900 -0.0008016 0.0000469 -0.0014284 -0.0001358 -0.0009393 -0.0001863 -0.0009748 0.0000424 -0.0006267 -0.0001011 -0.0007349 0.0001344 -0.0008623 0.0000923 -0.0008805 0.0002470 -0.0008606 0.0000583 -0.0002433 0.0002136 -0.0005074 0.0002663 -0.0002870 -0.0000125 -0.0006885 -0.0000816 -0.0007845 -0.0000117 -0.0000054 0.0003666 -0.0006463 0.0001602 0.0001497 0.0002823 0.0000002 -0.0000961 -0.0018678 0.0000531 -0.0013674 -0.0001748 -0.0008215 0.0002915 -0.0017393 0.0001864 -0.0017687 -0.0001886 -0.0015647 -0.0001634 -0.0016325 0.0002915 -0.0005619 0.0002227 -0.0003940 0.0001470 -0.0008053 -0.0046347 -0.0120819 -0.0000943 -0.0004274 0.0001758 -0.0010786 -0.0006230 -0.0019167 0.0000549 -0.0008246 -0.0009796 -0.0028133 -0.0024851 -0.0055752 -0.0000314 -0.0008578 0.0004252 -0.0013007 -0.0001718 -0.0016414 -0.0000296 -0.0017851
0.0001520 0.0000362 0.0004909 0.0002988 0.0001869 -0.0003366 0.0000822 -0.0013702 0.0001317 -0.0007282 0.0001429 -0.0006328 0.0000780 -0.0015729 0.0000523 -0.0003283 0.0002189 -0.0002310 0.0003464 -0.0001073 0.0002390 0.0000057 0.0001092 -0.0000694 -0.0000292 -0.0018974 0.0000996 -0.0017921 -0.0001649 -0.0037223 0.0003151 0.0000678 0.0003252 -0.0002926 0.0000739 -0.0006366 0.0001595 -0.0005928 0.0000940 0.0000179 0.0001520 -0.0001885 -0.0006409 -0.0023392 0.0002526 0.0002386 0.0002091 0.0007512 0.0003373 -0.0005133 -0.0003479 -0.0005693 0.0006225 0.0008269 -0.0007551 -0.0019143 0.0006116 0.0017041 -0.0000242 0.0015317 0.0003275 0.0000785 -0.0000794 -0.0005202 0.0000281 -0.0011593 -0.0005079 -0.0003599 -0.0001482 -0.0006770 0.0000449 -0.0007516 -0.0001105 -0.0007877 0.0001406 -0.0010097 0.0000899 -0.0010328 0.0002631 -0.0009900 0.0000419 -0.0004148 0.0002253 -0.0006823 0.0002945 -0.0004876 0.0000053 -0.0008094 -0.0000934 -0.0009118 -0.0000423 -0.0000480 0.0003610 -0.0006451 0.0001060 -0.0002384 0.0002761 -0.0002432 -0.0001032 -0.0018889 0.0000893 -0.0014313 -0.0001524 -0.0009299 0.0002776 -0.0017571 0.0000870 -0.0017510 -0.0002089 -0.0016259 -0.0001823 -0.0016828 0.0002847 -0.0007306 0.0001887 -0.0003275 0.0000468 -0.0007513 -0.0040400 -0.0118851 -0.0001178 -0.0001018 0.0001572 -0.0008238 -0.0006186 -0.0014408 0.0000279 -0.0007148 -0.0009923 -0.0025943 -0.0024760 -0.0051629 -0.0000637 -0.0004156 0.0003979 -0.0007570 -0.0001880 -0.0013335 -0.0000621 -0.0013384
0.0001458 0.0001226 0.0004315 0.0004360 0.0001857 -0.0002809 0.0000797 -0.0013863 0.0001156 -0.0006394 0.0002169 -0.0005955 0.0000601 -0.0015969 0.0000147 -0.0002035 0.0002058 -0.0001565 0.0003240 -0.0000780 0.0002545 0.0000412 0.0001199 -0.0000272 -0.0000809 -0.0022960 0.0000625 -0.0021142 -0.0002186 -0.0040374 0.0003077 0.0000899 0.0003199 -0.0002009 0.0000993 -0.0005872 0.0001445 -0.0004956 0.0000860 0.0000734 0.0001512 -0.0001354 -0.0005586 -0.0022489 0.0002654 0.0003013 0.0003001 0.0007695 0.0001607 -0.0006851 -0.0003364 -0.0005433 0.0005750 0.0009795 -0.0007573 -0.0018862 0.0006661 0.0015996 0.0000379 0.0014981 0.0004471 0.0001383 0.0002934 -0.0008826 -0.0000118 -0.0011526 -0.0002842 -0.0005957 -0.0001215 -0.0006017 0.0000583 -0.0003593 -0.0000873 -0.0008227 0.0001099 -0.0006911 0.0001068 -0.0007744 0.0002521 -0.0006520 0.0000486 -0.0004205 0.0002488 -0.0005789 0.0002730 -0.0004211 -0.0000107 -0.0007985 -0.0000886 -0.0007428 -0.0000193 -0.0000410 0.0002657 -0.0006315 0.0000372 -0.0005557 0.0001729 -0.0006346 -0.0000715 -0.0013811 0.0000745 -0.0012337 -0.0001185 -0.0007358 0.0002382 -0.0014600 0.0000475 -0.0012624 -0.0002060 -0.0014614 -0.0000647 -0.0012321 0.0002161 -0.0008034 0.0001262 -0.0003473 -0.0000584 -0.0009418 -0.0028978 -0.0115530 -0.0001921 -0.0001730 0.0001095 -0.0007687 -0.0006174 -0.0012883 -0.0000080 -0.0007446 -0.0009017 -0.0026199 -0.0025347 -0.0048749 -0.0000729 -0.0004176 0.0003951 -0.0007239 -0.0002073 -0.0013086 -0.0000851 -0.0012185
0.0001601 0.0001121 0.0004827 0.0004742 0.0001851 -0.0003293 0.0000623 -0.0014636 0.0001366 -0.0007501 0.0002107 -0.0005711 0.0000497 -0.0017766 0.0000090 -0.0002652 0.0002077 -0.0002135 0.0003139 -0.0001805 0.0002275 0.0000027 0.0001784 -0.0001214 -0.0001045 -0.0026101 0.0000619 -0.0022957 -0.0002423 -0.0042377 0.0002980 0.0000657 0.0003242 -0.0002783 0.0001314 -0.0006615 0.0001633 -0.0005551 0.0000968 0.0000175 0.0001356 -0.0001624 -0.0005132 -0.0022402 0.0002867 0.0002967 0.0003640 0.0005842 0.0000651 -0.0005878 -0.0003552 -0.0005682 0.0006535 0.0008635 -0.0007977 -0.0018491 0.0006064 0.0015941 -0.0000186 0.0015517 0.0004640 0.0001667 0.0003794 -0.0009176 -0.0000498 -0.0010965 0.0000974 -0.0009039 -0.0001111 -0.0005033 0.0000591 -0.0003746 -0.0000826 -0.0008776 0.0000871 -0.0007901 0.0001079 -0.0007943 0.0002396 -0.0006932 0.0000345 -0.0004599 0.0002778 -0.0005904 0.0002886 -0.0004232 -0.0000157 -0.0007931 -0.0000701 -0.0007480 -0.0000062 -0.0002036 0.0003492 -0.0006796 -0.0000439 -0.0009447 0.0001039 -0.0009792 -0.0000737 -0.0011786 0.0000980 -0.0012636 -0.0001518 -0.0007180 0.0002891 -0.0014490 0.0000349 -0.0011576 -0.0002053 -0.0015184 -0.0000203 -0.0011385 0.0001986 -0.0009062 0.0000866 -0.0005340 -0.0000450 -0.0009955 -0.0035185 -0.0107654 -0.0002226 -0.0003096 0.0000643 -0.0008084 -0.0006153 -0.0013444 -0.0000159 -0.0007046 -0.0008716 -0.0027044 -0.0025806 -0.0047480 -0.0000629 -0.0005211 0.0003755 -0.0008088 -0.0001918 -0.0013952 -0.0000766 -0.0012459
0.0001380 0.0001259 0.0005180 0.0004882 0.0001756 -0.0003187 0.0000630 -0.0014255 0.0001271 -0.0007122 0.0001090 -0.0004204 0.0000371 -0.0017125 0.0000317 -0.0002364 0.0002077 -0.0001522 0.0002687 -0.0001099 0.0002090 0.0000370 0.0001726 -0.0000508 -0.0000921 -0.0023934 0.0000739 -0.0019650 -0.0002224 -0.0038243 0.0003077 0.0000739 0.0003302 -0.0001886 0.0000952 -0.0005702 0.0001592 -0.0004518 0.0001134 0.0000633 0.0001335 -0.0000966 -0.0005558 -0.0021774 0.0002651 0.0003077 0.0002969 0.0009125 0.0000054 -0.0004621 -0.0003484 -0.0003075 0.0006491 0.0012462 -0.0008385 -0.0018734 0.0005240 0.0018120 -0.0001078 0.0016877 0.0005393 0.0001818 0.0000306 -0.0005633 -0.0000482 -0.0011455 -0.0000941 -0.0009994 -0.0001533 -0.0006323 0.0000603 -0.0005098 -0.0000844 -0.0009168 0.0000634 -0.0009162 0.0000978 -0.0008327 0.0002426 -0.0007366 0.0000228 -0.0005175 0.0002664 -0.0005958 0.0003272 -0.0004642 -0.0000116 -0.0007795 -0.0000882 -0.0006920 0.0000065 -0.0002607 0.0003386 -0.0006171 -0.0000651 -0.0010464 0.0000845 -0.0011233 -0.0000248 -0.0007147 0.0001597 -0.0011524 -0.0001776 -0.0004934 0.0003585 -0.0014122 0.0001210 -0.0008954 -0.0002379 -0.0012563 -0.0000149 -0.0009072 0.0002066 -0.0008650 0.0000591 -0.0002776 -0.0000233 -0.0005572 -0.0047362 -0.0090318 -0.0002455 0.0001422 0.0000250 -0.0004083 -0.0006222 -0.0008839 -0.0000092 -0.0002643 -0.0009490 -0.0023217 -0.0023257 -0.0045833 -0.0000823 -0.0001520 0.0003054 -0.0003360 -0.0002277 -0.0011258 -0.0000978 -0.0009204
0.0001271 0.0002280 0.0005038 0.0004770 0.0002124 -0.0002867 0.0000591 -0.0013118 0.0001052 -0.0005169 0.0000636 -0.0001694 0.0000380 -0.0012844 0.0000990 -0.0000126 0.0002051 -0.0000879 0.0002472 0.0000016 0.0002228 0.0000726 0.0001711 0.0000721 -0.0000384 -0.0017302 0.0001240 -0.0013047 -0.0001698 -0.0031565 0.0002351 0.0000391 0.0003220 -0.0001427 0.0001177 -0.0004550 0.0001782 -0.0004035 0.0001275 0.0000729 0.0001300 -0.0000566 -0.0006977 -0.0022329 0.0002098 0.0000216 0.0004703 0.0019563 -0.0009208 -0.0014012 -0.0001708 0.0002624 0.0008058 0.0019677 -0.0008287 -0.0020691 0.0006412 0.0017487 -0.0001188 0.0015195 0.0006057 -0.0001858 -0.0000744 -0.0006687 -0.0000964 -0.0014534 -0.0005067 -0.0009359 -0.0002460 -0.0011058 0.0000631 -0.0002947 -0.0000543 -0.0008231 0.0000496 -0.0008011 0.0000838 -0.0007121 0.0002308 -0.0005980 0.0000104 -0.0004373 0.0002640 -0.0004969 0.0003585 -0.0004320 0.0000041 -0.0006835 -0.0001078 -0.0005655 0.0000163 -0.0002246 0.0003578 -0.0005428 -0.0000339 -0.0008516 0.0001072 -0.0009859 0.0000435 -0.0002940 0.0000876 -0.0010267 -0.0001714 -0.0004631 0.0003084 -0.0013025 0.0001007 -0.0008633 -0.0002190 -0.0012580 -0.0000016 -0.0008913 0.0002045 -0.0008569 0.0000583 -0.0004119 -0.0000211 -0.0005854 -0.0047394 -0.0080246 -0.0002825 0.0000528 -0.0000229 -0.0004141 -0.0006027 -0.0009055 -0.0000219 -0.0002589 -0.0008702 -0.0022619 -0.0021781 -0.0046252 -0.0001106 -0.0001628 0.0002787 -0.0003082 -0.0002520 -0.0011558 -0.0001160 -0.0008695
0.0001510 0.0002592 0.0004586 0.0005463 0.0002600 -0.0002868 0.0000894 -0.0012442 0.0001125 -0.0004058 0.0000987 0.0000146 0.0000558 -0.0009136 0.0001457 0.0001635 0.0001821 -0.0001019 0.0002881 0.0000396 0.0002473 0.0000371 0.0002487 0.0000431 0.0000562 -0.0009130 0.0001864 -0.0005182 -0.0000838 -0.0023477 0.0002104 -0.0001036 0.0003567 -0.0002098 0.0001461 -0.0004364 0.0001792 -0.0003838 0.0001187 0.0000434 0.0001209 -0.0000702 -0.0008660 -0.0023016 0.0001536 -0.0004010 0.0005625 0.0027424 -0.0019046 -0.0026459 -0.0000144 0.0007448 0.0010349 0.0025934 -0.0008288 -0.0020454 0.0007187 0.0017256 -0.0000804 0.0015834 0.0006203 -0.0004300 -0.0001244 -0.0007118 -0.0001398 -0.0015383 -0.0009577 -0.0003581 -0.0003240 -0.0013936 0.0000495 -0.0003659 -0.0000495 -0.0007239 0.0000565 -0.0008631 0.0000788 -0.0007261 0.0001924 -0.0006663 0.0000322 -0.0003957 0.0002721 -0.0005089 0.0003605 -0.0004954 0.0000285 -0.0006206 -0.0001254 -0.0005591 -0.0000066 -0.0001687 0.0003698 -0.0004170 -0.0000212 -0.0006427 0.0001551 -0.0006791 0.0000261 -0.0005941 0.0000152 -0.0011052 -0.0001318 -0.0006504 0.0002426 -0.0013283 0.0000867 -0.0011046 -0.0001870 -0.0014937 -0.0000186 -0.0010655 0.0002061 -0.0008804 0.0000361 -0.0006269 -0.0000313 -0.0007870 -0.0043744 -0.0070092 -0.0002747 -0.0001275 -0.0000235 -0.0005519 -0.0005816 -0.0010114 -0.0000447 -0.0003646 -0.0008242 -0.0022478 -0.0023608 -0.0045976 -0.0001386 -0.0001462 0.0002684 -0.0003010 -0.0002266 -0.0011630 -0.0001205 -0.0008324
0.0001591 0.0002983 0.0004601 0.0006623 0.0002583 -0.0001850 0.0001085 -0.0009972 0.0001351 -0.0002414 0.0002025 0.0001460 0.0000877 -0.0004307 0.0001322 0.0003272 0.0001621 0.0000093 0.0003209 0.0001941 0.0002272 0.0001479 0.0002883 0.0000807 0.0001615 0.0002505 0.0002344 0.0005080 0.0000303 -0.0011324 0.0002114 -0.0000889 0.0003548 -0.0001174 0.0001187 -0.0002912 0.0001661 -0.0002105 0.0001178 0.0001359 0.0001006 0.0000320 -0.0009689 -0.0022287 0.0001205 -0.0004968 0.0004322 0.0031313 -0.0019455 -0.0028166 -0.0000209 0.0010798 0.0011570 0.0029894 -0.0008041 -0.0017320 0.0006982 0.0019553 -0.0000838 0.0018861 0.0006847 -0.0003548 -0.0002274 -0.0005014 -0.0001360 -0.0014929 -0.0006468 -0.0006674 -0.0003442 -0.0015158 0.0000283 -0.0003669 -0.0000614 -0.0006778 0.0000295 -0.0006692 0.0000874 -0.0005267 0.0001424 -0.0005057 0.0000410 -0.0003592 0.0002377 -0.0003820 0.0002795 -0.0004406 0.0000324 -0.0005385 -0.0001497 -0.0003888 0.0000056 0.0000763 0.0002261 -0.0002599 0.0000027 -0.0002878 0.0001513 -0.0004274 0.0000173 -0.0007840 -0.0000071 -0.0009230 -0.0001371 -0.0003966 0.0002325 -0.0011979 0.0000518 -0.0008215 -0.0002007 -0.0012160 -0.0000260 -0.0008484 0.0001903 -0.0007312 0.0000126 -0.0003246 -0.0000723 -0.0004374 -0.0033944 -0.0062980 -0.0002849 0.0003392 -0.0000232 -0.0001649 -0.0006022 -0.0006555 -0.0000677 -0.0000915 -0.0007878 -0.0019937 -0.0025016 -0.0043315 -0.0001214 0.0000380 0.0002424 -0.0000698 -0.0002565 -0.0010236 -0.0001528 -0.0006646
0.0001782 0.0003362 0.0004855 0.0006956 0.0002414 -0.0001171 0.0001041 -0.0007695 0.0001499 -0.0001398 0.0001958 0.0002558 0.0001026 -0.0000310 0.0001416 0.0003785 0.0001652 0.0000581 0.0003641 0.0001989 0.0001979 0.0002428 0.0002245 0.0002050 0.0002168 0.0009793 0.0002684 0.0010877 0.0000950 -0.0003740 0.0001790 -0.0000233 0.0002478 -0.0000541 0.0000992 -0.0001641 0.0001648 -0.0001965 0.0001242 0.0001485 0.0001021 0.0000405 -0.0009538 -0.0021199 0.0001278 -0.0004754 0.0004516 0.0030831 -0.0019754 -0.0026005 -0.0000505 0.0011212 0.0011975 0.0029378 -0.0006543 -0.0017074 0.0007712 0.0018878 -0.0001396 0.0018083 0.0005526 -0.0003342 -0.0001757 -0.0005482 -0.0001086 -0.0015311 -0.0007127 -0.0006755 -0.0003228 -0.0015574 0.0000054 -0.0002390 -0.0000755 -0.0005686 0.0000066 -0.0005725 0.0000797 -0.0003924 0.0000707 -0.0004014 0.0000159 -0.0002965 0.0002118 -0.0002314 0.0002518 -0.0004357 0.0000414 -0.0004823 -0.0000925 -0.0003869 0.0000054 0.0001430 0.0001600 -0.0002245 0.0000322 -0.0000013 0.0001546 -0.0002653 0.0000249 -0.0008751 0.0000430 -0.0009247 -0.0001923 -0.0003649 0.0002302 -0.0011570 -0.0001595 -0.0007093 -0.0001779 -0.0012183 -0.0000240 -0.0008604 0.0001908 -0.0007285 0.0000336 -0.0004129 -0.0001042 -0.0004875 -0.0021950 -0.0068874 -0.0002997 0.0002253 -0.0000611 -0.0002114 -0.0005945 -0.0007294 -0.0000859 -0.0001497 -0.0006475 -0.0020406 -0.0023566 -0.0044425 -0.0000735 -0.0000569 0.0002325 -0.0001385 -0.0002940 -0.0010513 -0.0001657 -0.0006909
0.0001944 0.0002841 0.0004933 0.0006390 0.0002443 -0.0001672 0.0001285 -0.0007625 0.0001704 -0.0002347 0.0001595 0.0001670 0.0001223 -0.0000395 0.0001348 0.0002696 0.0001548 -0.0000100 0.0003417 0.0001498 0.0001994 0.0001964 0.0002527 0.0001557 0.0002330 0.0009505 0.0002726 0.0010280 0.0001003 -0.0004136 0.0001716 -0.0000233 0.0002359 -0.0000875 0.0001089 -0.0002151 0.0001611 -0.0002779 0.0001201 0.0000815 0.0001127 -0.0000245 -0.0008825 -0.0019906 0.0001576 -0.0004454 0.0003729 0.0027140 -0.0017250 -0.0024421 -0.0000541 0.0009991 0.0011427 0.0027412 -0.0005747 -0.0016894 0.0007399 0.0018198 -0.0001125 0.0016375 0.0003305 -0.0002383 -0.0000932 -0.0005387 -0.0001258 -0.0013447 -0.0010573 -0.0003603 -0.0003174 -0.0014232 -0.0000177 -0.0003101 -0.0000524 -0.0005716 -0.0000115 -0.0006683 0.0000685 -0.0004114 0.0000247 -0.0005048 -0.0000012 -0.0003280 0.0002062 -0.0002001 0.0002783 -0.0005245 0.0000394 -0.0004798 -0.0001066 -0.0004264 -0.0000356 0.0000905 0.0001759 -0.0002212 0.0000453 0.0001142 0.0001762 -0.0001921 0.0000321 -0.0009230 0.0001308 -0.0010712 -0.0002491 -0.0004464 0.0002279 -0.0011633 -0.0001045 -0.0008420 -0.0001588 -0.0013398 -0.0000142 -0.0009272 0.0002005 -0.0007631 0.0000384 -0.0005296 -0.0001217 -0.0006010 -0.0022114 -0.0070992 -0.0002749 0.0000337 -0.0000598 -0.0003608 -0.0005829 -0.0007635 -0.0000932 -0.0002054 -0.0006887 -0.0019680 -0.0020050 -0.0046885 -0.0001056 0.0001241 0.0002009 0.0000679 -0.0003021 -0.0008917 -0.0001816 -0.0005418
0.0001861 0.0002882 0.0004874 0.0006153 0.0002414 -0.0001166 0.0001255 -0.0007294 0.0001951 -0.0002613 0.0002346 0.0000832 0.0001294 -0.0001929 0.0000873 0.0003219 0.0001137 0.0000749 0.0002575 0.0003256 0.0001890 0.0002596 0.0002074 0.0001987 0.0001860 0.0005899 0.0002338 0.0006598 0.0000672 -0.0010001 0.0001391 0.0001062 0.0002962 -0.0000007 0.0001208 -0.0001971 0.0001682 -0.0001474 0.0001112 0.0001639 0.0001062 0.0000911 -0.0008547 -0.0018413 0.0001543 -0.0002579 0.0003348 0.0026575 -0.0015500 -0.0024297 -0.0000748 0.0012115 0.0010906 0.0029039 -0.0006918 -0.0012502 0.0007193 0.0019218 -0.0001409 0.0018591 0.0003461 -0.0001538 -0.0001312 -0.0002175 -0.0000970 -0.0011327 -0.0005666 -0.0006043 -0.0003020 -0.0011998 -0.0000352 -0.0001703 -0.0000415 -0.0005482 -0.0000527 -0.0003948 0.0000600 -0.0001803 -0.0000154 -0.0002740 -0.0000273 -0.0002566 0.0001970 -0.0001073 0.0002135 -0.0004188 0.0000190 -0.0004133 -0.0001589 -0.0001839 -0.0000310 0.0002671 0.0001018 -0.0002059 0.0000665 0.0003020 0.0001359 -0.0001884 0.0000821 -0.0004734 0.0000951 -0.0007520 -0.0002330 -0.0000962 0.0002122 -0.0009027 0.0000848 -0.0004476 -0.0001834 -0.0008622 0.0000196 -0.0005443 0.0001662 -0.0006111 0.0000341 -0.0001191 -0.0001308 -0.0003154 -0.0036015 -0.0056977 -0.0002815 0.0001499 -0.0000649 -0.0001324 -0.0005735 -0.0005810 -0.0000949 0.0000254 -0.0007759 -0.0016166 -0.0018163 -0.0045174 -0.0001636 0.0003428 0.0001585 0.0002670 -0.0003016 -0.0007468 -0.0002045 -0.0003655
0.0001943 0.0003184 0.0004466 0.0006821 0.0002424 -0.0001068 0.0001075 -0.0007403 0.0001458 -0.0002125 0.0002289 0.0001060 0.0001171 -0.0003497 0.0000893 0.0003055 0.0001214 0.0001283 0.0002522 0.0003460 0.0002102 0.0002893 0.0001764 0.0003018 0.0001245 0.0001460 0.0001989 0.0002963 0.0000201 -0.0014698 0.0002166 0.0000805 0.0002959 0.0000131 0.0001343 -0.0001956 0.0001583 -0.0001132 0.0001168 0.0001692 0.0001126 0.0000996 -0.0007641 -0.0017251 0.0001685 -0.0001398 0.0002660 0.0024434 -0.0016109 -0.0026262 -0.0001302 0.0011013 0.0011179 0.0029353 -0.0006694 -0.0011265 0.0007340 0.0018869 -0.0002531 0.0019840 0.0004053 -0.0002053 -0.0000683 -0.0003368 -0.0000353 -0.0011489 -0.0004287 -0.0006330 -0.0002596 -0.0010193 -0.0000360 -0.0000333 -0.0000477 -0.0005483 -0.0000947 -0.0003784 0.0000600 -0.0000717 -0.0000549 -0.0001446 -0.0000193 -0.0002707 0.0002033 -0.0000425 0.0001910 -0.0003888 -0.0000145 -0.0004169 -0.0001465 -0.0002198 -0.0000088 0.0001010 0.0000530 -0.0002799 0.0001158 0.0003851 0.0000787 -0.0003347 0.0002262 0.0004923 -0.0000041 -0.0005193 -0.0001801 -0.0000095 0.0002183 -0.0007253 -0.0000159 -0.0000930 -0.0001839 -0.0007214 0.0001258 -0.0001761 0.0000272 -0.0005228 -0.0000393 -0.0002104 -0.0001603 -0.0004558 -0.0035989 -0.0046489 -0.0002939 -0.0000169 -0.0000559 -0.0001984 -0.0005677 -0.0006165 -0.0001028 -0.0000611 -0.0007532 -0.0013549 -0.0019390 -0.0042367 -0.0001640 0.0003380 0.0000958 0.0002565 -0.0002844 -0.0007563 -0.0002283 -0.0004315
0.0002080 0.0002684 0.0003966 0.0006872 0.0002239 -0.0001850 0.0000992 -0.0008509 0.0001041 -0.0002766 0.0002201 0.0000434 0.0001119 -0.0006168 0.0001113 0.0001083 0.0001342 0.0001155 0.0002987 0.0002172 0.0002330 0.0002310 0.0001838 0.0003522 0.0001026 -0.0002483 0.0002013 0.0000022 0.0000009 -0.0016522 0.0002468 0.0000492 0.0003846 -0.0001518 0.0001313 -0.0002841 0.0001424 -0.0001938 0.0001161 0.0000945 0.0001308 0.0000245 -0.0005799 -0.0015424 0.0002222 -0.0000162 0.0001338 0.0021650 -0.0016879 -0.0030616 -0.0001515 0.0009512 0.0011348 0.0029140 -0.0005086 -0.0010742 0.0007658 0.0018532 -0.0003580 0.0020341 0.0005261 -0.0002818 0.0002016 -0.0004508 -0.0000118 -0.0010508 -0.0003541 -0.0008012 -0.0001623 -0.0007559 -0.0000339 0.0000137 -0.0000330 -0.0005547 -0.0001206 -0.0004739 0.0000876 -0.0000048 -0.0000668 -0.0001095 0.0000085 -0.0003108 0.0001948 0.0000720 0.0002020 -0.0003428 -0.0000183 -0.0004001 -0.0001542 -0.0002125 -0.0000016 0.0000080 0.0000596 -0.0002746 0.0001314 0.0003839 0.0000865 -0.0002905 0.0002999 0.0008939 -0.0000402 -0.0003510 -0.0001457 0.0000229 0.0001990 -0.0006460 -0.0000844 0.0001890 -0.0001770 -0.0007762 0.0002314 0.0001439 -0.0001223 -0.0004449 -0.0001544 -0.0004048 -0.0001883 -0.0004584 -0.0035910 -0.0038541 -0.0002885 0.0001943 -0.0000336 -0.0000940 -0.0005701 -0.0003824 -0.0000931 0.0000138 -0.0007660 -0.0011114 -0.0019254 -0.0039190 -0.0000652 0.0006487 0.0000565 0.0005942 -0.0002813 -0.0004643 -0.0002638 -0.0002423
0.0002033 0.0002858 0.0004043 0.0006888 0.0001777 -0.0001642 0.0001030 -0.0008559 0.0001254 -0.0002971 0.0002316 0.0001743 0.0000928 -0.0008094 0.0000937 0.0000626 0.0001391 0.0002835 0.0003039 0.0003356 0.0002080 0.0003209 0.0001460 0.0005207 0.0000900 -0.0004389 0.0001821 -0.0000872 -0.0000135 -0.0015547 0.0001999 0.0002124 0.0004236 -0.0001146 0.0001248 -0.0003021 0.0001489 -0.0001009 0.0000993 0.0001718 0.0001482 0.0001174 -0.0003228 -0.0011322 0.0002656 0.0003822 -0.0000329 0.0021086 -0.0018340 -0.0034874 -0.0001854 0.0010162 0.0011229 0.0031622 -0.0004042 -0.0006884 0.0007977 0.0020972 -0.0003405 0.0023445 0.0004535 -0.0001991 0.0000955 0.0002015 0.0000241 -0.0005174 0.0001401 -0.0007743 0.0000525 0.0001574 -0.0000375 0.0003198 -0.0000236 -0.0004193 -0.0001481 -0.0000753 0.0000940 0.0003480 -0.0000884 0.0003073 0.0000098 -0.0001520 0.0002034 0.0003358 0.0001656 -0.0000575 -0.0000109 -0.0002376 -0.0001651 0.0002094 0.0000237 0.0002688 0.0000325 -0.0002243 0.0001720 0.0007052 0.0000660 -0.0001468 0.0003520 0.0013019 0.0000021 0.0001287 -0.0000984 0.0005233 0.0001740 -0.0003287 0.0000601 0.0009663 -0.0001640 -0.0002465 0.0003247 0.0007936 -0.0002348 -0.0001718 -0.0002772 0.0000198 -0.0001948 0.0000963 -0.0030756 -0.0036280 -0.0003704 0.0007064 -0.0000624 0.0004674 -0.0005568 0.0002175 -0.0000593 0.0006214 -0.0007306 -0.0004272 -0.0017094 -0.0027878 0.0000227 0.0013025 0.0000172 0.0011288 -0.0002470 0.0001180 -0.0002913 0.0003014
0.0001913 0.0004477 0.0004064 0.0007807 0.0001439 -0.0000645 0.0001143 -0.0006407 0.0001506 -0.0002052 0.0002158 0.0004335 0.0000846 -0.0008179 0.0001019 0.0000451 0.0001758 0.0005432 0.0002678 0.0003822 0.0002247 0.0004038 0.0001670 0.0006515 0.0000803 -0.0007956 0.0001156 -0.0001093 -0.0000419 -0.0009471 0.0002365 0.0002560 0.0003404 0.0000859 0.0001525 -0.0002591 0.0001501 0.0000201 0.0000880 0.0001928 0.0001797 0.0002120 0.0002080 -0.0003057 0.0003506 0.0009257 -0.0003548 0.0016381 -0.0019077 -0.0031874 -0.0003113 0.0006042 0.0011584 0.0032696 -0.0003271 -0.0003381 0.0007389 0.0021673 -0.0002822 0.0023936 0.0000795 0.0000833 0.0000251 0.0002514 0.0001164 -0.0003504 -0.0000435 -0.0003567 0.0002722 0.0009914 -0.0000487 0.0007844 0.0000428 -0.0002639 -0.0001771 0.0005329 0.0000196 0.0006676 -0.0001154 0.0008181 -0.0000092 0.0001731 0.0001898 0.0005989 0.0001225 0.0003939 0.0000031 0.0000948 -0.0001890 0.0008087 0.0000700 0.0005113 0.0000728 -0.0000489 0.0002221 0.0011138 0.0000403 0.0001097 0.0004480 0.0020151 0.0000304 0.0007462 -0.0001232 0.0011842 0.0002325 -0.0000047 0.0000540 0.0017407 -0.0001172 0.0005739 0.0003106 0.0011683 -0.0002222 0.0002397 -0.0002920 0.0006425 -0.0001236 0.0009267 -0.0024906 -0.0040259 -0.0004584 0.0013478 -0.0001362 0.0010946 -0.0005897 0.0008121 -0.0000465 0.0013045 -0.0004568 0.0003322 -0.0014731 -0.0017542 0.0000494 0.0019744 -0.0000635 0.0018482 -0.0002365 0.0007501 -0.0003201 0.0009679
0.0001824 0.0004652 0.0003609 0.0007862 0.0000812 -0.0001259 0.0001137 -0.0005188 0.0001779 -0.0003324 0.0002096 0.0004224 0.0000849 -0.0010346 0.0000795 -0.0001685 0.0002104 0.0006290 0.0003119 0.0001932 0.0002853 0.0003077 0.0003110 0.0006249 0.0000895 -0.0014608 0.0000780 -0.0004036 -0.0000710 -0.0005205 0.0002681 0.0001814 0.0003259 0.0001119 0.0001817 -0.0003559 0.0002012 -0.0000452 0.0000684 0.0000946 0.0002103 0.0001949 0.0007115 0.0005184 0.0004290 0.0012291 -0.0004217 0.0007426 -0.0021740 -0.0034600 -0.0004993 -0.0001787 0.0012206 0.0032751 -0.0002108 -0.0001808 0.0007768 0.0018916 -0.0002689 0.0022180 -0.0000155 0.0000036 0.0002557 -0.0001076 0.0002309 -0.0004175 -0.0002638 -0.0001575 0.0003791 0.0013018 -0.0000701 0.0012677 0.0000665 0.0000396 -0.0001784 0.0012904 -0.0000602 0.0010123 -0.0001758 0.0013150 -0.0000297 0.0005459 0.0001094 0.0009159 0.0000626 0.0008208 0.0000120 0.0004810 -0.0002396 0.0014515 0.0001074 0.0010019 0.0000419 0.0001915 0.0001945 0.0014120 -0.0000136 0.0004102 0.0004053 0.0019121 -0.0001301 0.0012996 -0.0002358 0.0017655 0.0001554 0.0002115 -0.0000974 0.0022481 -0.0000803 0.0013373 0.0002059 0.0012821 -0.0001207 0.0005709 -0.0001872 0.0012427 -0.0000672 0.0015713 -0.0032721 -0.0035817 -0.0004687 0.0016408 -0.0001875 0.0014301 -0.0006401 0.0008641 -0.0000787 0.0016149 -0.0002576 0.0004665 -0.0013634 -0.0016034 0.0000020 0.0019527 -0.0001370 0.0020191 -0.0002572 0.0008185 -0.0003264 0.0010581
0.0001840 0.0004416 0.0002387 0.0006560 0.0000620 -0.0001999 0.0001261 -0.0004518 0.0001850 -0.0003492 0.0003064 0.0002849 0.0000832 -0.0011291 0.0000540 -0.0002369 0.0002708 0.0006539 0.0003520 0.0001544 0.0003066 0.0002914 0.0004560 0.0006657 0.0001000 -0.0020019 0.0000440 -0.0008374 -0.0001053 -0.0005081 0.0002604 0.0001361 0.0002975 0.0001363 0.0001786 -0.0004108 0.0002530 -0.0000259 0.0000496 0.0001108 0.0002084 0.0002830 0.0008424 0.0008760 0.0004256 0.0012554 -0.0005175 0.0006231 -0.0025775 -0.0044053 -0.0005669 -0.0004575 0.0012203 0.0033424 -0.0001608 0.0000843 0.0008452 0.0017260 -0.0001791 0.0022336 0.0000237 -0.0000454 0.0000910 0.0002489 0.0002628 -0.0001571 -0.0002411 0.0001741 0.0003882 0.0015038 -0.0000956 0.0012876 0.0000419 0.0002132 -0.0001806 0.0010426 -0.0000913 0.0008818 -0.0002489 0.0011380 -0.0000538 0.0006107 0.0000859 0.0009599 0.0000438 0.0006588 -0.0000299 0.0005567 -0.0002395 0.0012273 0.0000790 0.0007975 -0.0000324 0.0001366 0.0001887 0.0014794 -0.0000854 0.0002204 0.0003587 0.0017257 -0.0002306 0.0009233 -0.0002235 0.0014103 0.0000232 0.0001218 -0.0000376 0.0016128 -0.0001124 0.0009575 0.0001755 0.0010166 -0.0000777 0.0005227 -0.0001182 0.0008767 -0.0000725 0.0012302 -0.0036046 -0.0034850 -0.0004759 0.0011014 -0.0002056 0.0010935 -0.0006416 0.0004650 -0.0000916 0.0015007 -0.0003154 0.0004121 -0.0014222 -0.0015376 -0.0000840 0.0015689 -0.0001657 0.0016941 -0.0002558 0.0005661 -0.0003224 0.0007702
0.0001925 0.0004894 0.0001805 0.0005406 0.0000882 -0.0001557 0.0001466 -0.0004025 0.0001557 -0.0002492 0.0003854 0.0001430 0.0000929 -0.0010402 0.0000660 -0.0001894 0.0003331 0.0006017 0.0003312 0.0000902 0.0002615 0.0003091 0.0004101 0.0007262 0.0000699 -0.0022835 0.0000145 -0.0011295 -0.0001182 -0.0008159 0.0002740 0.0000626 0.0002589 0.0001194 0.0001516 -0.0003766 0.0002503 -0.0000011 0.0000551 0.0001002 0.0002076 0.0003282 0.0008076 0.0008063 0.0004306 0.0012345 -0.0007673 0.0006756 -0.0027832 -0.0042351 -0.0005567 -0.0004612 0.0011855 0.0030988 -0.0001683 0.0001860 0.0008349 0.0015962 -0.0001433 0.0020961 0.0000627 0.0001269 0.0001091 0.0001070 0.0002342 -0.0002145 -0.0002711 0.0000751 0.0003487 0.0013862 -0.0001125 0.0009196 0.0000203 0.0001291 -0.0002003 0.0003686 -0.0001102 0.0005023 -0.0002636 0.0005939 -0.0000764 0.0005165 0.0000792 0.0008029 0.0000461 0.0003740 -0.0000481 0.0004649 -0.0002012 0.0007424 0.0000433 0.0003130 -0.0000520 0.0000106 0.0002022 0.0013281 -0.0000916 0.0000619 0.0003839 0.0019038 -0.0001487 0.0003448 -0.0001826 0.0009157 0.0000457 -0.0000801 0.0000379 0.0008102 -0.0001293 0.0002996 0.0001694 0.0006214 -0.0000458 0.0003972 -0.0000937 0.0003860 -0.0000671 0.0008588 -0.0045534 -0.0032391 -0.0004602 0.0009710 -0.0001975 0.0009015 -0.0006409 0.0004534 -0.0000764 0.0014075 -0.0003603 0.0004256 -0.0014360 -0.0016949 -0.0000821 0.0016529 -0.0001181 0.0018816 -0.0002742 0.0007186 -0.0003255 0.0009241
0.0001918 0.0003954 0.0002481 0.0004601 0.0000875 -0.0002168 0.0001360 -0.0005276 0.0001357 -0.0004007 0.0003023 0.0000079 0.0001066 -0.0012340 0.0000696 -0.0003331 0.0003175 0.0004449 0.0002704 -0.0000147 0.0002545 0.0001668 0.0003212 0.0005882 0.0000240 -0.0024657 0.0000187 -0.0013766 -0.0001250 -0.0014120 0.0003072 -0.0000575 0.0003004 -0.0000531 0.0001680 -0.0005301 0.0002510 -0.0001220 0.0000582 0.0000129 0.0002287 0.0002241 0.0008004 0.0006857 0.0004435 0.0011758 -0.0007819 0.0004104 -0.0026107 -0.0037826 -0.0006235 -0.0005652 0.0011555 0.0028402 -0.0000696 0.0000917 0.0007707 0.0013977 -0.0002059 0.0019350 0.0002495 0.0002107 0.0001283 0.0000130 0.0002280 -0.0002941 -0.0000464 -0.0002063 0.0002728 0.0011668 -0.0001298 0.0009441 -0.0000471 0.0002725 -0.0001841 0.0006757 -0.0001257 0.0006006 -0.0003015 0.0006712 -0.0000870 0.0006779 0.0000371 0.0008782 -0.0000095 0.0005026 -0.0000090 0.0005733 -0.0002147 0.0008906 0.0000316 0.0006493 -0.0001414 0.0001311 0.0001436 0.0013105 -0.0001061 0.0003136 0.0002638 0.0011108 -0.0002118 0.0003901 -0.0001892 0.0009163 0.0000007 -0.0000922 0.0000239 0.0005781 -0.0000802 0.0002349 0.0001486 0.0004493 -0.0000036 0.0004206 -0.0000675 0.0003535 -0.0000931 0.0007642 -0.0036668 -0.0038227 -0.0004243 0.0010542 -0.0001559 0.0008743 -0.0006416 0.0004027 -0.0000728 0.0012922 -0.0003427 0.0002693 -0.0015149 -0.0019908 -0.0000514 0.0015931 -0.0000716 0.0018962 -0.0002942 0.0007366 -0.0003132 0.0009571
0.0001976 0.0003446 0.0002907 0.0002631 0.0001010 -0.0001474 0.0001576 -0.0005293 0.0001541 -0.0003127 0.0002139 -0.0000658 0.0001191 -0.0010904 0.0000316 -0.0002725 0.0003030 0.0003868 0.0002443 0.0000463 0.0002390 0.0001243 0.0002724 0.0005005 0.0000056 -0.0023522 0.0000057 -0.0015062 -0.0001201 -0.0019271 0.0003141 -0.0000924 0.0002247 -0.0000400 0.0001908 -0.0006120 0.0002499 -0.0000632 0.0000517 0.0000806 0.0002188 0.0002166 0.0003609 0.0000389 0.0003938 0.0008418 -0.0007621 0.0005577 -0.0019344 -0.0025698 -0.0006308 -0.0004278 0.0009758 0.0022791 -0.0000886 0.0000670 0.0007386 0.0014351 -0.0003214 0.0021027 0.0004223 0.0005406 0.0001055 -0.0000706 0.0002230 -0.0003103 -0.0000333 0.0000819 0.0001845 0.0009699 -0.0001545 0.0009471 -0.0000892 0.0004095 -0.0001665 0.0007381 -0.0001303 0.0005675 -0.0003466 0.0006933 -0.0000784 0.0007670 0.0000218 0.0009110 -0.0000158 0.0005052 0.0000136 0.0006341 -0.0002141 0.0008896 0.0000152 0.0007698 -0.0002049 0.0001965 0.0001268 0.0013588 -0.0001112 0.0004571 0.0001712 0.0004457 -0.0003180 0.0004148 -0.0001654 0.0008653 -0.0000407 -0.0001429 0.0000945 0.0003449 -0.0000862 0.0002454 0.0001163 0.0003231 0.0000471 0.0004242 -0.0000168 0.0003597 -0.0000861 0.0006776 -0.0026688 -0.0044024 -0.0004328 0.0010191 -0.0001486 0.0007864 -0.0006181 0.0003303 -0.0000465 0.0013353 -0.0003020 0.0003314 -0.0016471 -0.0016900 -0.0000369 0.0015459 -0.0000495 0.0018674 -0.0003061 0.0007424 -0.0002916 0.0009666
0.0002016 0.0003176 0.0002981 0.0000993 0.0001095 -0.0000843 0.0001966 -0.0005465 0.0001618 -0.0002500 0.0001899 -0.0001468 0.0001326 -0.0007516 0.0000274 -0.0002219 0.0002958 0.0003381 0.0003283 -0.0000345 0.0002077 0.0000897 0.0002939 0.0004088 0.0000394 -0.0018349 0.0000198 -0.0013741 -0.0000969 -0.0022499 0.0003148 -0.0001170 0.0002336 -0.0002025 0.0001757 -0.0006511 0.0002879 -0.0001035 0.0000595 0.0000530 0.0002163 0.0001585 -0.0000720 -0.0007068 0.0003888 0.0005535 -0.0007671 0.0008420 -0.0011600 -0.0011467 -0.0004796 -0.0000335 0.0007588 0.0013822 -0.0002050 -0.0000579 0.0007647 0.0016028 -0.0004770 0.0022478 0.0004458 0.0008647 0.0001491 -0.0002613 0.0001640 -0.0004206 -0.0001358 0.0000499 0.0001779 0.0008095 -0.0001613 0.0009224 -0.0000684 0.0002239 -0.0002165 0.0006589 -0.0001015 0.0005532 -0.0003734 0.0007964 -0.0000791 0.0006433 0.0000264 0.0009234 -0.0000641 0.0005407 -0.0000450 0.0005444 -0.0002367 0.0009715 0.0000210 0.0006229 -0.0002025 0.0000473 0.0002030 0.0014236 -0.0001366 0.0003626 0.0002753 0.0012531 -0.0003717 0.0006473 -0.0001631 0.0011747 -0.0000550 -0.0000056 -0.0000397 0.0008911 -0.0001038 0.0006802 0.0001637 0.0006593 0.0000303 0.0004720 0.0000096 0.0006524 -0.0000847 0.0006158 -0.0032791 -0.0032761 -0.0004741 0.0009137 -0.0001495 0.0008736 -0.0005681 0.0004190 -0.0000301 0.0014028 -0.0002612 0.0003836 -0.0016090 -0.0014015 -0.0000540 0.0015408 -0.0000047 0.0018789 -0.0002967 0.0007491 -0.0002691 0.0009517
0.0001952 0.0001923 0.0002867 0.0000485 0.0001045 -0.0001890 0.0001942 -0.0006559 0.0001290 -0.0004238 0.0001727 -0.0001900 0.0001496 -0.0008094 0.0000701 -0.0003922 0.0002874 0.0002889 0.0002981 -0.0000404 0.0002145 -0.0000138 0.0002733 0.0002817 0.0000780 -0.0015005 0.0000642 -0.0012989 -0.0000883 -0.0023968 0.0003281 -0.0001532 0.0002741 -0.0003724 0.0001733 -0.0007751 0.0003152 -0.0002565 0.0000584 -0.0000489 0.0002252 0.0000912 0.0000141 -0.0007186 0.0004302 0.0006904 -0.0004423 0.0007829 -0.0008788 -0.0010596 -0.0003546 0.0003796 0.0006341 0.0011370 -0.0002910 -0.0001519 0.0006528 0.0015968 -0.0005075 0.0023027 0.0005385 0.0009140 -0.0000718 0.0000914 0.0001737 -0.0004023 -0.0001796 0.0001578 0.0001616 0.0007486 -0.0001556 0.0009710 -0.0000315 0.0001170 -0.0002325 0.0005782 -0.0000801 0.0004891 -0.0003897 0.0008428 -0.0000906 0.0005912 0.0000220 0.0008265 -0.0001374 0.0005739 -0.0000814 0.0005118 -0.0002489 0.0009772 0.0000228 0.0005495 -0.0002045 -0.0000153 0.0002114 0.0012560 -0.0001605 0.0002178 0.0003162 0.0014942 -0.0003888 0.0006727 -0.0001816 0.0011755 -0.0000179 0.0000064 -0.0001556 0.0010332 -0.0000788 0.0006763 0.0001896 0.0007280 0.0000118 0.0003967 0.0000093 0.0006435 -0.0001151 0.0003610 -0.0030670 -0.0030791 -0.0004733 0.0007311 -0.0001119 0.0008543 -0.0005381 0.0003818 -0.0000428 0.0012272 -0.0003011 0.0002050 -0.0015974 -0.0015792 -0.0000219 0.0014407 0.0000179 0.0018280 -0.0002726 0.0006970 -0.0002555 0.0008726
0.0002028 0.0001685 0.0002961 0.0000804 0.0000838 -0.0001579 0.0001654 -0.0005851 0.0001441 -0.0003958 0.0001957 -0.0000807 0.0001640 -0.0008396 0.0000792 -0.0003340 0.0002667 0.0003742 0.0002741 0.0000666 0.0001883 0.0000278 0.0002433 0.0003060 0.0000871 -0.0013149 0.0000697 -0.0011335 -0.0000685 -0.0022932 0.0002700 -0.0000630 0.0002355 -0.0002160 0.0001550 -0.0007263 0.0002946 -0.0001339 0.0000522 0.0000330 0.0001947 0.0001774 0.0000122 -0.0007079 0.0004306 0.0008242 -0.0003632 0.0008410 -0.0010600 -0.0016429 -0.0003798 0.0003773 0.0006663 0.0011067 -0.0002205 -0.0002897 0.0005950 0.0013627 -0.0004917 0.0022187 0.0005806 0.0008321 -0.0001480 0.0001560 0.0001848 -0.0004944 -0.0003392 0.0002493 0.0001181 0.0006843 -0.0001568 0.0009548 -0.0000540 0.0002179 -0.0002023 0.0005117 -0.0000648 0.0003904 -0.0003657 0.0007376 -0.0000822 0.0006283 0.0000102 0.0007214 -0.0001554 0.0005273 -0.0000502 0.0005042 -0.0002127 0.0008893 0.0000323 0.0005908 -0.0002584 0.0000503 0.0001845 0.0011206 -0.0001596 0.0001755 0.0002719 0.0010481 -0.0003062 0.0005786 -0.0002241 0.0010774 0.0000403 -0.0000148 -0.0000872 0.0009998 -0.0000939 0.0005755 0.0001680 0.0007266 -0.0000131 0.0003942 -0.0000361 0.0007490 -0.0001643 0.0004271 -0.0036742 -0.0027067 -0.0004764 0.0009663 -0.0001033 0.0010245 -0.0005436 0.0005198 -0.0000531 0.0012684 -0.0003645 0.0002846 -0.0015232 -0.0017191 -0.0000145 0.0014603 0.0000255 0.0019102 -0.0002588 0.0007269 -0.0002541 0.0008774
0.0002022 0.0001508 0.0002603 0.0000934 0.0000919 -0.0002317 0.0001621 -0.0006332 0.0001721 -0.0004508 0.0003033 -0.0001789 0.0001658 -0.0008419 0.0000555 -0.0003165 0.0002634 0.0003422 0.0003162 -0.0000592 0.0001689 0.0000061 0.0002273 0.0003161 0.0000995 -0.0013622 0.0000704 -0.0010547 -0.0000492 -0.0021040 0.0002468 -0.0001584 0.0003170 -0.0003042 0.0001470 -0.0007614 0.0003045 -0.0002044 0.0000632 -0.0000165 0.0001956 0.0000999 0.0000460 -0.0007056 0.0004331 0.0007288 -0.0006152 0.0008644 -0.0012758 -0.0021044 -0.0004386 0.0000651 0.0007582 0.0010121 -0.0001803 -0.0003327 0.0006114 0.0010493 -0.0004284 0.0019469 0.0005579 0.0006648 -0.0000615 -0.0000151 0.0001523 -0.0006079 -0.0003875 0.0000408 0.0001316 0.0005658 -0.0001533 0.0010446 -0.0000675 0.0002510 -0.0001758 0.0005014 -0.0000407 0.0003321 -0.0003634 0.0006892 -0.0000756 0.0006744 -0.0000186 0.0006701 -0.0001905 0.0004795 -0.0000419 0.0004796 -0.0002534 0.0008767 0.0000307 0.0006563 -0.0004029 0.0000726 0.0001298 0.0009411 -0.0001735 0.0001622 0.0001923 0.0004860 -0.0002874 0.0004816 -0.0002602 0.0009585 0.0000143 -0.0000379 -0.0000323 0.0008979 -0.0000913 0.0004251 0.0001981 0.0007130 -0.0000429 0.0003544 -0.0000519 0.0006377 -0.0002441 0.0002416 -0.0038726 -0.0028162 -0.0004586 0.0008340 -0.0001059 0.0009790 -0.0005529 0.0003804 -0.0000454 0.0011157 -0.0004157 0.0001863 -0.0013558 -0.0019219 -0.0000735 0.0013866 0.0000419 0.0018016 -0.0002426 0.0006520 -0.0002459 0.0007636
0.0002140 0.0000578 0.0003179 -0.0001192 0.0001071 -0.0003319 0.0002027 -0.0007361 0.0001733 -0.0005592 0.0003344 -0.0003576 0.0001701 -0.0009019 0.0000552 -0.0004113 0.0002902 0.0002406 0.0002840 -0.0001088 0.0001881 -0.0000678 0.0002484 0.0002181 0.0001178 -0.0014553 0.0000740 -0.0010584 -0.0000317 -0.0019250 0.0002790 -0.0002905 0.0003653 -0.0004589 0.0001500 -0.0008517 0.0003202 -0.0003475 0.0000662 -0.0000938 0.0002055 0.0000074 0.0001056 -0.0006304 0.0004252 0.0006290 -0.0005327 0.0006979 -0.0014122 -0.0024898 -0.0004473 0.0000345 0.0007501 0.0011862 -0.0002316 -0.0002683 0.0005422 0.0010097 -0.0004075 0.0019279 0.0003985 0.0008257 -0.0000757 0.0001751 0.0001702 -0.0004541 -0.0002088 -0.0000154 0.0001429 0.0005744 -0.0001437 0.0009792 -0.0000754 0.0001411 -0.0001586 0.0003538 -0.0000188 0.0001943 -0.0003693 0.0006071 -0.0000828 0.0006626 -0.0000167 0.0005703 -0.0002345 0.0004096 -0.0000736 0.0003867 -0.0002591 0.0007658 0.0000123 0.0005326 -0.0003853 -0.0000721 0.0000772 0.0006464 -0.0001692 0.0000963 0.0001301 0.0000394 -0.0003797 0.0004864 -0.0002184 0.0007873 0.0000212 -0.0001308 -0.0001306 0.0007622 -0.0000961 0.0002049 0.0002117 0.0006170 -0.0000417 0.0002494 -0.0000377 0.0004498 -0.0002561 0.0001510 -0.0033049 -0.0041794 -0.0003986 0.0008723 -0.0000742 0.0009187 -0.0005671 0.0003300 -0.0000311 0.0009669 -0.0004142 -0.0000483 -0.0016364 -0.0021511 -0.0000417 0.0014299 0.0000257 0.0018636 -0.0002403 0.0006286 -0.0002301 0.0007415
0.0002052 0.0001295 0.0003329 -0.0001125 0.0000796 -0.0001914 0.0002187 -0.0005475 0.0001608 -0.0004107 0.0002561 -0.0002038 0.0001693 -0.0007859 0.0000348 -0.0002611 0.0003019 0.0003331 0.0003147 -0.0000193 0.0001914 0.0000335 0.0002738 0.0003118 0.0001337 -0.0011323 0.0000718 -0.0006983 0.0000042 -0.0013407 0.0002552 -0.0001714 0.0003253 -0.0002614 0.0001755 -0.0007277 0.0002921 -0.0001147 0.0000589 0.0000150 0.0002046 0.0001414 0.0001537 -0.0003907 0.0004145 0.0007240 -0.0004724 0.0009414 -0.0018996 -0.0026648 -0.0004291 0.0001625 0.0007585 0.0013660 -0.0001847 -0.0002027 0.0005593 0.0010445 -0.0005351 0.0020232 0.0002445 0.0010631 -0.0002231 0.0001990 0.0001704 -0.0004179 -0.0000676 -0.0001137 0.0001207 0.0006052 -0.0001424 0.0010067 -0.0001050 0.0001946 -0.0001213 0.0003969 -0.0000099 0.0001327 -0.0003520 0.0006304 -0.0000619 0.0007395 -0.0000031 0.0005761 -0.0002678 0.0004434 -0.0000622 0.0004191 -0.0001993 0.0007101 0.0000069 0.0005950 -0.0003598 -0.0000601 0.0000392 0.0005000 -0.0001363 0.0001472 0.0000323 -0.0006787 -0.0004125 0.0005216 -0.0002221 0.0007051 -0.0000080 -0.0001837 -0.0002110 0.0006419 -0.0000957 0.0000753 0.0001638 0.0004130 -0.0000211 0.0001931 -0.0000101 0.0002934 -0.0002484 0.0001072 -0.0028174 -0.0048244 -0.0003375 0.0008735 -0.0000483 0.0008185 -0.0005659 0.0002197 -0.0000191 0.0008759 -0.0003774 -0.0003199 -0.0018013 -0.0023277 -0.0000068 0.0013555 0.0000480 0.0017341 -0.0002481 0.0005309 -0.0002037 0.0006019
0.0001812 0.0001958 0.0002525 -0.0000181 0.0000956 -0.0002034 0.0002126 -0.0004372 0.0001570 -0.0003738 0.0002490 -0.0001528 0.0001663 -0.0006580 0.0000824 -0.0002501 0.0002954 0.0003651 0.0003173 0.0000049 0.0002049 0.0000323 0.0002490 0.0004197 0.0001768 -0.0007444 0.0001033 -0.0002008 0.0000630 -0.0006230 0.0002365 -0.0002083 0.0002727 -0.0002006 0.0001899 -0.0006944 0.0002878 -0.0000973 0.0000585 -0.0000051 0.0002229 0.0001320 0.0002114 -0.0002376 0.0004249 0.0008038 -0.0004315 0.0016849 -0.0018976 -0.0024943 -0.0001982 0.0008068 0.0007245 0.0012675 -0.0001055 0.0000185 0.0005654 0.0011125 -0.0002929 0.0025915 0.0002958 0.0013007 -0.0001692 0.0000272 0.0001660 -0.0004467 -0.0001497 -0.0000512 0.0001562 0.0006604 -0.0001465 0.0009373 -0.0001278 0.0002643 -0.0000805 0.0003197 -0.0000102 -0.0000191 -0.0003368 0.0005078 -0.0000390 0.0007592 -0.0000065 0.0004549 -0.0002633 0.0003852 -0.0000294 0.0004442 -0.0002033 0.0006176 0.0000175 0.0006517 -0.0003787 -0.0000606 0.0000050 0.0002916 -0.0001214 0.0000518 -0.0000482 -0.0013170 -0.0003609 0.0002877 -0.0002591 0.0005326 0.0000170 -0.0003367 -0.0000735 0.0003346 -0.0000823 -0.0001028 0.0000997 0.0001671 0.0000106 0.0001096 -0.0000069 0.0000820 -0.0002729 -0.0000537 -0.0028590 -0.0044523 -0.0002986 0.0006744 -0.0000563 0.0006992 -0.0005508 0.0000761 -0.0000123 0.0007723 -0.0003738 -0.0005124 -0.0016492 -0.0022745 -0.0000760 0.0013953 0.0000468 0.0016221 -0.0002073 0.0005136 -0.0002043 0.0005476
0.0001810 0.0000812 0.0002365 -0.0000668 0.0001167 -0.0004305 0.0001581 -0.0005048 0.0001383 -0.0005081 0.0002666 -0.0001808 0.0001681 -0.0007527 0.0001200 -0.0003592 0.0002714 0.0003531 0.0002443 0.0000162 0.0002202 -0.0000381 0.0002827 0.0003686 0.0002156 -0.0006517 0.0001267 -0.0000597 0.0000857 -0.0004997 0.0002291 -0.0003212 0.0003270 -0.0003091 0.0001781 -0.0007344 0.0002911 -0.0002001 0.0000596 -0.0000713 0.0002052 0.0001117 0.0002895 -0.0001614 0.0004449 0.0010286 -0.0001609 0.0025132 -0.0012272 -0.0017002 0.0001210 0.0018117 0.0006966 0.0010312 -0.0000210 0.0005028 0.0005982 0.0013292 0.0002202 0.0036495 0.0004612 0.0020519 -0.0000781 0.0005916 0.0001765 -0.0001183 -0.0000409 0.0003231 0.0002353 0.0009521 -0.0001431 0.0008933 -0.0001313 0.0001382 -0.0000941 0.0003016 0.0000020 -0.0000333 -0.0003146 0.0005315 -0.0000563 0.0006347 -0.0000048 0.0003222 -0.0002424 0.0003352 -0.0000664 0.0003166 -0.0002250 0.0005418 0.0000322 0.0004400 -0.0003428 -0.0002635 0.0000403 0.0001113 -0.0001434 -0.0002560 0.0000253 -0.0008103 -0.0003059 0.0002232 -0.0001743 0.0004522 0.0000618 -0.0003529 -0.0000335 0.0003888 -0.0001059 -0.0000513 0.0001340 0.0002350 0.0000028 0.0000215 -0.0000271 0.0000667 -0.0002604 -0.0001521 -0.0034018 -0.0039849 -0.0003017 0.0004935 -0.0000569 0.0006195 -0.0005314 0.0000032 -0.0000096 0.0006832 -0.0003400 -0.0005704 -0.0017637 -0.0020021 -0.0000486 0.0012512 0.0000280 0.0014758 -0.0001917 0.0003810 -0.0001997 0.0003530
