-0.0000000 -0.0000000 -0.0000000 -0.0000000 -0.0000000 -0.0000000 -0.0000000 -0.0000000 -0.0000000 -0.0000000 -0.0000000 -0.0000000 -0.0000000 -0.0000000 -0.0000000 -0.0000000 -0.0000000 -0.0000000 -0.0000000 -0.0000000 -0.0000000 -0.0000000 -0.0000000 -0.0000000 -0.0000000 -0.0000000 -0.0000000 -0.0000000 -0.0000000 -0.0000000 -0.0000000 -0.0000000 -0.0000000 -0.0000000 -0.0000000 -0.0000000 -0.0000000 -0.0000000 -0.0000000 -0.0000000 -0.0000000 -0.0000000 -0.0000000 -0.0000000 -0.0000000 -0.0000000 -0.0000000 -0.0000000 -0.0000000 -0.0000000 -0.0000000 -0.0000000 -0.0000000 -0.0000000 -0.0000000 -0.0000000 -0.0000000 -0.0000000 -0.0000000 -0.0000000 -0.0000000 -0.0000000 -0.0000000 -0.0000000 -0.0000000 -0.0000000 -0.0000000 -0.0000000 -0.0000000 -0.0000000 -0.0000000 -0.0000000 -0.0000000 -0.0000000 -0.0000000 -0.0000000 -0.0000000 -0.0000000 -0.0000000 -0.0000000 -0.0000000 -0.0000000 -0.0000000 -0.0000000 -0.0000000 -0.0000000 -0.0000000 -0.0000000 -0.0000000 -0.0000000 -0.0000000 -0.0000000 -0.0000000 -0.0000000 -0.0000000 -0.0000000 -0.0000000 -0.0000000 -0.0000000 -0.0000000 -0.0000000 -0.0000000 -0.0000000 -0.0000000 -0.0000000 -0.0000000 -0.0000000 -0.0000000 -0.0000000 -0.0000000 -0.0000000 -0.0000000 -0.0000000 -0.0000000 -0.0000000 -0.0000000 -0.0000000 -0.0000000 -0.0000000 -0.0000000 -0.0000000 -0.0000000 -0.0000000 -0.0000000 -0.0000000 -0.0000000 -0.0000000 -0.0000000 -0.0000000 -0.0000000 -0.0000000 -0.0000000 -0.0000000 -0.0000000 -0.0000000 -0.0000000 -0.0000000 -0.0000000 -0.0000000 -0.0000000 -0.0000000 -0.0000000 -0.0000000 -0.0000000 -0.0000000 -0.0000000 -0.0000000 -0.0000000 -0.0000000 -0.0000000 -0.0000000 -0.0000000 -0.0000000 -0.0000000 -0.0000000 -0.0000000 -0.0000000 -0.0000000 -0.0000000 -0.0000000 -0.0000000 -0.0000000 -0.0000000 -0.0000000 -0.0000000 -0.0000000 -0.0000000 -0.0000000 -0.0000000 -0.0000000 -0.0000000 -0.0000000 -0.0000000 -0.0000000 -0.0000000 -0.0000000 -0.0000000 -0.0000000 -0.0000000 -0.0000000 -0.0000000 -0.0000000 -0.0000000 -0.0000000 -0.0000000 -0.0000000 -0.0000000 -0.0000000 -0.0000000 -0.0000000 -0.0000000 -0.0000000 -0.0000000 -0.0000000 -0.0000000 -0.0000000 -0.0000000 -0.0000000 -0.0000000 -0.0000000 -0.0000000 -0.0000000 -0.0000000 -0.0000000 -0.0000000 -0.0000000 -0.0000000 -0.0000000 -0.0000000 -0.0000000 -0.0000000 -0.0000000 -0.0000000 -0.0000000 -0.0000000 -0.0000000
-0.0000000 -0.0000000 -0.0000000 -0.0000000 -0.0000000 -0.0000000 -0.0000000 -0.0000000 -0.0000000 -0.0000000 -0.0000000 -0.0000000 -0.0000000 -0.0000000 -0.0000000 -0.0000000 -0.0000000 -0.0000000 -0.0000000 -0.0000000 -0.0000000 -0.0000000 -0.0000000 -0.0000000 -0.0000000 -0.0000000 -0.0000000 -0.0000000 -0.0000000 -0.0000000 -0.0000000 -0.0000000 -0.0000000 -0.0000000 -0.0000000 -0.0000000 -0.0000000 -0.0000000 -0.0000000 -0.0000000 -0.0000000 -0.0000000 -0.0000000 -0.0000000 -0.0000000 -0.0000000 -0.0000000 -0.0000000 -0.0000000 -0.0000000 -0.0000000 -0.0000000 -0.0000000 -0.0000000 -0.0000000 -0.0000000 -0.0000000 -0.0000000 -0.0000000 -0.0000000 -0.0000000 -0.0000000 -0.0000000 -0.0000000 -0.0000000 -0.0000000 -0.0000000 -0.0000000 -0.0000000 -0.0000000 -0.0000000 -0.0000000 -0.0000000 -0.0000000 -0.0000000 -0.0000000 -0.0000000 -0.0000000 -0.0000000 -0.0000000 -0.0000000 -0.0000000 -0.0000000 -0.0000000 -0.0000000 -0.0000000 -0.0000000 -0.0000000 -0.0000000 -0.0000000 -0.0000000 -0.0000000 -0.0000000 -0.0000000 -0.0000000 -0.0000000 -0.0000000 -0.0000000 -0.0000000 -0.0000000 -0.0000000 -0.0000000 -0.0000000 -0.0000000 -0.0000000 -0.0000000 -0.0000000 -0.0000000 -0.0000000 -0.0000000 -0.0000000 -0.0000000 -0.0000000 -0.0000000 -0.0000000 -0.0000000 -0.0000000 -0.0000000 -0.0000000 -0.0000000 -0.0000000 -0.0000000 -0.0000000 -0.0000000 -0.0000000 -0.0000000 -0.0000000 -0.0000000 -0.0000000 -0.0000000 -0.0000000 -0.0000000 -0.0000000 -0.0000000 -0.0000000 -0.0000000 -0.0000000 -0.0000000 -0.0000000 -0.0000000 -0.0000000 -0.0000000 -0.0000000 -0.0000000 -0.0000000 -0.0000000 -0.0000000 -0.0000000 -0.0000000 -0.0000000 -0.0000000 -0.0000000 -0.0000000 -0.0000000 -0.0000000 -0.0000000 -0.0000000 -0.0000000 -0.0000000 -0.0000000 -0.0000000 -0.0000000 -0.0000000 -0.0000000 -0.0000000 -0.0000000 -0.0000000 -0.0000000 -0.0000000 -0.0000000 -0.0000000 -0.0000000 -0.0000000 -0.0000000 -0.0000000 -0.0000000 -0.0000000 -0.0000000 -0.0000000 -0.0000000 -0.0000000 -0.0000000 -0.0000000 -0.0000000 -0.0000000 -0.0000000 -0.0000000 -0.0000000 -0.0000000 -0.0000000 -0.0000000 -0.0000000 -0.0000000 -0.0000000 -0.0000000 -0.0000000 -0.0000000 -0.0000000 -0.0000000 -0.0000000 -0.0000000 -0.0000000 -0.0000000 -0.0000000 -0.0000000 -0.0000000 -0.0000000 -0.0000000 -0.0000000 -0.0000000 -0.0000000 -0.0000000 -0.0000000 -0.0000000 -0.0000000 -0.0000000
0.0000295 -0.0000725 0.0000043 -0.0000266 0.0000224 -0.0000706 0.0000023 -0.0000490 -0.0000053 -0.0000858 0.0000341 -0.0001077 0.0000142 -0.0000904 0.0000097 -0.0000874 0.0000088 -0.0000347 0.0000180 -0.0000511 0.0000150 -0.0000703 0.0000070 -0.0000394 0.0000684 -0.0000920 0.0000068 -0.0001485 0.0000124 -0.0000932 -0.0000083 -0.0001545 0.0000138 -0.0001565 0.0000260 -0.0001009 0.0000030 -0.0001608 -0.0003529 0.0002377 0.0000134 -0.0000480 -0.0000136 -0.0000493 0.0000654 -0.0001190 -0.0000040 -0.0001475 -0.0000456 0.0000683 0.0000139 -0.0000376 0.0000386 -0.0000664 -0.0000641 -0.0000678 -0.0001249 -0.0003502 0.0000456 0.0000734 -0.0000333 -0.0001658 -0.0000335 -0.0000389 0.0000543 -0.0000550 -0.0000020 -0.0001457 0.0000450 -0.0000205 -0.0000072 0.0000653 -0.0001418 -0.0001343 0.0004086 -0.0003939 0.0000229 -0.0000563 0.0000022 -0.0001591 -0.0010906 0.0009794 -0.0000454 0.0000458 0.0000045 -0.0000153 0.0000757 -0.0000807 -0.0000749 0.0000968 -0.0000318 0.0000716 -0.0027710 -0.0000383 0.0000294 -0.0001777 -0.0000259 0.0000138 0.0021201 -0.0034588 -0.0000634 0.0001133 0.0069400 -0.0122469 -0.0000313 0.0000174 -0.0000153 -0.0002285 0.0000079 0.0000253 0.0000149 -0.0000483 -0.0000250 -0.0000314 0.0001960 -0.0001507 0.0000312 0.0000535 0.0000844 -0.0000907 -0.0000359 0.0000280 -0.0002810 0.0002363 -0.0001491 0.0001835 0.0023002 0.0017125 0.0038177 -0.0114157 0.0024207 -0.0118104 -0.0056463 0.0056900 -0.0000140 0.0001127 -0.0012513 0.0018709 0.0004005 -0.0001372 0.0000286 0.0000846 0.0000443 -0.0000016 0.0000443 -0.0001169 0.0000285 0.0000024 -0.0007972 0.0001708 0.0004112 0.0000248 0.0000313 0.0003622 0.0003564 -0.0003626 0.0000579 -0.0000068 -0.0001659 0.0002796 0.0002186 -0.0000570 -0.0004288 0.0003940 0.0000214 0.0000003 -0.0001081 0.0001153 0.0007625 0.0005589 0.0000100 0.0000570 0.0007667 -0.0000990 -0.0015143 0.0010995 0.0000747 0.0001493 0.0000306 -0.0000308 -0.0000843 0.0001567 0.0001414 -0.0001258 0.0001506 0.0026366 0.0003016 -0.0003942 0.0000906 -0.0001114 -0.0002181 0.0001131 -0.0158217 0.0145184 0.0011225 -0.0010299 -0.0000363 0.0000183 -0.0002081 0.0002335 -0.0112293 0.0145598 -0.0000868 0.0002059 -0.0000263 -0.0000509 0.0000171 -0.0000194 -0.0000509 0.0000638 0.0001432 -0.0001489 0.0000211 -0.0000205 0.0004453 -0.0002962
0.0000307 -0.0000592 0.0000052 -0.0000149 0.0000262 -0.0000431 0.0000056 -0.0000473 -0.0000022 -0.0000682 0.0000385 -0.0000715 0.0000163 -0.0000647 0.0000072 -0.0000652 0.0000058 -0.0000496 0.0000221 -0.0000340 0.0000324 -0.0000558 0.0000137 -0.0000256 0.0000907 -0.0001199 0.0000089 -0.0001062 0.0000211 -0.0000633 -0.0000017 -0.0001125 0.0000317 -0.0001023 0.0000371 -0.0000933 0.0000092 -0.0001236 0.0000123 0.0004865 0.0000187 -0.0000312 -0.0000939 -0.0001981 0.0000666 -0.0001218 0.0000071 -0.0001691 -0.0000952 -0.0001031 -0.0000123 0.0000004 0.0000425 -0.0000645 -0.0000717 -0.0000758 -0.0001110 -0.0003401 0.0000433 0.0000476 -0.0000411 -0.0001683 0.0000501 -0.0001091 0.0000055 -0.0000378 0.0000706 -0.0001326 0.0001143 -0.0002993 -0.0000466 0.0000419 -0.0000378 -0.0002111 0.0008509 -0.0004086 -0.0000724 0.0000303 0.0000025 -0.0001044 -0.0010261 0.0019527 -0.0000606 0.0000079 0.0000072 -0.0000168 0.0003978 -0.0005318 0.0000724 0.0000452 -0.0000119 0.0000685 -0.0009070 0.0001626 0.0002225 0.0000357 0.0003200 -0.0001147 0.0029516 -0.0024589 -0.0001462 0.0001688 -0.0086208 -0.0044557 -0.0001384 0.0001832 -0.0003884 -0.0001187 0.0000080 -0.0000529 -0.0000466 -0.0001396 -0.0000462 -0.0000925 0.0002064 -0.0002755 0.0000132 -0.0000288 0.0000854 -0.0000844 0.0000941 -0.0001904 0.0001010 -0.0000982 0.0004301 -0.0005518 -0.0064715 0.0099608 -0.0063213 0.0067860 0.0014504 -0.0007343 -0.0033885 0.0031460 0.0000150 -0.0000417 0.0004606 -0.0002557 -0.0000304 -0.0003169 0.0000544 -0.0000828 0.0000798 -0.0000838 -0.0000514 -0.0001311 0.0000712 -0.0000967 0.0013143 -0.0025449 0.0001480 0.0003555 0.0003508 0.0005116 0.0002375 -0.0009258 0.0001024 -0.0000654 -0.0001245 0.0003531 0.0002338 -0.0001846 -0.0002642 0.0002067 0.0000555 -0.0000858 -0.0000393 -0.0000493 0.0006799 -0.0008035 -0.0000805 -0.0001505 0.0005498 -0.0002174 0.0018057 -0.0026556 -0.0003611 0.0000898 -0.0000072 -0.0000546 -0.0001722 0.0001805 0.0001939 -0.0001926 0.0048581 -0.0039064 0.0001755 -0.0002889 0.0001952 -0.0002775 0.0000655 -0.0000241 0.0001001 0.0021524 0.0007233 -0.0008784 0.0000526 -0.0000792 0.0006405 -0.0004661 0.0009207 0.0033084 0.0000748 -0.0001787 0.0000398 -0.0000873 0.0000381 -0.0000817 -0.0000414 0.0000645 0.0001707 -0.0002009 0.0000052 0.0000029 0.0008962 -0.0007366
0.0000233 -0.0000541 0.0000159 -0.0000358 0.0000332 -0.0000454 0.0000053 -0.0000316 0.0000176 -0.0000305 0.0000266 -0.0000274 0.0000428 -0.0000820 0.0000122 -0.0000614 0.0000221 -0.0001057 0.0000203 -0.0000328 0.0000595 -0.0000842 0.0000426 -0.0000468 0.0000215 -0.0000943 0.0000248 -0.0000506 0.0000319 -0.0000301 0.0000274 -0.0000152 0.0000591 -0.0000337 0.0000714 -0.0000914 0.0000347 -0.0000428 0.0002901 0.0001703 0.0000258 -0.0000259 -0.0000935 -0.0000597 0.0000124 0.0000060 0.0000224 -0.0000031 -0.0000118 -0.0002552 -0.0000687 0.0000021 -0.0000084 -0.0000126 -0.0000724 -0.0000752 -0.0000826 -0.0002758 0.0000313 0.0000616 -0.0000586 -0.0001959 0.0000242 -0.0000513 -0.0000018 -0.0000559 -0.0000850 0.0001200 -0.0001759 0.0001242 -0.0000484 -0.0000033 -0.0001092 -0.0002680 0.0002907 0.0001168 -0.0000891 0.0001228 -0.0000365 -0.0000056 -0.0013249 0.0016348 0.0000699 -0.0000974 0.0000082 0.0000026 0.0002078 -0.0005290 0.0001249 0.0001069 0.0000430 0.0001399 0.0043928 -0.0018738 -0.0006098 0.0005669 0.0005670 -0.0000157 -0.0009359 -0.0000452 -0.0002075 0.0002617 -0.0067718 0.0129580 -0.0001054 0.0002688 -0.0001897 -0.0001884 -0.0000334 -0.0001320 -0.0002516 -0.0000252 -0.0000604 -0.0001068 0.0001027 -0.0000506 -0.0000012 -0.0000311 0.0001003 -0.0000345 0.0000073 -0.0002321 0.0004905 -0.0003900 0.0003330 -0.0008627 -0.0006904 0.0104340 -0.0145393 0.0080423 0.0036020 -0.0085449 0.0039381 -0.0044695 0.0000142 -0.0000297 0.0017331 -0.0015580 0.0004470 -0.0001367 -0.0000099 0.0000440 0.0001518 -0.0000993 0.0000672 -0.0001388 0.0000838 -0.0000500 0.0001176 -0.0025462 -0.0003432 0.0003825 0.0020113 0.0000340 -0.0001597 -0.0000340 0.0001365 -0.0000371 0.0004843 -0.0001872 -0.0000394 0.0001085 -0.0007642 0.0006427 0.0000449 0.0000002 0.0000756 -0.0001180 0.0031950 -0.0038915 -0.0004055 0.0004357 -0.0003815 0.0005745 0.0005525 -0.0015713 -0.0002167 -0.0000546 0.0000044 0.0000010 -0.0002247 0.0004104 0.0000163 -0.0000724 0.0040206 -0.0076665 -0.0004532 0.0002888 0.0001005 -0.0000279 0.0004304 -0.0005213 0.0079245 -0.0084488 0.0003623 -0.0008443 0.0000029 -0.0000312 0.0002027 0.0004377 0.0073393 -0.0045818 -0.0009965 0.0010616 0.0002242 -0.0002386 0.0000165 -0.0000827 -0.0000090 -0.0000037 0.0000662 0.0000192 0.0000114 -0.0000678 0.0000413 -0.0000859
0.0000361 -0.0000641 0.0000285 -0.0000479 0.0000386 -0.0000514 0.0000084 -0.0000265 0.0000205 -0.0000264 -0.0000055 -0.0000405 0.0000585 -0.0001038 0.0000230 -0.0000812 0.0000376 -0.0000896 0.0000452 -0.0000874 0.0000422 -0.0001042 0.0000561 -0.0000578 -0.0000013 -0.0000792 0.0000326 -0.0000980 0.0000399 -0.0000526 0.0000339 -0.0000481 0.0000594 -0.0000871 0.0000990 -0.0001542 0.0000477 -0.0000900 0.0009590 -0.0009988 0.0000286 -0.0000778 -0.0000445 -0.0000944 -0.0000058 -0.0000162 0.0000325 -0.0000467 -0.0000514 -0.0001985 -0.0000252 -0.0000625 -0.0000014 -0.0000520 -0.0000381 -0.0001327 -0.0000838 -0.0003213 0.0000242 -0.0000371 -0.0000585 -0.0002662 0.0000979 -0.0001084 0.0000419 -0.0001413 -0.0000986 0.0000440 -0.0000608 0.0001693 -0.0000031 -0.0000966 -0.0000496 -0.0003267 -0.0001713 -0.0002003 -0.0000240 -0.0000304 -0.0000309 -0.0000958 -0.0034443 0.0020002 0.0001941 -0.0002338 0.0000099 0.0000059 0.0004848 -0.0004187 0.0000682 0.0001966 0.0000956 0.0000246 0.0038496 -0.0041997 -0.0004808 0.0000808 -0.0002314 0.0005127 -0.0099563 0.0027076 0.0000195 0.0000454 0.0048855 0.0022507 0.0000351 0.0001273 -0.0000326 -0.0003926 -0.0000405 -0.0001218 -0.0004490 0.0001488 -0.0000537 -0.0001687 0.0000534 0.0000982 0.0000110 -0.0000340 0.0000524 -0.0000250 -0.0001084 -0.0000390 0.0005202 -0.0006565 -0.0001635 0.0000952 0.0071553 -0.0008285 -0.0026416 -0.0059372 0.0078842 -0.0156060 0.0046739 -0.0026378 -0.0000256 0.0000447 0.0008700 0.0005969 0.0012968 -0.0004510 -0.0000210 0.0001682 0.0000888 -0.0000286 0.0000762 -0.0001711 0.0000297 -0.0000307 -0.0020409 -0.0002996 0.0001223 -0.0000086 -0.0005565 0.0018949 -0.0000157 0.0000892 0.0001126 -0.0000052 0.0002031 -0.0000923 -0.0000456 0.0000956 -0.0012799 0.0014684 -0.0000186 0.0001318 -0.0000117 0.0000015 -0.0004321 -0.0007177 -0.0002191 0.0003028 0.0003521 -0.0003478 -0.0001931 -0.0003776 -0.0001698 0.0002180 -0.0000711 0.0001401 -0.0003736 0.0007303 -0.0001196 0.0000685 0.0072712 -0.0085259 -0.0004961 0.0006416 0.0000541 0.0001687 0.0006830 -0.0010551 -0.0027393 0.0073926 -0.0007938 0.0001470 -0.0000864 0.0000981 -0.0000898 0.0002852 0.0084638 -0.0108219 0.0008350 -0.0003540 0.0003633 -0.0004689 -0.0000132 0.0000376 -0.0000271 0.0000141 0.0000341 0.0001539 -0.0000021 0.0000196 -0.0004917 0.0001845
0.0000481 -0.0000329 0.0000370 -0.0000009 0.0000312 0.0000131 0.0000061 0.0000452 -0.0000004 0.0000266 0.0000112 0.0000546 0.0000560 -0.0000032 0.0000161 0.0000015 0.0000353 -0.0000270 0.0000671 -0.0000661 0.0000497 -0.0000277 0.0000499 -0.0000126 0.0000484 -0.0000610 0.0000281 0.0000381 0.0000265 0.0000657 0.0000291 0.0000745 0.0000672 0.0000239 0.0001149 -0.0000699 0.0000440 -0.0000034 0.0006737 -0.0009004 0.0000328 -0.0000567 -0.0000870 -0.0001756 0.0000917 -0.0000407 0.0000371 -0.0000043 -0.0001313 -0.0001961 0.0000099 -0.0000084 0.0000089 0.0000032 -0.0000399 -0.0000942 -0.0000737 -0.0003084 0.0000105 -0.0000208 -0.0000542 -0.0002365 0.0000475 -0.0000292 0.0000927 -0.0001579 0.0000212 -0.0001057 0.0000234 0.0000523 -0.0000310 -0.0000082 -0.0001572 -0.0001527 0.0003474 -0.0009675 -0.0000109 -0.0000312 -0.0000239 -0.0000023 -0.0011966 0.0002982 0.0001774 -0.0001422 0.0000247 0.0000987 0.0004608 0.0001079 0.0000908 0.0001978 0.0000668 0.0000566 -0.0033347 0.0011563 -0.0000663 -0.0003286 -0.0010151 0.0007944 -0.0029444 -0.0007239 0.0000304 0.0000467 0.0057929 -0.0127537 0.0000008 0.0001096 -0.0000477 -0.0005322 -0.0000047 0.0000871 -0.0004021 -0.0000402 -0.0000740 -0.0002742 0.0000642 -0.0000217 -0.0000119 -0.0001774 0.0001179 -0.0000877 0.0000203 0.0001283 0.0004401 -0.0006690 -0.0011132 0.0011323 0.0074540 -0.0076676 -0.0033350 0.0105173 0.0028012 0.0026945 0.0040946 -0.0017958 0.0000056 0.0001001 0.0005356 0.0010039 0.0011033 -0.0004574 -0.0000017 0.0000913 0.0000956 0.0000274 -0.0000488 0.0001788 0.0000824 -0.0000924 0.0007447 -0.0010617 0.0011254 -0.0005660 0.0000130 0.0002440 0.0006888 -0.0007166 0.0000363 0.0000347 -0.0002440 0.0003561 -0.0001814 0.0000885 -0.0005873 0.0004904 -0.0000224 0.0001616 0.0000047 0.0001246 -0.0013499 -0.0015810 -0.0002831 0.0004271 0.0004152 -0.0008399 0.0011442 -0.0025159 0.0000114 0.0000781 0.0000347 0.0000330 0.0001827 0.0001599 -0.0001628 -0.0000162 0.0047164 -0.0063520 -0.0003027 0.0004017 0.0000263 0.0001616 -0.0001962 -0.0001969 -0.0017811 0.0035552 -0.0013673 0.0013167 -0.0000020 -0.0000390 -0.0000169 0.0000254 0.0077673 -0.0223506 0.0012318 -0.0009224 0.0005458 -0.0007244 -0.0000346 -0.0000214 -0.0000292 -0.0000737 -0.0000206 0.0001722 -0.0000518 0.0000240 0.0003099 -0.0005083
0.0000496 -0.0000168 0.0000448 0.0000274 0.0000508 0.0000176 0.0000143 0.0000807 0.0000056 0.0000564 0.0000448 0.0000775 0.0000765 0.0000526 0.0000140 0.0000347 0.0000594 0.0000159 0.0000816 -0.0000491 0.0000846 0.0000347 0.0000456 0.0000145 0.0001131 0.0000355 0.0000440 0.0001524 0.0000271 0.0000953 0.0000387 0.0001758 0.0000721 0.0000583 0.0001469 0.0000082 0.0000395 0.0000424 -0.0006339 0.0005714 0.0000496 -0.0000126 -0.0001216 -0.0001864 0.0001677 -0.0000261 0.0000418 0.0001120 -0.0001376 -0.0003621 -0.0000071 0.0000834 -0.0000061 0.0001384 -0.0000587 -0.0000539 -0.0000602 -0.0002660 0.0000196 -0.0000209 -0.0000336 -0.0001706 0.0001084 0.0000037 0.0001139 -0.0000990 0.0000048 -0.0000868 0.0000388 -0.0000306 -0.0000319 0.0000348 -0.0001764 -0.0000914 0.0003698 -0.0006296 0.0000339 0.0000550 -0.0001316 0.0002102 0.0006248 -0.0004049 0.0002028 -0.0000856 0.0000685 0.0002461 0.0004434 0.0005825 0.0003395 0.0001204 0.0000814 0.0003674 -0.0058390 0.0043904 0.0005926 -0.0012344 -0.0006332 0.0004861 0.0030082 -0.0049091 -0.0001994 0.0004634 -0.0254818 0.0253880 0.0000395 0.0001064 -0.0003129 -0.0004212 0.0000336 0.0002083 -0.0002981 -0.0003029 -0.0001196 -0.0003388 -0.0000581 -0.0000224 -0.0000591 -0.0002997 0.0001293 -0.0000906 0.0001116 0.0001509 -0.0000924 0.0002021 -0.0000931 -0.0000495 -0.0018047 -0.0021062 -0.0020017 0.0018867 -0.0054078 0.0097398 0.0004182 0.0006733 0.0000067 0.0000884 -0.0010741 0.0011331 0.0015233 -0.0014940 0.0000547 0.0000151 0.0000705 0.0000139 -0.0001308 0.0001955 0.0001049 -0.0001004 0.0019286 -0.0010255 0.0007577 -0.0006113 0.0011803 -0.0013855 -0.0001262 0.0000223 -0.0000005 0.0000481 -0.0006825 0.0000958 -0.0005745 0.0004131 0.0005270 -0.0006777 0.0000908 0.0000792 -0.0000428 0.0001068 0.0003391 -0.0016413 -0.0000542 0.0001195 0.0001449 -0.0004781 0.0013318 -0.0028956 0.0003564 -0.0005855 0.0001269 -0.0001420 0.0002060 -0.0000557 -0.0000097 -0.0002460 0.0060711 -0.0132240 0.0001395 -0.0000063 0.0000668 -0.0000035 0.0000974 -0.0001064 0.0012981 -0.0003818 -0.0002648 0.0003682 -0.0000171 -0.0001818 -0.0010723 0.0010989 0.0026179 -0.0142217 0.0009085 -0.0008837 0.0005112 -0.0007928 -0.0000591 -0.0002310 -0.0000722 -0.0002432 -0.0001598 0.0000729 -0.0000152 -0.0002012 0.0015596 -0.0014242
0.0000664 -0.0000648 0.0000675 -0.0000098 0.0000744 -0.0000674 0.0000292 0.0000316 0.0000312 0.0000392 0.0001051 -0.0000535 0.0001060 -0.0000309 0.0000303 -0.0000331 0.0000779 -0.0000024 0.0001130 -0.0001188 0.0000985 0.0000093 0.0000404 -0.0000053 0.0001641 0.0000377 0.0000608 0.0000909 0.0000334 0.0000067 0.0000579 0.0001181 0.0000691 -0.0000521 0.0001694 -0.0000529 0.0000548 -0.0000647 -0.0006287 0.0007873 0.0000590 -0.0000208 -0.0001262 -0.0002269 0.0001820 -0.0000984 0.0000452 0.0001527 -0.0001983 -0.0004229 -0.0000536 0.0000776 -0.0000271 0.0001361 -0.0000340 -0.0001515 -0.0000733 -0.0003225 0.0000231 -0.0001215 -0.0000260 -0.0002103 0.0001315 0.0000309 0.0000742 -0.0000583 -0.0000010 -0.0001950 -0.0000873 -0.0000151 0.0000390 -0.0001307 -0.0000197 -0.0003226 -0.0007442 0.0004968 0.0001100 -0.0000294 -0.0000790 0.0000460 -0.0001292 -0.0001639 0.0003392 -0.0002923 0.0000935 0.0003144 -0.0000218 0.0012852 0.0004041 0.0001447 0.0001574 0.0005304 0.0024383 -0.0003452 0.0009709 -0.0011646 -0.0005307 0.0004980 0.0032918 -0.0036839 0.0001603 0.0003684 -0.0040309 0.0054664 0.0000399 0.0003946 -0.0005086 -0.0005457 0.0000737 0.0001037 -0.0001336 -0.0005408 -0.0001557 -0.0003403 0.0000215 -0.0000901 -0.0000641 -0.0003308 0.0001726 -0.0001354 0.0000671 -0.0000501 -0.0005255 0.0008111 0.0004937 -0.0006437 0.0019389 -0.0015344 -0.0039685 -0.0048336 -0.0046563 0.0029429 0.0023319 -0.0021984 0.0000583 -0.0000212 -0.0060052 0.0055188 0.0016412 -0.0015068 0.0000547 0.0001186 0.0000834 -0.0000677 0.0003736 -0.0004956 0.0000413 0.0000193 0.0023771 -0.0023461 0.0007051 -0.0010049 0.0010603 -0.0022051 -0.0013289 0.0006770 -0.0000170 0.0001441 -0.0002300 -0.0004731 -0.0004423 0.0003652 0.0009321 -0.0007226 0.0001170 0.0000246 -0.0003879 0.0004219 -0.0048283 0.0023373 0.0003799 -0.0002844 0.0003340 -0.0003549 0.0023666 -0.0028705 -0.0001534 -0.0001660 0.0000437 -0.0000440 0.0001152 0.0000055 0.0003291 -0.0004064 0.0114269 -0.0186258 0.0004643 -0.0000570 0.0000136 -0.0000371 0.0000006 0.0002895 0.0120526 -0.0123910 0.0002443 -0.0005715 -0.0000372 -0.0001628 -0.0010601 0.0009177 -0.0043198 0.0079271 -0.0002809 0.0002500 0.0001777 -0.0004591 -0.0000339 -0.0002132 -0.0001138 -0.0001960 -0.0003276 0.0003237 0.0000006 -0.0001119 0.0003106 -0.0001381
0.0000571 -0.0000404 0.0000697 0.0000172 0.0000751 -0.0000635 0.0000237 0.0000631 0.0000278 0.0000850 0.0001057 0.0000292 0.0000952 -0.0000010 0.0000323 0.0000255 0.0000575 -0.0000421 0.0001269 -0.0001194 0.0000848 0.0000264 0.0000615 0.0000072 0.0001379 -0.0001277 0.0000563 0.0001643 0.0000345 0.0001052 0.0000654 0.0001672 0.0000738 0.0000481 0.0001652 -0.0000182 0.0000694 -0.0000299 -0.0001562 0.0000750 0.0000553 -0.0000045 -0.0002190 -0.0001409 0.0000673 -0.0000286 0.0000403 0.0001230 -0.0002179 -0.0003323 -0.0000825 0.0000704 -0.0000066 0.0000307 -0.0000005 -0.0002254 -0.0000875 -0.0004169 0.0000278 -0.0002129 -0.0000410 -0.0003363 0.0001535 -0.0001050 0.0000197 -0.0001416 0.0001677 -0.0004481 -0.0000650 -0.0000396 0.0000496 -0.0002511 0.0000251 -0.0004755 -0.0003781 0.0006297 0.0000897 -0.0001474 0.0000516 -0.0002995 0.0008377 -0.0006048 0.0000319 -0.0002834 0.0001171 0.0002144 0.0009813 0.0000096 0.0001432 0.0002023 0.0001382 0.0003730 0.0034171 -0.0023002 0.0016819 -0.0017868 0.0004266 -0.0002236 -0.0023781 0.0053673 0.0001600 0.0002791 0.0037720 -0.0041148 0.0000147 0.0004258 -0.0004697 -0.0007463 0.0001002 -0.0000122 -0.0002357 -0.0005368 -0.0001808 -0.0003703 0.0000947 -0.0002302 -0.0000481 -0.0004281 0.0001641 -0.0001475 0.0000815 -0.0003523 -0.0004338 0.0002707 0.0001277 -0.0002168 0.0083645 -0.0177174 -0.0110163 0.0212040 -0.0055902 0.0074367 0.0067908 -0.0063881 0.0001331 -0.0001833 -0.0031320 0.0036201 0.0003447 -0.0004976 0.0000402 0.0001272 0.0000885 -0.0000814 0.0004054 -0.0004817 0.0001121 -0.0000634 0.0009065 -0.0031303 0.0003220 -0.0003723 0.0010047 -0.0012254 -0.0008125 -0.0004471 0.0000115 0.0001900 0.0003494 -0.0005780 -0.0001595 0.0002205 0.0005020 -0.0005293 0.0000526 -0.0000235 -0.0000903 0.0004012 -0.0051199 0.0050916 0.0002269 -0.0000762 -0.0005561 0.0001635 0.0002895 -0.0006402 -0.0001772 0.0000369 -0.0000134 0.0000472 -0.0000610 0.0001146 0.0002356 -0.0001966 0.0016131 -0.0008925 -0.0000037 0.0000872 -0.0001257 0.0000026 -0.0006802 0.0005988 0.0109979 -0.0084071 -0.0000535 -0.0004431 0.0000456 -0.0002165 -0.0013412 0.0014865 0.0006230 0.0077175 -0.0009049 0.0008000 -0.0000476 0.0000346 -0.0000037 -0.0002414 -0.0000593 -0.0002218 -0.0001770 0.0003196 -0.0000332 -0.0000505 -0.0009579 0.0004658
0.0000662 -0.0000220 0.0000690 0.0000380 0.0000912 -0.0000657 0.0000283 0.0000811 0.0000331 0.0000723 0.0000726 0.0000929 0.0000815 0.0000398 0.0000387 0.0000492 0.0000502 -0.0000374 0.0001336 -0.0001228 0.0000551 0.0000567 0.0000672 0.0000151 0.0001104 -0.0002335 0.0000572 0.0002131 0.0000427 0.0001515 0.0000722 0.0002007 0.0000835 0.0001415 0.0001508 0.0000454 0.0000817 0.0000093 0.0000810 -0.0004678 0.0000491 0.0000363 -0.0003310 0.0000678 0.0000292 -0.0000002 0.0000370 0.0001268 -0.0002908 -0.0002048 -0.0000566 0.0000821 0.0000089 0.0000364 -0.0000424 -0.0001714 -0.0000977 -0.0004150 0.0000389 -0.0002236 -0.0000520 -0.0003435 0.0002255 -0.0002251 -0.0000528 -0.0001247 0.0001231 -0.0004267 0.0001724 -0.0000460 0.0000285 -0.0002343 -0.0000852 -0.0003873 0.0007663 -0.0004233 0.0000722 -0.0001190 -0.0000188 -0.0001735 0.0008389 -0.0000869 -0.0000817 -0.0001612 0.0000837 0.0002125 0.0015029 -0.0007396 0.0002472 0.0001337 0.0000861 0.0003859 0.0009372 -0.0018242 0.0019335 -0.0020647 0.0012120 -0.0004525 -0.0047893 0.0078597 -0.0001085 0.0005123 -0.0026630 0.0093640 -0.0000420 0.0004298 -0.0003980 -0.0008368 0.0001090 -0.0000520 -0.0003683 -0.0005232 -0.0001751 -0.0003967 0.0000248 -0.0002308 -0.0000349 -0.0004094 0.0001028 -0.0000676 -0.0000375 -0.0002554 0.0000718 0.0000158 -0.0000228 0.0004226 0.0043342 -0.0054856 -0.0171573 0.0249281 0.0004443 -0.0082197 0.0061410 -0.0040640 0.0002610 -0.0001570 0.0017112 -0.0013414 -0.0008548 0.0002076 0.0000803 0.0001475 0.0000251 0.0000553 0.0002326 -0.0003545 -0.0000474 0.0000736 -0.0002404 -0.0013560 0.0005517 -0.0005146 0.0032023 -0.0022029 0.0013108 -0.0007962 0.0000482 0.0002002 0.0001504 -0.0003396 -0.0000222 0.0000263 -0.0003347 0.0000664 0.0000365 -0.0000319 0.0001243 0.0000696 0.0004730 0.0021943 -0.0000523 0.0002412 -0.0008698 0.0001995 0.0001962 0.0002455 0.0000122 -0.0002743 -0.0000033 0.0000549 -0.0003151 0.0002605 -0.0000840 0.0001344 0.0017538 -0.0015028 0.0000214 -0.0000752 -0.0002501 0.0000838 -0.0009589 0.0007506 -0.0024910 0.0109708 -0.0009420 0.0007955 0.0000047 -0.0001407 -0.0010050 0.0010872 0.0088673 -0.0083069 -0.0008897 0.0010503 -0.0001140 -0.0000156 -0.0000421 -0.0001769 -0.0000135 -0.0002358 0.0001882 -0.0000233 0.0000339 -0.0001371 -0.0005089 -0.0000568
0.0000574 0.0000063 0.0000720 0.0000494 0.0000794 -0.0000446 0.0000307 0.0000985 0.0000391 0.0001073 0.0000185 0.0001727 0.0000688 0.0000835 0.0000390 0.0000878 0.0000574 -0.0000246 0.0001428 -0.0001435 0.0000689 0.0000642 0.0000570 0.0000223 0.0000839 -0.0002955 0.0000468 0.0002193 0.0000399 0.0001909 0.0000672 0.0002082 0.0000669 0.0002231 0.0001369 0.0000846 0.0000767 0.0000244 -0.0000995 0.0002033 0.0000503 0.0000536 -0.0003519 0.0001186 0.0001454 -0.0001430 0.0000339 0.0001232 -0.0003066 -0.0002364 -0.0000291 0.0001040 0.0000074 0.0000735 -0.0000320 -0.0001465 -0.0000968 -0.0004156 0.0000414 -0.0001927 -0.0000517 -0.0003101 0.0002318 -0.0002689 -0.0000547 -0.0001125 -0.0000551 -0.0002336 0.0000590 0.0002040 -0.0000199 -0.0002206 -0.0001549 -0.0002144 0.0001913 -0.0002538 0.0000769 -0.0000990 0.0000311 -0.0001286 0.0002856 0.0008060 0.0000552 -0.0001628 0.0000336 0.0002257 0.0005611 0.0000252 -0.0002440 0.0007057 0.0000548 0.0004122 0.0023826 -0.0016128 0.0012249 -0.0011521 0.0011921 -0.0003272 -0.0037405 0.0044170 -0.0001539 0.0004406 0.0062866 -0.0117605 -0.0000511 0.0004744 -0.0002481 -0.0009984 0.0001100 -0.0000437 -0.0003270 -0.0005506 -0.0001696 -0.0004127 0.0000707 -0.0001359 -0.0000243 -0.0003803 -0.0000869 0.0001735 0.0000280 -0.0003171 -0.0000803 0.0003604 0.0000515 0.0003284 0.0038241 -0.0011938 -0.0086240 0.0169920 -0.0114256 0.0037776 0.0038803 -0.0026303 0.0002550 -0.0000195 0.0032292 -0.0024422 0.0008920 -0.0013553 -0.0000120 0.0002918 0.0000214 0.0001603 0.0003153 -0.0002692 -0.0000417 0.0000696 0.0015420 -0.0014692 0.0000131 0.0001029 0.0031804 -0.0031481 0.0002122 -0.0001494 0.0000150 0.0002564 -0.0004907 0.0001815 0.0000485 -0.0000128 -0.0004532 0.0006530 0.0000682 0.0000110 -0.0002146 0.0003019 -0.0026371 0.0021407 0.0002816 0.0000538 -0.0000971 -0.0003262 0.0009216 -0.0008450 -0.0000046 -0.0002057 -0.0000104 0.0000848 -0.0003339 0.0003271 -0.0001158 0.0001915 -0.0067050 0.0089523 0.0002699 -0.0002081 -0.0001761 0.0001049 -0.0003601 0.0002471 -0.0043529 0.0077398 -0.0001698 0.0005614 0.0000011 -0.0000741 -0.0003209 -0.0004434 -0.0022477 -0.0034001 -0.0017772 0.0016711 -0.0002095 -0.0002425 -0.0000577 -0.0000667 -0.0000014 -0.0001699 0.0001016 0.0000389 0.0000600 -0.0000832 0.0001336 -0.0004271
0.0000248 0.0000517 0.0000582 0.0000754 0.0000653 -0.0000208 0.0000385 0.0001356 0.0000363 0.0001042 0.0000139 0.0002094 0.0000494 0.0001254 0.0000261 0.0001476 0.0000583 -0.0000162 0.0001394 -0.0001424 0.0000850 0.0000773 0.0000614 0.0000137 0.0001140 -0.0003422 0.0000302 0.0002775 0.0000308 0.0002500 0.0000451 0.0002359 0.0000375 0.0003204 0.0001124 0.0001260 0.0000615 0.0000628 -0.0006363 0.0007121 0.0000348 0.0000777 -0.0003180 -0.0000318 0.0001436 -0.0001062 0.0000099 0.0001410 -0.0001280 -0.0004083 -0.0000445 0.0001736 0.0000014 0.0001251 -0.0000036 -0.0001065 -0.0000974 -0.0004051 0.0000299 -0.0001207 -0.0000426 -0.0002892 0.0002089 -0.0002122 -0.0000262 -0.0001202 -0.0000215 -0.0000832 0.0000980 0.0001573 -0.0000635 -0.0001956 -0.0001370 -0.0001532 -0.0001099 0.0001540 0.0000822 -0.0000829 0.0000486 -0.0001272 0.0018137 -0.0014549 -0.0003170 0.0001941 0.0000265 0.0002153 0.0005654 -0.0002149 -0.0001374 0.0005530 -0.0000142 0.0004640 0.0032254 -0.0008630 0.0001509 -0.0003153 0.0008679 -0.0000692 -0.0052865 0.0036496 -0.0002720 0.0004149 0.0026673 -0.0053431 -0.0000099 0.0003985 -0.0005436 -0.0005214 0.0001149 -0.0001113 -0.0002104 -0.0007721 -0.0001932 -0.0004014 0.0000812 -0.0001058 -0.0000506 -0.0003249 -0.0002518 0.0003394 0.0000672 -0.0004658 -0.0004732 0.0003992 0.0003265 -0.0001822 -0.0050482 0.0006967 0.0031530 0.0098940 -0.0145414 0.0154009 0.0027873 -0.0056659 0.0002382 -0.0000160 0.0000077 -0.0000662 0.0002051 -0.0003796 -0.0001100 0.0003117 0.0000424 0.0002660 0.0002758 -0.0002085 0.0000868 0.0000649 0.0014978 -0.0005643 -0.0002123 -0.0000100 -0.0005555 0.0006179 -0.0028430 0.0014401 -0.0000363 0.0003552 -0.0006712 0.0002485 0.0002377 0.0000294 -0.0005354 0.0006020 0.0000141 0.0000564 -0.0003188 0.0004002 -0.0063689 0.0030873 0.0002222 0.0000796 0.0006420 -0.0007139 0.0005650 -0.0010913 0.0003480 -0.0000435 -0.0000989 0.0001110 -0.0000670 0.0001562 0.0001650 -0.0002163 -0.0177036 0.0186142 0.0001134 -0.0001225 -0.0001837 0.0000701 0.0004593 -0.0005023 -0.0029956 0.0095869 0.0001721 -0.0002460 -0.0001064 -0.0001183 -0.0001940 -0.0002085 -0.0012759 0.0039975 -0.0014064 0.0012694 -0.0002693 -0.0003185 -0.0000668 -0.0001485 -0.0000253 -0.0002269 -0.0000991 0.0001629 -0.0000097 -0.0000458 -0.0000323 -0.0004027
0.0000494 -0.0000092 0.0000538 0.0000216 0.0000849 -0.0001021 0.0000442 0.0001069 0.0000354 -0.0000355 0.0000171 0.0000944 0.0000357 0.0000234 0.0000293 0.0000767 0.0000611 -0.0000613 0.0001361 -0.0001980 0.0000683 0.0000118 0.0000521 -0.0000510 0.0001026 -0.0003916 0.0000324 0.0001856 0.0000355 0.0001630 0.0000229 0.0001041 0.0000358 0.0002357 0.0000800 0.0000545 0.0000506 -0.0000349 -0.0007227 0.0001862 0.0000264 0.0000629 -0.0001621 -0.0002460 0.0000242 -0.0000064 -0.0000132 0.0001344 -0.0000194 -0.0005646 -0.0000191 0.0001370 0.0000008 0.0001255 -0.0000337 -0.0001143 -0.0000894 -0.0004272 0.0000448 -0.0001432 -0.0000582 -0.0002882 0.0001659 -0.0001016 -0.0000683 -0.0000280 0.0000337 -0.0000730 0.0002293 0.0000170 -0.0000808 -0.0002312 -0.0001251 -0.0001830 -0.0005664 0.0007989 0.0000220 -0.0000623 -0.0000443 -0.0001045 0.0013528 -0.0012708 -0.0000497 0.0000242 0.0000233 0.0002084 0.0005176 -0.0000227 0.0001497 0.0002727 -0.0000034 0.0004550 0.0054969 -0.0038644 -0.0011353 0.0009202 0.0005758 0.0002555 0.0049053 -0.0058381 0.0000275 0.0000828 -0.0004351 0.0077514 0.0001138 0.0002945 -0.0005744 -0.0004391 0.0001378 -0.0001764 -0.0000928 -0.0009264 -0.0001899 -0.0003693 0.0002001 -0.0003030 -0.0000698 -0.0002407 -0.0001647 0.0003046 0.0000059 -0.0003120 -0.0007208 0.0005609 0.0007296 -0.0002536 -0.0198184 0.0094922 0.0072437 -0.0053609 -0.0036419 0.0057211 -0.0029816 -0.0023223 0.0001132 0.0001485 -0.0021531 0.0013320 -0.0016069 0.0022980 -0.0000652 0.0003022 0.0000527 0.0003464 0.0005739 -0.0005462 0.0002091 0.0000566 -0.0020031 0.0005587 0.0002008 -0.0000854 -0.0011056 0.0017311 -0.0018174 0.0011545 -0.0000413 0.0004399 -0.0003565 0.0005679 0.0001121 0.0001922 0.0001560 -0.0000193 -0.0000287 0.0001327 0.0000689 0.0000800 -0.0063336 0.0023951 -0.0004100 0.0005295 0.0004042 -0.0002528 0.0008941 -0.0005423 0.0009393 -0.0003719 -0.0000908 0.0000822 0.0003542 -0.0002628 -0.0000322 -0.0000000 -0.0043650 0.0060686 -0.0002484 0.0002269 -0.0002074 0.0000153 -0.0006002 0.0006276 0.0046661 0.0102893 0.0003950 -0.0008418 -0.0001353 -0.0001395 -0.0016673 0.0015076 0.0003869 0.0048143 -0.0003567 0.0005252 -0.0000720 -0.0003973 -0.0001149 -0.0000404 -0.0000509 -0.0001525 -0.0003476 0.0005833 -0.0000460 0.0001697 -0.0006751 0.0004873
0.0000408 0.0000251 0.0000622 0.0000425 0.0000862 -0.0000748 0.0000449 0.0001409 0.0000313 -0.0000025 -0.0000127 0.0001813 0.0000316 0.0000668 0.0000251 0.0001471 0.0000527 -0.0000133 0.0001429 -0.0001686 0.0000768 0.0000379 0.0000384 0.0000058 0.0000603 -0.0003434 0.0000312 0.0002334 0.0000268 0.0002444 0.0000141 0.0001385 0.0000319 0.0003462 0.0000491 0.0001430 0.0000364 0.0000338 -0.0005356 0.0003500 0.0000086 0.0001398 -0.0001370 -0.0002604 0.0000476 0.0000631 -0.0000141 0.0001639 -0.0001566 -0.0003686 -0.0000083 0.0002282 0.0000111 0.0001707 -0.0000179 -0.0000972 -0.0000868 -0.0003967 0.0000684 -0.0000773 -0.0000533 -0.0002016 0.0001714 -0.0000659 0.0000014 -0.0000220 0.0000883 -0.0000658 0.0000333 0.0004269 -0.0000780 -0.0002423 -0.0002369 0.0000047 0.0002121 -0.0001561 0.0000655 -0.0000299 0.0000598 -0.0000859 0.0005298 -0.0001707 0.0001030 0.0001845 0.0000177 0.0002565 0.0002593 0.0000119 -0.0000240 0.0006009 -0.0000107 0.0004081 0.0034512 -0.0025849 -0.0015180 0.0014839 0.0006047 0.0000994 0.0058634 -0.0057998 0.0003148 -0.0001462 0.0033521 0.0008908 0.0000823 0.0003464 -0.0001900 -0.0009689 0.0001893 -0.0001484 -0.0001781 -0.0007446 -0.0001918 -0.0003102 0.0002730 -0.0002203 -0.0000535 -0.0001566 -0.0000510 0.0003027 0.0000784 -0.0002378 -0.0005518 0.0008974 0.0008547 -0.0003297 -0.0105750 0.0003887 -0.0072030 0.0112524 0.0011182 -0.0062171 -0.0038403 -0.0002557 -0.0000231 0.0002522 -0.0009647 0.0008062 0.0001315 0.0012929 -0.0000321 0.0004077 0.0000440 0.0004109 0.0008414 -0.0005702 0.0001848 0.0000344 -0.0005796 -0.0012509 0.0005135 0.0004566 0.0010039 -0.0009230 0.0005598 0.0006020 -0.0000897 0.0004471 -0.0006798 0.0010770 -0.0002488 0.0006491 0.0003182 0.0001809 0.0000440 0.0000549 0.0002484 0.0000326 -0.0059932 0.0015424 0.0000484 -0.0001018 0.0001413 -0.0004766 -0.0010331 0.0015652 0.0007330 -0.0000825 -0.0000977 0.0001143 0.0005645 -0.0006332 -0.0002287 0.0000603 0.0030544 0.0008157 -0.0003227 0.0003103 -0.0001960 0.0000162 -0.0007628 0.0009049 0.0069728 0.0030455 0.0010040 -0.0015813 -0.0000901 -0.0000330 -0.0007020 0.0007211 -0.0020904 0.0078558 -0.0009134 0.0009388 0.0001353 -0.0005251 -0.0000990 0.0000176 -0.0000351 -0.0000473 -0.0004058 0.0007056 -0.0000614 0.0002572 0.0001768 0.0001549
0.0000547 0.0000043 0.0000730 0.0000656 0.0000921 -0.0000589 0.0000667 0.0001347 0.0000335 -0.0000361 0.0000004 0.0001840 0.0000308 0.0000784 0.0000276 0.0001452 0.0000649 0.0000730 0.0001594 -0.0001579 0.0000784 0.0000457 0.0000471 0.0000329 0.0002227 -0.0004207 0.0000339 0.0002101 0.0000267 0.0002476 0.0000195 0.0001231 0.0000273 0.0003649 0.0000592 0.0001900 0.0000364 0.0000774 -0.0004535 0.0008111 0.0000242 0.0001736 -0.0002623 -0.0001475 0.0001275 0.0000124 0.0000031 0.0001748 -0.0002582 -0.0001484 0.0000030 0.0003084 0.0000303 0.0002184 0.0000267 -0.0000783 -0.0000780 -0.0003768 0.0001075 -0.0000212 -0.0000140 -0.0001201 0.0001540 -0.0000408 0.0000740 -0.0000277 0.0001471 -0.0000374 -0.0004178 0.0007116 -0.0000825 -0.0002032 -0.0002533 0.0000791 0.0010320 -0.0008927 0.0000715 0.0000924 -0.0000138 0.0000612 0.0014578 -0.0016495 0.0000305 0.0003135 -0.0000114 0.0003524 0.0005018 -0.0001394 -0.0000082 0.0006734 -0.0000736 0.0004176 -0.0032138 0.0029248 -0.0000631 0.0001254 0.0001950 0.0004366 -0.0035828 0.0055218 0.0000415 -0.0000259 -0.0027974 0.0005253 -0.0000450 0.0005357 0.0000207 -0.0011324 0.0002140 -0.0000832 -0.0001255 -0.0006579 -0.0002106 -0.0002462 0.0003268 -0.0002429 -0.0000295 -0.0000326 -0.0000757 0.0003784 0.0000668 -0.0001577 -0.0001808 0.0008414 0.0007328 -0.0003085 -0.0013481 -0.0117085 -0.0129514 0.0154777 -0.0058254 -0.0050678 0.0008293 -0.0008008 -0.0001720 0.0004977 0.0019038 -0.0010564 0.0011900 -0.0007005 -0.0000275 0.0005822 0.0000838 0.0004291 0.0002884 0.0003723 0.0001081 0.0002634 0.0010763 -0.0011041 0.0006849 0.0003088 0.0005887 -0.0005823 0.0006209 0.0009311 -0.0000176 0.0005001 0.0000857 0.0000691 -0.0001579 0.0007777 0.0002927 0.0002393 0.0000574 0.0002002 0.0002060 0.0000101 -0.0010136 -0.0019564 0.0004123 -0.0000871 0.0005137 -0.0005429 -0.0013160 0.0014659 0.0006734 -0.0002517 -0.0000028 0.0001820 0.0000424 0.0001069 -0.0001295 0.0001512 -0.0023837 0.0052868 -0.0002323 0.0004462 -0.0000839 0.0000314 -0.0001812 0.0005728 -0.0059002 0.0111670 0.0002445 -0.0002486 -0.0001066 0.0001278 0.0001930 -0.0001460 0.0032811 0.0050584 0.0000334 0.0002132 -0.0000497 0.0000162 -0.0000786 0.0000966 -0.0000756 0.0000897 -0.0001958 0.0007264 -0.0001057 0.0004209 0.0005573 -0.0000657
0.0000832 0.0000238 0.0000809 0.0001225 0.0000990 0.0000096 0.0000760 0.0001551 0.0000315 -0.0000086 -0.0000138 0.0002593 0.0000208 0.0001712 0.0000224 0.0002159 0.0000578 0.0001206 0.0001544 -0.0001059 0.0000549 0.0001150 0.0000540 0.0000639 0.0002199 -0.0003612 0.0000368 0.0002817 0.0000230 0.0003367 0.0000303 0.0002120 0.0000111 0.0004623 0.0000675 0.0002882 0.0000487 0.0001922 -0.0003143 0.0004120 0.0000351 0.0002204 -0.0003020 -0.0000206 0.0000494 0.0001783 0.0000213 0.0002137 0.0000379 -0.0003913 0.0000298 0.0003398 0.0000524 0.0002547 0.0000115 -0.0000029 -0.0000627 -0.0003301 0.0000951 0.0000664 0.0000089 -0.0000480 0.0002269 -0.0000586 0.0000279 0.0000359 0.0000227 0.0001607 -0.0004515 0.0006464 -0.0000727 -0.0001895 -0.0001631 -0.0000161 0.0002579 0.0000171 -0.0000307 0.0002897 -0.0001928 0.0002249 0.0016466 -0.0019167 0.0002934 0.0000355 -0.0000177 0.0004214 -0.0002649 0.0010225 -0.0001542 0.0008408 -0.0001240 0.0004493 -0.0051889 0.0051909 0.0016546 -0.0016489 -0.0002478 0.0007955 -0.0030346 0.0036017 0.0002036 -0.0002179 -0.0176330 0.0111595 -0.0000713 0.0005733 -0.0001578 -0.0008258 0.0002172 -0.0000767 -0.0000439 -0.0004868 -0.0001890 -0.0002687 0.0002111 -0.0003242 -0.0000140 -0.0001205 -0.0001692 0.0003705 0.0001417 -0.0001255 -0.0004311 0.0004322 0.0003738 -0.0001532 -0.0051893 0.0048146 -0.0090667 0.0108124 -0.0142603 0.0074752 -0.0018168 0.0036660 -0.0001183 0.0004953 0.0016237 -0.0014945 -0.0005398 0.0005208 0.0000201 0.0004454 0.0000950 0.0003820 0.0001307 0.0004436 0.0002148 0.0000258 -0.0024922 0.0011838 0.0021076 -0.0012308 -0.0011604 0.0023338 -0.0017860 0.0021536 -0.0000812 0.0005852 0.0003842 -0.0001367 -0.0000801 0.0005616 0.0010712 -0.0007756 0.0000118 0.0002945 -0.0000772 0.0002267 -0.0009663 0.0002199 -0.0002044 0.0005073 0.0005714 -0.0004140 0.0010355 -0.0024767 0.0001190 -0.0002029 0.0000677 0.0001535 -0.0003426 0.0006425 0.0000608 -0.0000754 -0.0042583 0.0086153 -0.0003737 0.0005570 -0.0000702 0.0000354 -0.0001047 0.0003722 -0.0074274 0.0091042 -0.0007513 0.0008230 -0.0000236 0.0000592 -0.0006203 0.0009177 0.0104881 -0.0080532 0.0017696 -0.0014598 -0.0008920 0.0008343 -0.0000568 0.0000921 -0.0000786 0.0001405 -0.0000269 0.0006246 -0.0001047 0.0004648 0.0001999 0.0001561
0.0000978 0.0000127 0.0000959 0.0001371 0.0001100 0.0000286 0.0000800 0.0001408 0.0000318 -0.0000490 0.0000122 0.0002238 0.0000241 0.0001971 0.0000231 0.0002168 0.0000549 0.0001227 0.0001429 -0.0000596 0.0000809 0.0001280 0.0000504 0.0000820 0.0001540 -0.0002305 0.0000419 0.0002758 0.0000281 0.0003536 0.0000400 0.0002210 0.0000095 0.0004970 0.0000739 0.0003472 0.0000536 0.0002473 -0.0007288 0.0002923 0.0000315 0.0002519 -0.0001418 -0.0000931 -0.0000230 0.0002901 0.0000353 0.0002184 -0.0001115 -0.0003489 0.0000299 0.0003873 0.0000618 0.0002748 0.0000344 0.0000061 -0.0000519 -0.0002951 0.0000619 0.0001505 0.0000207 0.0000101 0.0002448 -0.0000420 0.0000252 0.0000472 0.0000276 0.0001046 0.0004880 0.0000838 -0.0000263 -0.0002255 -0.0001592 -0.0000530 0.0000502 -0.0002450 0.0000108 0.0003556 -0.0001694 0.0003350 0.0014884 -0.0014117 0.0004194 0.0001221 0.0000185 0.0004591 -0.0005309 0.0009777 -0.0001676 0.0010652 -0.0000544 0.0005046 -0.0058889 0.0063532 0.0013806 -0.0012854 0.0004307 0.0001551 0.0006914 -0.0041411 0.0001039 -0.0000598 -0.0159144 0.0117912 0.0000576 0.0004365 -0.0006329 -0.0003836 0.0002191 -0.0000735 -0.0000080 -0.0005101 -0.0001583 -0.0002677 0.0000503 0.0001352 -0.0000043 -0.0000082 -0.0002208 0.0004735 -0.0001632 0.0000934 -0.0003191 0.0005087 0.0004281 0.0001100 -0.0107536 0.0208380 -0.0158021 0.0273275 -0.0169900 0.0273774 -0.0053798 0.0066002 0.0002195 0.0003999 -0.0007769 -0.0000888 -0.0009929 0.0018731 0.0000630 0.0005096 0.0000241 0.0005718 0.0000380 0.0002875 0.0001903 0.0000590 -0.0017930 0.0003431 0.0020138 -0.0010023 -0.0035105 0.0050260 0.0009334 0.0005654 -0.0000754 0.0006450 -0.0007963 0.0006252 0.0000013 0.0007289 0.0002321 0.0003875 -0.0000420 0.0004355 -0.0003089 0.0006079 -0.0019557 0.0031008 -0.0004540 0.0004141 0.0004889 -0.0004291 -0.0001257 -0.0006792 -0.0007571 0.0010215 0.0000290 0.0002225 0.0000612 0.0000074 0.0002382 0.0000025 -0.0003782 0.0051002 -0.0001024 0.0004529 -0.0001048 0.0001580 0.0001306 0.0004144 0.0027929 0.0023554 -0.0009818 0.0008210 -0.0000483 0.0001416 0.0008621 -0.0000682 0.0072767 -0.0050381 0.0013141 -0.0012636 -0.0009692 0.0009409 -0.0000334 0.0001733 -0.0000138 0.0001615 -0.0000780 0.0007513 -0.0000726 0.0004808 -0.0003704 0.0007486
0.0000960 0.0000287 0.0000992 0.0001629 0.0001125 0.0000714 0.0000726 0.0001493 0.0000368 -0.0000455 0.0000194 0.0002494 0.0000203 0.0002360 0.0000204 0.0002435 0.0000495 0.0001245 0.0001316 -0.0000136 0.0000578 0.0001738 0.0000393 0.0001255 0.0000988 -0.0001430 0.0000459 0.0002581 0.0000327 0.0003721 0.0000444 0.0002074 0.0000128 0.0004769 0.0000729 0.0003682 0.0000630 0.0002515 -0.0002124 -0.0000201 0.0000255 0.0002602 -0.0001979 -0.0000109 -0.0000473 0.0002622 0.0000414 0.0001760 -0.0002593 -0.0001775 0.0000422 0.0003283 0.0000734 0.0002032 0.0000674 -0.0000552 -0.0000413 -0.0003492 0.0000652 0.0000879 0.0000274 -0.0000187 0.0000999 0.0000641 0.0000083 0.0000202 0.0000846 -0.0000483 0.0004265 0.0002384 -0.0000257 -0.0002983 -0.0000714 -0.0001197 0.0001120 -0.0005702 0.0000048 0.0002658 -0.0000998 0.0002305 0.0022970 -0.0019944 0.0002630 0.0003385 0.0000143 0.0004586 -0.0009162 0.0008950 -0.0000012 0.0009718 -0.0000089 0.0004404 -0.0047747 0.0044620 0.0005898 0.0001290 0.0005800 0.0000960 0.0053605 -0.0047758 -0.0004714 0.0002688 -0.0112881 0.0120443 0.0001343 0.0003732 -0.0003683 -0.0006410 0.0002368 -0.0001203 -0.0000416 -0.0007030 -0.0001514 -0.0002902 -0.0000057 0.0002245 0.0000108 -0.0000058 -0.0001346 0.0004396 -0.0002689 0.0002165 -0.0001369 0.0004265 0.0007913 -0.0002115 -0.0038889 0.0126393 -0.0007761 0.0080103 -0.0099377 0.0161909 -0.0068504 0.0059723 0.0001269 0.0004726 -0.0011290 0.0007576 0.0001294 0.0005370 0.0000421 0.0006420 0.0000711 0.0005058 -0.0000468 0.0004119 0.0001368 0.0001424 -0.0014164 0.0015681 0.0002860 0.0005035 0.0000594 0.0007730 0.0011132 0.0003956 0.0000191 0.0006678 -0.0008090 0.0004619 0.0001908 0.0007315 -0.0004001 0.0011765 -0.0000114 0.0004351 -0.0000938 0.0005503 -0.0023163 0.0033537 -0.0001209 0.0001396 0.0003350 -0.0002020 -0.0012042 0.0016868 -0.0002181 0.0008384 -0.0000062 0.0002541 0.0003512 -0.0003194 0.0001386 0.0001475 -0.0000706 0.0039692 0.0003760 0.0002235 0.0000188 0.0000402 -0.0002028 0.0003792 0.0011962 0.0038448 -0.0009412 0.0008249 -0.0001429 0.0001916 0.0010753 -0.0007932 -0.0140283 0.0205290 0.0003039 -0.0000752 -0.0002582 0.0005653 -0.0000270 0.0002072 -0.0000123 0.0001711 -0.0000084 0.0007021 -0.0000314 0.0004789 0.0001041 0.0005142
0.0000874 0.0000384 0.0001033 0.0001755 0.0001172 0.0000808 0.0000675 0.0001283 0.0000384 -0.0000777 -0.0000035 0.0002603 0.0000357 0.0002323 0.0000251 0.0002154 0.0000385 0.0001199 0.0001351 -0.0000022 0.0000404 0.0001805 0.0000442 0.0001347 0.0000064 -0.0000021 0.0000485 0.0002545 0.0000387 0.0003711 0.0000433 0.0002348 0.0000131 0.0004958 0.0000738 0.0003697 0.0000699 0.0002968 0.0003346 -0.0001574 0.0000196 0.0002929 -0.0002249 0.0000676 0.0000091 0.0001944 0.0000422 0.0001943 -0.0000106 -0.0003989 0.0000418 0.0003229 0.0000721 0.0002024 0.0000506 -0.0000310 -0.0000415 -0.0003524 0.0000688 0.0001413 0.0000205 -0.0000130 0.0000322 0.0001221 -0.0000414 0.0000703 -0.0000532 0.0001692 -0.0004333 0.0008320 -0.0000271 -0.0002816 -0.0000382 -0.0000899 -0.0007426 0.0003377 -0.0000060 0.0002832 -0.0000886 0.0002682 0.0016255 -0.0003812 0.0001489 0.0004031 -0.0000054 0.0004876 -0.0008450 0.0012232 0.0002495 0.0008878 -0.0001039 0.0005308 -0.0046617 0.0059897 0.0006244 0.0000971 -0.0005923 0.0012567 0.0037385 -0.0030165 -0.0001805 0.0000719 -0.0035265 0.0120465 -0.0001120 0.0006876 0.0000281 -0.0009114 0.0002271 -0.0001173 -0.0001991 -0.0005743 -0.0001581 -0.0002557 -0.0000968 0.0003548 0.0000182 0.0000381 -0.0000018 0.0002809 -0.0001109 0.0000985 -0.0003055 0.0005549 0.0002670 0.0002076 -0.0074377 0.0154721 0.0066458 -0.0082717 -0.0089908 0.0078093 -0.0068003 0.0031564 -0.0001658 0.0006486 -0.0004475 0.0016406 -0.0006950 0.0012148 0.0000055 0.0007770 0.0001767 0.0004308 0.0001447 0.0004934 0.0000243 0.0002962 -0.0027044 0.0032060 0.0001567 0.0005557 0.0024222 -0.0019152 -0.0014587 0.0019534 0.0000850 0.0006720 -0.0006216 0.0007234 -0.0002450 0.0007912 0.0008232 0.0001167 -0.0000231 0.0004518 0.0001755 0.0002114 -0.0009496 0.0018498 0.0002480 0.0000212 0.0000663 0.0000708 -0.0016323 0.0011717 0.0002433 0.0002797 -0.0000812 0.0003271 0.0004225 -0.0000405 -0.0002392 0.0003155 0.0009526 0.0024717 0.0004401 0.0002146 0.0000152 0.0000153 0.0003797 -0.0005933 -0.0100579 0.0065921 -0.0007963 0.0007950 -0.0000911 0.0001667 0.0007970 -0.0004310 -0.0152217 0.0136641 -0.0026289 0.0025540 -0.0007300 0.0010367 -0.0000544 0.0001405 -0.0000287 0.0002001 0.0000584 0.0004079 -0.0000324 0.0003288 0.0004534 -0.0001126
0.0001076 -0.0000055 0.0001079 0.0001485 0.0001337 0.0000199 0.0000705 0.0000497 0.0000374 -0.0002382 -0.0000003 0.0001318 0.0000404 0.0001444 0.0000495 0.0000577 0.0000468 0.0000634 0.0001320 -0.0000465 0.0000722 0.0000822 0.0000661 0.0000532 0.0000681 -0.0000843 0.0000565 0.0000984 0.0000478 0.0002583 0.0000518 0.0000935 0.0000289 0.0003516 0.0000904 0.0002635 0.0000677 0.0002254 0.0004875 -0.0002108 0.0000195 0.0002675 -0.0002578 -0.0000166 -0.0000241 0.0001904 0.0000497 0.0001522 0.0000387 -0.0004535 0.0000313 0.0002660 0.0000711 0.0001400 0.0000456 -0.0000781 -0.0000423 -0.0004284 0.0000506 0.0001595 0.0000037 -0.0000495 0.0001236 -0.0000382 -0.0000298 0.0000317 -0.0000062 0.0000479 -0.0004302 0.0007214 -0.0000202 -0.0003067 -0.0000859 -0.0000983 -0.0012636 0.0004652 0.0000213 0.0002381 -0.0001341 0.0003304 -0.0002507 0.0015757 0.0003486 0.0002579 -0.0000147 0.0004499 -0.0002928 0.0009953 0.0002541 0.0006497 -0.0001055 0.0004433 -0.0053565 0.0053818 0.0003977 -0.0001445 -0.0003575 0.0010563 -0.0049030 0.0020704 0.0003112 -0.0002804 -0.0041441 0.0159959 -0.0001660 0.0006858 0.0000042 -0.0009709 0.0002361 -0.0000847 -0.0002370 -0.0003047 -0.0001738 -0.0002746 0.0000438 0.0002761 0.0000131 0.0000996 -0.0000494 0.0002637 -0.0002142 0.0002605 -0.0007930 0.0011586 -0.0000002 0.0005564 -0.0111396 0.0161403 -0.0094360 0.0075338 -0.0075438 0.0097244 -0.0023567 -0.0012494 -0.0002765 0.0006839 -0.0014496 0.0026406 -0.0021378 0.0029910 -0.0000009 0.0008070 0.0001245 0.0004796 -0.0001478 0.0008338 -0.0001160 0.0004047 -0.0009373 -0.0003424 0.0004179 0.0006532 -0.0002652 0.0022319 -0.0004943 0.0008940 0.0001877 0.0005668 0.0004905 0.0000605 -0.0003899 0.0008843 0.0014077 -0.0002881 0.0000151 0.0003501 -0.0000506 0.0003499 0.0037564 -0.0027618 0.0000964 0.0001593 0.0000416 0.0006470 -0.0035968 0.0032002 0.0002808 0.0002188 -0.0000379 0.0002943 0.0000762 0.0003912 0.0000491 0.0000555 -0.0081642 0.0023041 0.0004122 0.0001033 0.0000331 -0.0000135 -0.0000046 0.0001254 -0.0059884 0.0115933 0.0009790 -0.0006334 -0.0000503 0.0001309 0.0007272 -0.0002621 0.0012850 -0.0131184 -0.0026556 0.0022189 -0.0003192 0.0002474 -0.0000535 0.0000994 -0.0000755 0.0002280 -0.0001531 0.0005937 -0.0000278 0.0002606 -0.0008371 0.0010924
0.0000978 -0.0000318 0.0001048 0.0001624 0.0001257 0.0000455 0.0000621 -0.0000158 0.0000372 -0.0002937 0.0000011 0.0000929 0.0000415 0.0001664 0.0000522 0.0000274 0.0000332 0.0000521 0.0001262 -0.0000288 0.0000731 0.0000845 0.0000546 0.0000761 0.0001611 -0.0001673 0.0000634 0.0000995 0.0000331 0.0002781 0.0000514 0.0000944 0.0000329 0.0003739 0.0000970 0.0002826 0.0000618 0.0002876 0.0005514 -0.0001462 0.0000042 0.0002745 -0.0002304 -0.0000771 -0.0000408 0.0003187 0.0000375 0.0001778 -0.0000209 -0.0002860 0.0000149 0.0002825 0.0000690 0.0001335 0.0000266 -0.0000090 -0.0000480 -0.0004785 0.0000319 0.0002307 -0.0000029 -0.0000330 0.0001931 -0.0000930 -0.0000736 0.0001061 0.0000913 -0.0000385 -0.0000941 0.0003266 -0.0000268 -0.0002730 -0.0001686 -0.0000347 -0.0004864 -0.0002836 -0.0000645 0.0004000 -0.0000820 0.0002836 -0.0021770 0.0033777 0.0002354 0.0004356 -0.0000221 0.0004232 -0.0000470 0.0008025 0.0000746 0.0004288 -0.0000884 0.0004371 -0.0014518 0.0031724 0.0006188 -0.0001780 0.0000574 0.0009842 0.0009443 -0.0036675 0.0001035 -0.0001195 -0.0064315 0.0158444 -0.0000142 0.0005039 -0.0001363 -0.0009698 0.0002420 -0.0000117 -0.0000563 -0.0003332 -0.0001862 -0.0002678 0.0001370 0.0002682 0.0000057 0.0001855 -0.0001383 0.0004272 -0.0004229 0.0005060 -0.0003270 0.0004663 -0.0001543 0.0007255 -0.0025182 0.0060521 -0.0023040 0.0038101 -0.0037704 0.0006063 0.0029066 -0.0053374 -0.0001852 0.0007920 -0.0024792 0.0017997 -0.0000295 0.0006904 -0.0000423 0.0008262 0.0000419 0.0005966 -0.0000500 0.0007698 -0.0000826 0.0003690 -0.0030831 0.0007118 0.0013681 -0.0005848 -0.0009155 0.0008150 -0.0004069 0.0009153 0.0000767 0.0005854 0.0010770 -0.0007452 -0.0001992 0.0007442 0.0002634 0.0003017 0.0000726 0.0001768 -0.0003538 0.0006022 0.0030622 -0.0015241 0.0001485 -0.0000200 0.0001215 0.0004898 -0.0005506 0.0004967 -0.0001007 0.0005767 -0.0000200 0.0002042 -0.0003900 0.0008529 0.0004804 -0.0004581 0.0041829 -0.0093593 -0.0004982 0.0004386 0.0000670 -0.0000815 -0.0004982 0.0006492 -0.0019673 0.0046982 0.0011392 -0.0010070 -0.0001050 0.0000362 0.0004281 -0.0005745 0.0049589 -0.0244755 -0.0006259 0.0005270 0.0004531 -0.0006407 -0.0000543 0.0000224 -0.0000702 0.0001306 -0.0002111 0.0006019 -0.0000288 0.0001504 -0.0009358 0.0015637
0.0000926 -0.0001046 0.0001047 0.0001385 0.0001209 0.0000233 0.0000570 -0.0000728 0.0000314 -0.0004191 -0.0000359 0.0000227 0.0000641 0.0001058 0.0000607 -0.0000829 0.0000375 0.0000573 0.0001306 -0.0000548 0.0000971 0.0000335 0.0000308 0.0000711 0.0001570 -0.0001443 0.0000713 0.0000004 0.0000268 0.0002116 0.0000338 -0.0000180 0.0000307 0.0003191 0.0001103 0.0002566 0.0000559 0.0002419 0.0005250 -0.0002117 0.0000078 0.0002601 -0.0001281 -0.0001408 0.0000107 0.0002868 0.0000237 0.0000389 -0.0001410 -0.0001540 0.0000499 0.0003041 0.0000939 0.0001253 0.0000481 0.0000260 -0.0000699 -0.0005177 0.0000427 0.0002369 -0.0000025 -0.0000187 0.0002178 -0.0000780 -0.0000679 0.0001011 0.0002309 -0.0001780 -0.0000104 0.0001649 -0.0000054 -0.0002536 -0.0000744 -0.0001042 -0.0001227 -0.0004201 -0.0002278 0.0006426 -0.0000838 0.0001970 -0.0025147 0.0037831 0.0000206 0.0006409 -0.0000362 0.0003997 0.0002967 0.0004223 -0.0002693 0.0007866 -0.0001393 0.0004657 -0.0068028 0.0106628 0.0001128 0.0001949 0.0003494 0.0009390 0.0029925 -0.0002997 -0.0003506 0.0003168 -0.0086042 0.0117058 0.0000069 0.0004258 -0.0002902 -0.0009178 0.0002269 0.0000038 0.0000646 -0.0004932 -0.0001729 -0.0002617 -0.0001208 0.0005278 -0.0000014 0.0002339 -0.0000720 0.0004339 -0.0003612 0.0005452 -0.0000889 0.0002972 -0.0002111 0.0009624 -0.0006506 0.0072638 -0.0054808 0.0100160 -0.0165282 0.0106594 0.0034195 -0.0055527 -0.0001121 0.0008286 -0.0007005 0.0010639 0.0001824 -0.0004566 -0.0000911 0.0008996 0.0000775 0.0005915 0.0001923 0.0005337 -0.0000838 0.0004715 -0.0029859 0.0019791 0.0008682 0.0003195 0.0021602 -0.0044218 0.0004489 -0.0003300 0.0000796 0.0005425 -0.0001675 0.0000723 -0.0004099 0.0008082 -0.0004952 0.0009682 0.0000309 0.0002268 -0.0003218 0.0004649 0.0012922 0.0015919 -0.0000388 -0.0000394 0.0003849 -0.0002762 0.0002520 -0.0007215 -0.0001566 0.0007237 0.0000001 0.0001664 -0.0001328 0.0005728 0.0002148 -0.0000930 0.0031961 0.0003587 -0.0003098 0.0001572 0.0000870 -0.0001691 -0.0001117 0.0002411 0.0020197 -0.0013008 -0.0000521 -0.0001763 -0.0001498 0.0000637 -0.0009271 0.0007998 0.0194721 -0.0446586 -0.0013016 0.0015467 -0.0001048 -0.0001103 -0.0000435 0.0000044 -0.0000018 0.0000782 -0.0000301 0.0004366 -0.0000259 0.0001445 -0.0001070 0.0011232
0.0000830 -0.0000474 0.0001018 0.0001521 0.0001137 0.0000711 0.0000590 -0.0000189 0.0000280 -0.0003940 -0.0000783 0.0001719 0.0000487 0.0001598 0.0000638 -0.0000767 0.0000213 0.0000549 0.0001211 -0.0000250 0.0000881 0.0000845 0.0000327 0.0000731 0.0001228 -0.0000700 0.0000744 0.0000300 0.0000172 0.0002540 0.0000376 0.0000454 0.0000215 0.0003742 0.0000939 0.0003225 0.0000431 0.0002934 -0.0004905 0.0006249 -0.0000156 0.0003192 -0.0001809 -0.0000516 -0.0000271 0.0004077 0.0000327 0.0000449 -0.0001557 -0.0002118 0.0000474 0.0003068 0.0000873 0.0001148 0.0000435 0.0000252 -0.0000817 -0.0004905 0.0000029 0.0003158 -0.0000161 -0.0000202 0.0001764 0.0000147 -0.0000313 0.0000398 0.0001614 -0.0001133 -0.0004720 0.0010289 0.0000034 -0.0002434 -0.0000988 -0.0001090 0.0003045 -0.0009500 -0.0002743 0.0007004 -0.0000860 0.0002584 -0.0024655 0.0036078 -0.0000386 0.0007430 -0.0000441 0.0004029 -0.0000495 0.0008418 -0.0006142 0.0011680 -0.0001184 0.0004324 -0.0111522 0.0133856 0.0007138 -0.0004021 0.0003617 0.0005660 0.0016560 0.0037578 0.0000901 0.0000184 0.0023563 -0.0074525 -0.0000246 0.0004351 -0.0004438 -0.0007874 0.0002323 -0.0000246 -0.0002862 -0.0001804 -0.0001704 -0.0002761 -0.0002717 0.0004290 0.0000063 0.0000764 -0.0001319 0.0004365 -0.0001736 0.0004645 -0.0006973 0.0012556 0.0002192 0.0000465 0.0027460 0.0057914 -0.0005343 0.0060030 0.0021433 -0.0024260 0.0019232 -0.0035110 -0.0000281 0.0005452 -0.0027402 0.0029091 -0.0021980 0.0010995 -0.0001217 0.0007875 -0.0000153 0.0004948 0.0004223 0.0002765 0.0001451 0.0001161 -0.0013146 0.0008817 -0.0013640 0.0029080 0.0016029 -0.0027306 -0.0002508 0.0004378 0.0001305 0.0004090 -0.0001126 0.0000521 -0.0003799 0.0007142 -0.0005178 0.0009325 -0.0000038 0.0001667 -0.0000580 0.0001199 0.0012508 -0.0001660 -0.0002677 0.0001746 0.0012011 -0.0010774 -0.0016124 0.0021928 0.0001401 0.0001545 -0.0000721 0.0002032 0.0005819 -0.0005389 -0.0000229 0.0002291 -0.0120634 0.0096620 0.0001760 -0.0002930 -0.0000441 -0.0001830 -0.0004002 0.0003534 -0.0029742 0.0079899 -0.0000086 -0.0003737 -0.0000945 -0.0000541 -0.0017095 0.0012213 -0.0004961 0.0082716 -0.0019093 0.0021111 -0.0000409 -0.0000153 -0.0000042 -0.0001255 0.0000104 0.0000414 0.0000837 0.0003924 -0.0000223 0.0001274 -0.0000155 0.0008137
0.0000777 -0.0000196 0.0001012 0.0001397 0.0000960 0.0001068 0.0000478 0.0000211 0.0000387 -0.0003525 -0.0000843 0.0002721 0.0000295 0.0001898 0.0000651 -0.0000694 -0.0000009 0.0000322 0.0001234 -0.0000154 0.0000510 0.0001408 0.0000401 0.0000893 0.0000642 -0.0000037 0.0000818 0.0000670 0.0000183 0.0002693 0.0000535 0.0001656 -0.0000079 0.0004527 0.0000755 0.0003737 0.0000244 0.0003862 -0.0013774 0.0014031 -0.0000165 0.0003230 -0.0001543 0.0000014 -0.0000633 0.0004852 0.0000417 0.0002187 -0.0001625 -0.0002928 -0.0000097 0.0002969 0.0000473 0.0001344 0.0000007 0.0000242 -0.0000665 -0.0004331 -0.0000411 0.0004061 -0.0000223 -0.0000376 0.0000867 0.0002092 -0.0001363 0.0001244 -0.0000391 0.0001626 -0.0007433 0.0013157 0.0000135 -0.0002311 -0.0001789 -0.0001161 0.0003059 -0.0001638 -0.0002626 0.0006992 -0.0000864 0.0002949 -0.0016966 0.0030204 -0.0000306 0.0005347 -0.0000492 0.0004373 0.0003011 0.0007580 -0.0003991 0.0012297 -0.0001537 0.0004569 -0.0024758 0.0053484 0.0009816 -0.0010038 -0.0002280 0.0008715 0.0063761 -0.0050736 -0.0000206 0.0000820 0.0180467 -0.0276522 -0.0000579 0.0004884 -0.0003908 -0.0007785 0.0002519 0.0000153 -0.0004893 0.0000611 -0.0001447 -0.0002440 -0.0002206 0.0004365 0.0000223 0.0001083 -0.0002576 0.0005946 -0.0002689 0.0004369 -0.0007768 0.0014238 0.0002037 -0.0001176 0.0020490 0.0090200 0.0084974 -0.0045939 0.0024717 0.0032259 0.0022180 -0.0032619 -0.0002926 0.0008653 -0.0025764 0.0020740 -0.0010549 0.0010313 -0.0001077 0.0007844 -0.0001473 0.0006406 0.0005337 0.0002857 0.0001614 0.0001584 -0.0016773 0.0009642 -0.0022042 0.0029180 -0.0016790 0.0016405 -0.0007958 0.0013742 0.0001493 0.0003600 0.0007181 -0.0004926 -0.0001766 0.0005413 -0.0011604 0.0012567 -0.0000545 0.0001906 -0.0001164 0.0002932 -0.0008551 -0.0010052 0.0000471 0.0001229 0.0004031 -0.0002684 -0.0001265 0.0013633 0.0003371 0.0001397 -0.0000699 0.0002057 0.0005330 -0.0004110 -0.0004009 0.0004871 0.0004537 -0.0039134 -0.0002951 0.0003023 -0.0001736 -0.0000457 -0.0001797 0.0004024 -0.0007809 0.0080235 -0.0001423 -0.0003982 -0.0000066 -0.0000841 -0.0003029 0.0000981 -0.0111338 0.0258666 -0.0005555 0.0011863 0.0004695 -0.0004390 -0.0000077 -0.0000974 -0.0000114 0.0001114 0.0000260 0.0004353 -0.0000137 0.0001265 -0.0004291 0.0007545
0.0000686 0.0000384 0.0000943 0.0001665 0.0000721 0.0001705 0.0000140 0.0001070 0.0000358 -0.0002726 -0.0001108 0.0003899 0.0000172 0.0002399 0.0000600 -0.0000239 -0.0000165 0.0000575 0.0001237 -0.0000284 0.0000370 0.0001655 0.0000250 0.0001354 0.0000476 -0.0000383 0.0000773 0.0000364 -0.0000029 0.0002982 0.0000519 0.0001727 -0.0000507 0.0004799 0.0000600 0.0003839 0.0000091 0.0003919 -0.0002198 0.0004851 -0.0000295 0.0003110 -0.0001717 0.0000005 -0.0000880 0.0004589 0.0000393 0.0001987 -0.0001817 -0.0002496 -0.0000111 0.0002085 0.0000514 0.0000770 -0.0000113 -0.0000254 -0.0000555 -0.0004487 -0.0000661 0.0003289 -0.0000118 -0.0000936 0.0000517 0.0002724 -0.0001259 0.0001053 -0.0000676 0.0001532 0.0000071 0.0004208 0.0000373 -0.0002824 0.0000259 -0.0004714 -0.0006312 0.0007330 -0.0002642 0.0005767 -0.0000778 0.0001018 -0.0023354 0.0036766 -0.0001724 0.0005253 -0.0000573 0.0003843 -0.0000131 0.0009769 -0.0000969 0.0008835 -0.0002045 0.0003957 -0.0012759 0.0022052 -0.0009990 0.0008401 -0.0002793 0.0009961 0.0025993 -0.0041924 -0.0004080 0.0003758 0.0113824 -0.0155723 0.0000934 0.0003040 -0.0003923 -0.0006866 0.0002608 -0.0000350 -0.0003892 -0.0001113 -0.0001178 -0.0002581 -0.0001692 0.0003970 0.0000210 0.0000875 -0.0003020 0.0006090 -0.0002563 0.0005330 -0.0006783 0.0012248 -0.0007558 0.0011789 0.0044247 -0.0013690 0.0009604 0.0000383 -0.0131350 0.0077967 -0.0019463 0.0027852 -0.0004463 0.0009022 -0.0003185 0.0021238 -0.0003931 0.0020826 -0.0001386 0.0007893 -0.0000583 0.0005050 0.0002253 0.0005388 -0.0000217 0.0003985 -0.0019239 0.0020388 -0.0005932 0.0008145 0.0008206 0.0005339 -0.0006023 0.0013223 0.0001393 0.0003230 0.0010185 -0.0007527 -0.0002142 0.0005707 -0.0009730 0.0008724 -0.0000798 0.0001808 -0.0001753 0.0003654 0.0028336 -0.0049321 -0.0002580 0.0003681 0.0000751 -0.0000685 -0.0019405 0.0019908 0.0003245 0.0002016 0.0000452 0.0000829 0.0000382 0.0002001 -0.0005961 0.0004740 -0.0026655 0.0033937 -0.0003100 0.0005648 -0.0001341 -0.0001441 -0.0002360 0.0006470 0.0024705 0.0053450 0.0005280 -0.0008556 -0.0000094 -0.0000904 0.0003428 0.0000429 -0.0100164 0.0175896 0.0008223 0.0002432 0.0003420 -0.0006479 -0.0000192 -0.0000518 -0.0000254 0.0001179 0.0001081 0.0001798 0.0000194 0.0000731 -0.0003626 0.0009582
0.0000395 0.0001195 0.0000845 0.0001916 0.0000540 0.0002300 -0.0000035 0.0001694 0.0000400 -0.0001871 -0.0001713 0.0005526 -0.0000138 0.0003441 0.0000478 0.0000480 -0.0000439 0.0001135 0.0001065 0.0000157 0.0000515 0.0002087 0.0000237 0.0001452 0.0000984 -0.0000648 0.0000706 0.0001219 -0.0000328 0.0003982 0.0000450 0.0002762 -0.0000920 0.0006251 0.0000357 0.0004631 -0.0000223 0.0004711 0.0004345 -0.0001684 -0.0000596 0.0003741 -0.0002610 0.0001009 -0.0000980 0.0005513 0.0000288 0.0002415 -0.0001147 -0.0002594 -0.0000087 0.0002126 0.0000461 0.0001052 0.0000370 -0.0000101 -0.0000431 -0.0003832 -0.0000986 0.0003876 -0.0000065 -0.0000522 0.0000721 0.0002599 -0.0000383 0.0000308 -0.0000190 0.0001900 -0.0000933 0.0007541 0.0000442 -0.0002221 -0.0000096 -0.0005104 -0.0002568 -0.0000771 -0.0003253 0.0006557 -0.0001666 0.0002281 -0.0028077 0.0046585 0.0000705 0.0004929 -0.0000414 0.0004016 -0.0005639 0.0016260 -0.0002321 0.0008217 -0.0002564 0.0005914 -0.0038271 0.0027525 -0.0012558 0.0015458 -0.0006910 0.0012081 -0.0077707 0.0045671 0.0002868 -0.0000614 -0.0069156 -0.0002624 -0.0000533 0.0005710 -0.0004460 -0.0005490 0.0002344 -0.0000146 -0.0002681 -0.0001829 -0.0001219 -0.0001809 -0.0003898 0.0008848 0.0000093 0.0001371 -0.0002854 0.0006305 -0.0003839 0.0007029 -0.0002210 0.0005630 -0.0008461 0.0012834 -0.0047345 0.0084399 -0.0066194 0.0057276 -0.0016277 -0.0039547 -0.0014201 0.0022820 -0.0002441 0.0007710 -0.0041013 0.0044314 -0.0015268 0.0032683 -0.0001326 0.0008871 -0.0001012 0.0005838 -0.0002560 0.0009776 -0.0001652 0.0005067 -0.0023131 0.0028806 0.0004251 0.0000695 -0.0002404 0.0002773 -0.0006729 0.0014610 0.0000887 0.0003730 0.0002532 0.0001278 -0.0002276 0.0006664 0.0005521 -0.0004229 -0.0000627 0.0001607 0.0001195 0.0000711 0.0008257 -0.0022135 -0.0004780 0.0006572 -0.0000313 0.0005513 -0.0046122 0.0039663 0.0002564 -0.0000543 -0.0000160 0.0001191 -0.0002856 0.0001172 -0.0004179 0.0001654 -0.0087333 0.0094466 -0.0000106 0.0001522 -0.0001050 -0.0000631 -0.0011478 0.0010825 -0.0069748 0.0106282 0.0007340 -0.0008807 -0.0000455 -0.0001365 0.0010121 -0.0006236 -0.0077481 0.0129028 -0.0007584 0.0014658 0.0001828 -0.0008018 -0.0000138 -0.0001742 0.0000298 -0.0000169 0.0000408 -0.0000032 0.0000524 -0.0001824 -0.0002794 0.0007482
0.0000318 0.0000910 0.0000811 0.0001356 0.0000492 0.0001727 -0.0000067 0.0001414 0.0000453 -0.0002530 -0.0002132 0.0005338 -0.0000451 0.0003039 0.0000476 -0.0000442 -0.0000549 0.0001582 0.0000923 -0.0000042 0.0000593 0.0001522 0.0000196 0.0000917 0.0000051 0.0000125 0.0000700 0.0000494 -0.0000442 0.0003281 0.0000337 0.0002233 -0.0001332 0.0005856 0.0000141 0.0004262 -0.0000676 0.0004198 0.0004006 0.0002008 -0.0000572 0.0003511 -0.0002598 0.0001331 -0.0002002 0.0005839 0.0000213 0.0002250 -0.0001145 -0.0003106 0.0000014 0.0001904 0.0000440 0.0000859 0.0000420 -0.0000324 -0.0000333 -0.0003716 -0.0001084 0.0003584 -0.0000009 -0.0000578 0.0001244 0.0001910 -0.0000788 -0.0000457 -0.0001322 0.0002252 -0.0001947 0.0008472 0.0000674 -0.0002455 -0.0000946 -0.0003538 0.0007371 -0.0003365 -0.0003155 0.0005962 -0.0000963 0.0000860 -0.0005937 0.0020383 0.0002200 0.0002432 0.0000061 0.0003701 -0.0000580 0.0010561 -0.0001222 0.0008255 -0.0002556 0.0005526 -0.0040624 0.0068329 -0.0009102 0.0013481 -0.0006071 0.0012303 -0.0063578 0.0004212 0.0002218 -0.0000681 -0.0035278 -0.0117391 -0.0001969 0.0007135 -0.0003556 -0.0005332 0.0002239 0.0000252 -0.0001443 -0.0003050 -0.0001105 -0.0001721 -0.0005198 0.0010710 -0.0000072 0.0001339 -0.0002119 0.0006290 -0.0004823 0.0006884 -0.0006271 0.0008153 -0.0005343 0.0010717 -0.0113380 0.0193011 -0.0131429 0.0039694 0.0003899 0.0042022 0.0003696 -0.0040450 -0.0003075 0.0008093 -0.0052606 0.0042908 -0.0012395 0.0020143 -0.0000400 0.0007914 -0.0002283 0.0006795 -0.0000771 0.0007634 -0.0001783 0.0004235 -0.0018151 0.0013822 -0.0001485 0.0009974 -0.0036931 0.0028629 -0.0007930 0.0008411 0.0001347 0.0002833 -0.0004375 0.0007965 0.0002005 0.0002437 -0.0000292 -0.0000364 -0.0000537 0.0001424 -0.0000039 0.0001957 0.0037011 -0.0034846 -0.0000792 -0.0002063 -0.0003571 0.0002841 -0.0037072 0.0027282 -0.0003636 0.0002426 -0.0000436 0.0001022 -0.0006542 0.0006558 -0.0003352 0.0003211 -0.0121517 0.0142004 0.0002119 -0.0002753 -0.0002016 0.0000853 -0.0007381 0.0009824 -0.0017869 0.0044940 -0.0004133 0.0003796 -0.0000205 -0.0001404 0.0006516 -0.0001638 -0.0040730 0.0122715 0.0001806 0.0007840 0.0008890 -0.0014649 -0.0000150 -0.0001725 0.0000278 -0.0000018 -0.0001407 0.0001977 0.0000414 -0.0001936 -0.0005664 0.0008528
0.0000184 0.0001133 0.0000771 0.0001302 0.0000518 0.0001744 -0.0000216 0.0001714 0.0000462 -0.0002010 -0.0002229 0.0005737 -0.0000662 0.0003297 0.0000336 -0.0000094 -0.0000927 0.0002061 0.0000866 0.0000044 0.0000476 0.0001766 0.0000109 0.0001187 -0.0001196 0.0000999 0.0000552 0.0000843 -0.0000636 0.0003461 0.0000210 0.0002784 -0.0001792 0.0006344 -0.0000142 0.0004726 -0.0001008 0.0004586 0.0003390 0.0005446 -0.0000608 0.0003435 -0.0002860 0.0001959 -0.0003300 0.0006642 0.0000161 0.0002406 -0.0001862 -0.0001508 -0.0000049 0.0002082 0.0000473 0.0000896 -0.0000054 0.0000359 -0.0000380 -0.0003389 -0.0001344 0.0003530 -0.0000032 -0.0000564 0.0001421 0.0001601 -0.0000239 -0.0001106 -0.0002696 0.0002043 -0.0002395 0.0011868 0.0001472 -0.0003002 -0.0000921 -0.0003888 0.0006332 -0.0002102 -0.0001473 0.0003966 -0.0000926 0.0000381 0.0001152 0.0007411 -0.0000974 0.0003559 0.0000172 0.0003047 0.0004480 -0.0000734 0.0000438 0.0005222 -0.0001583 0.0003307 -0.0017989 0.0063088 -0.0006624 0.0006639 -0.0005104 0.0011716 -0.0067957 0.0032406 -0.0005859 0.0007118 0.0016237 -0.0000306 -0.0001300 0.0004858 -0.0002328 -0.0005660 0.0002234 -0.0000150 -0.0000180 -0.0005379 -0.0000880 -0.0002138 -0.0003140 0.0005326 -0.0000194 -0.0000592 -0.0002767 0.0006201 -0.0003295 0.0005328 -0.0008179 0.0009973 -0.0006126 0.0008483 -0.0023252 0.0064605 -0.0067675 0.0043249 -0.0114664 0.0225601 0.0008454 -0.0013584 -0.0002309 0.0004004 -0.0018128 0.0016379 0.0011512 -0.0014960 -0.0000729 0.0004699 -0.0001661 0.0003971 0.0001507 0.0002161 -0.0000747 0.0001193 -0.0025525 0.0016149 0.0008004 0.0000722 0.0008501 -0.0013491 -0.0003094 -0.0005724 0.0000794 0.0002066 -0.0003271 0.0004370 0.0001430 -0.0001349 -0.0004361 0.0005386 -0.0000226 -0.0000551 0.0000749 -0.0001861 0.0044688 -0.0022698 0.0001868 -0.0009102 0.0007697 -0.0017040 -0.0020151 -0.0000983 -0.0012432 0.0007289 -0.0000549 -0.0000419 -0.0007242 0.0008655 -0.0005969 0.0004026 -0.0068118 0.0060291 0.0000516 -0.0005968 -0.0002531 -0.0000320 0.0002704 -0.0000320 0.0045138 -0.0107125 0.0002489 0.0000003 -0.0000350 -0.0002816 0.0000365 -0.0002419 0.0033007 0.0021807 0.0014479 -0.0010714 0.0001705 -0.0007599 0.0000026 -0.0002198 -0.0000282 -0.0000973 -0.0001734 0.0001108 0.0000740 -0.0003082 -0.0002727 0.0005169
0.0000182 0.0000788 0.0000859 0.0000750 0.0000806 0.0001056 -0.0000329 0.0001660 0.0000493 -0.0002281 -0.0002144 0.0005043 -0.0000562 0.0002731 0.0000326 -0.0000562 -0.0001172 0.0001983 0.0000944 -0.0000081 0.0000428 0.0001753 -0.0000022 0.0001144 -0.0000933 0.0001186 0.0000464 0.0000125 -0.0000822 0.0002975 0.0000184 0.0002450 -0.0002010 0.0005768 -0.0000169 0.0004360 -0.0001304 0.0004295 -0.0004566 0.0009046 -0.0000590 0.0002949 -0.0002396 0.0001426 -0.0002432 0.0005063 0.0000093 0.0001665 -0.0001579 -0.0001095 -0.0000057 0.0002764 0.0000809 0.0001003 -0.0000458 0.0001034 -0.0000376 -0.0003161 -0.0001088 0.0003400 -0.0000042 -0.0000734 0.0000828 0.0001715 0.0000320 -0.0001827 -0.0002960 0.0001685 -0.0006906 0.0013982 0.0001738 -0.0002309 -0.0000172 -0.0004531 0.0012408 -0.0009256 -0.0001321 0.0003664 -0.0001052 0.0000674 0.0006689 0.0004430 -0.0001231 0.0003537 0.0000232 0.0002862 0.0010949 -0.0009485 -0.0003461 0.0007719 -0.0001014 0.0002053 0.0038391 -0.0007717 -0.0002173 0.0004567 -0.0001315 0.0008063 -0.0093918 0.0069617 -0.0006525 0.0008981 0.0003739 0.0102952 -0.0002205 0.0005018 -0.0002486 -0.0005038 0.0002313 0.0000086 0.0000861 -0.0005100 -0.0000618 -0.0001771 -0.0000336 0.0003007 0.0000022 -0.0000718 -0.0004312 0.0006537 -0.0002699 0.0004469 -0.0009943 0.0010809 -0.0003504 0.0002544 -0.0044729 0.0080513 -0.0029099 0.0091781 -0.0153889 0.0213304 -0.0018598 -0.0001854 0.0001613 0.0001105 0.0002355 -0.0013085 0.0003027 -0.0014474 -0.0000815 0.0004261 -0.0000311 0.0001907 -0.0000329 0.0000782 -0.0000962 0.0000806 -0.0029050 0.0022220 0.0020387 -0.0013821 0.0034458 -0.0035584 -0.0002618 -0.0006655 -0.0000558 0.0003361 -0.0006169 0.0003960 0.0002041 -0.0000455 0.0009901 -0.0006911 0.0000156 -0.0001535 -0.0000449 -0.0000994 -0.0014032 0.0019518 -0.0001784 -0.0001795 0.0000041 -0.0006640 -0.0009663 -0.0020095 -0.0010197 0.0006158 -0.0001283 -0.0000216 0.0002682 -0.0002765 -0.0003507 0.0000606 0.0082260 -0.0163728 0.0000822 -0.0006488 -0.0001714 -0.0000159 0.0002075 -0.0006116 0.0091615 -0.0087238 0.0005728 -0.0007061 -0.0000447 -0.0003088 0.0010953 -0.0013476 0.0122378 -0.0116972 -0.0011552 0.0006152 -0.0003992 -0.0001676 -0.0000272 -0.0002028 -0.0000046 -0.0001796 0.0000102 -0.0002134 0.0000953 -0.0004418 -0.0003543 0.0005279
0.0000317 0.0000417 0.0000979 0.0000203 0.0000931 0.0000398 -0.0000322 0.0001184 0.0000465 -0.0003004 -0.0001588 0.0003658 -0.0000402 0.0001745 0.0000395 -0.0001536 -0.0001155 0.0001720 0.0001022 -0.0000520 0.0000667 0.0001002 -0.0000318 0.0000973 -0.0000363 0.0000888 0.0000477 -0.0001724 -0.0000840 0.0001703 0.0000189 0.0000716 -0.0001781 0.0003616 -0.0000143 0.0003011 -0.0001474 0.0002623 -0.0010836 0.0010565 -0.0000470 0.0001939 -0.0001887 0.0000609 -0.0001135 0.0002523 0.0000135 0.0000464 -0.0002553 -0.0001482 0.0000243 0.0001423 0.0000773 -0.0000248 -0.0000162 0.0000158 -0.0000417 -0.0003487 -0.0000598 0.0002140 0.0000031 -0.0001466 0.0000238 0.0001039 -0.0000290 -0.0002397 -0.0001713 -0.0000661 -0.0007168 0.0006156 0.0001844 -0.0001941 0.0000700 -0.0004943 0.0005681 -0.0005734 -0.0001740 0.0003038 0.0000540 -0.0001441 0.0014060 -0.0005851 0.0000421 0.0001548 0.0000461 0.0002149 0.0006637 -0.0005493 -0.0002587 0.0006171 0.0000372 -0.0000305 0.0018044 0.0002088 0.0003690 -0.0001732 -0.0001117 0.0006094 -0.0050199 0.0001718 -0.0001670 0.0002542 0.0024131 0.0075204 -0.0001611 0.0002954 -0.0003658 -0.0002432 0.0002394 -0.0000001 0.0000398 -0.0003195 -0.0000517 -0.0001507 0.0000523 0.0002192 0.0000338 -0.0001307 -0.0005589 0.0006145 -0.0002579 0.0004135 -0.0006870 0.0010108 -0.0007491 0.0008285 0.0032035 -0.0031069 0.0032246 -0.0042677 -0.0137323 0.0197939 -0.0026521 -0.0020694 0.0001592 0.0001141 0.0010355 -0.0011802 -0.0026938 0.0016497 -0.0000312 0.0003394 -0.0000872 0.0000591 0.0001875 -0.0004437 -0.0000486 -0.0000711 -0.0012909 0.0002394 0.0008695 -0.0008093 0.0007405 0.0007636 -0.0011617 0.0008804 -0.0001177 0.0003379 0.0004159 -0.0005042 0.0002759 0.0000118 0.0013050 -0.0013757 0.0000352 -0.0002753 -0.0000380 -0.0002599 0.0026089 -0.0018236 -0.0004501 -0.0001240 -0.0001604 -0.0002260 0.0002966 -0.0022553 -0.0005890 0.0002398 -0.0001130 -0.0001600 0.0006297 -0.0007698 0.0000097 -0.0003015 0.0028311 -0.0138078 0.0000896 -0.0006467 -0.0000395 -0.0001297 0.0000525 -0.0005623 0.0091936 -0.0049154 -0.0007294 0.0000582 -0.0000483 -0.0002994 0.0019255 -0.0016267 0.0067554 -0.0062729 -0.0012766 0.0011871 0.0003885 -0.0010455 -0.0000527 -0.0001535 -0.0000372 -0.0001202 0.0000442 -0.0001460 0.0000651 -0.0003677 -0.0000713 0.0003108
0.0000417 0.0000335 0.0001207 -0.0000324 0.0001080 0.0000206 -0.0000168 0.0000885 0.0000550 -0.0002829 -0.0000773 0.0002720 -0.0000119 0.0001392 0.0000478 -0.0001640 -0.0001323 0.0001356 0.0000859 -0.0000104 0.0000879 0.0000947 0.0000147 0.0000775 -0.0000316 0.0000255 0.0000487 -0.0001735 -0.0000895 0.0001579 0.0000151 0.0000814 -0.0001423 0.0003429 -0.0000005 0.0002619 -0.0001446 0.0002399 -0.0002598 0.0002454 -0.0000498 0.0001958 -0.0001532 0.0000267 -0.0001212 0.0003199 0.0000199 0.0001074 -0.0000589 -0.0002360 -0.0000184 0.0000965 0.0000265 -0.0000346 0.0000327 0.0000083 -0.0000485 -0.0002732 -0.0000318 0.0002060 0.0000122 -0.0001124 -0.0000195 0.0001767 -0.0000328 -0.0002509 0.0000082 -0.0002166 -0.0004489 0.0003417 0.0002666 -0.0001765 0.0000611 -0.0004073 -0.0002654 -0.0000494 -0.0000010 0.0002043 0.0000140 0.0000066 0.0011898 -0.0009450 -0.0000499 0.0001179 0.0000781 0.0001900 -0.0002825 0.0001228 -0.0000623 0.0004237 0.0000361 0.0000069 -0.0006698 0.0013229 0.0005691 -0.0003328 -0.0003714 0.0004245 -0.0021836 -0.0004874 0.0001322 -0.0000967 0.0020192 0.0028394 -0.0000151 0.0001611 -0.0001353 -0.0004834 0.0002485 0.0000009 -0.0000258 -0.0001116 -0.0000787 -0.0000962 -0.0001066 0.0002282 0.0000361 -0.0001771 -0.0004586 0.0004540 -0.0002761 0.0002911 0.0000365 0.0001717 -0.0007238 0.0005280 0.0034190 -0.0053542 0.0045978 -0.0209094 -0.0121228 0.0203233 0.0027085 -0.0069972 0.0000709 0.0000809 0.0011858 -0.0011489 -0.0008546 -0.0001878 -0.0000288 0.0001425 -0.0000630 -0.0000501 0.0000480 -0.0004566 -0.0001861 0.0000549 -0.0016028 0.0018684 0.0001199 -0.0007380 -0.0018463 0.0036027 -0.0008578 0.0008911 -0.0000310 0.0001674 0.0002752 -0.0001398 -0.0001282 0.0000736 0.0008406 -0.0010235 0.0000045 -0.0004010 0.0000701 -0.0006480 0.0021324 -0.0043488 -0.0002910 -0.0006623 -0.0000668 -0.0006065 0.0011212 -0.0016922 -0.0006670 -0.0000943 0.0000181 -0.0004249 -0.0000794 -0.0001549 -0.0001530 -0.0004029 -0.0061763 -0.0022562 -0.0002600 -0.0003365 0.0000490 -0.0003646 -0.0001519 -0.0002778 -0.0028663 0.0016634 -0.0014609 0.0003131 -0.0000582 -0.0004151 -0.0001083 0.0003435 0.0037564 -0.0127323 -0.0012971 0.0009148 0.0000255 -0.0008724 -0.0000115 -0.0002393 -0.0000764 -0.0001671 -0.0000657 -0.0000850 0.0000688 -0.0004311 -0.0004085 0.0000173
0.0000807 -0.0000772 0.0001688 -0.0001517 0.0001695 -0.0001088 0.0000004 0.0000217 0.0000650 -0.0003334 -0.0000259 0.0000961 0.0000573 -0.0000203 0.0000743 -0.0002666 -0.0000932 0.0000286 0.0000873 -0.0000269 0.0001033 0.0000351 0.0000354 0.0000475 0.0000189 -0.0000471 0.0000548 -0.0002754 -0.0000970 0.0000543 0.0000276 0.0000138 -0.0001104 0.0002107 0.0000330 0.0001316 -0.0001348 0.0001699 -0.0001032 0.0003508 -0.0000421 0.0001398 -0.0000992 -0.0000468 -0.0001036 0.0002954 0.0000115 0.0001264 -0.0000224 -0.0001943 -0.0000511 0.0001007 0.0000233 -0.0000360 0.0000353 0.0000032 -0.0000363 -0.0002263 0.0000042 0.0001610 0.0000159 -0.0000717 0.0000939 0.0000372 -0.0000310 -0.0003339 0.0000282 -0.0003854 0.0003029 -0.0004288 0.0003223 -0.0001572 0.0001773 -0.0004826 -0.0000418 0.0000766 0.0000306 0.0001475 -0.0000346 0.0000306 0.0002158 -0.0008881 -0.0001136 0.0000186 0.0000961 0.0002023 -0.0002911 -0.0000903 0.0001322 0.0001829 0.0000415 -0.0000366 0.0013035 -0.0012176 0.0008286 -0.0003537 -0.0006605 0.0004716 -0.0008728 -0.0031427 -0.0000685 0.0003241 0.0108912 -0.0087858 0.0000394 0.0002059 -0.0000008 -0.0006837 0.0002582 0.0000335 0.0000148 -0.0001320 -0.0000899 -0.0000500 -0.0000292 0.0004238 0.0000325 -0.0000974 -0.0002349 0.0002348 -0.0002735 0.0000764 0.0002776 -0.0001037 -0.0008334 0.0007347 -0.0074653 0.0080763 -0.0147821 0.0008733 -0.0064688 0.0091142 -0.0005896 -0.0027676 0.0001081 -0.0000077 0.0007527 -0.0003998 0.0027115 -0.0027332 -0.0000183 0.0001162 0.0000157 -0.0001088 -0.0002395 -0.0001268 -0.0001807 0.0001443 -0.0031064 0.0031418 -0.0001623 -0.0011016 0.0010351 -0.0002475 -0.0014100 0.0008825 0.0000911 0.0000646 -0.0005523 0.0003048 -0.0001407 0.0001264 0.0003410 -0.0005008 -0.0000138 -0.0002980 0.0001873 -0.0007671 0.0035051 -0.0082441 0.0000792 -0.0006680 -0.0009921 0.0009487 0.0010342 -0.0021260 -0.0006645 -0.0001464 -0.0000108 -0.0003591 0.0003456 -0.0005438 -0.0001336 -0.0003940 0.0017562 -0.0006709 -0.0002629 0.0000996 0.0000063 -0.0002555 0.0002434 -0.0003251 -0.0016938 -0.0017117 -0.0004307 -0.0004284 0.0000150 -0.0004009 -0.0007886 0.0004467 0.0034461 -0.0117682 -0.0003064 0.0000929 -0.0000320 -0.0003133 0.0000127 -0.0001907 -0.0000483 -0.0001557 -0.0001299 -0.0000334 0.0000836 -0.0003873 -0.0005870 0.0000399
0.0001038 -0.0000869 0.0001910 -0.0001951 0.0001993 -0.0001496 -0.0000032 -0.0000083 0.0000574 -0.0003390 0.0000366 -0.0000065 0.0001178 -0.0001245 0.0001049 -0.0003223 -0.0000293 -0.0001034 0.0001151 -0.0000889 0.0001103 0.0000046 0.0000357 0.0000296 0.0001223 -0.0001979 0.0000667 -0.0003602 -0.0000751 -0.0000336 0.0000489 -0.0000507 -0.0000555 0.0000235 0.0000643 0.0000080 -0.0001079 0.0000786 -0.0006225 0.0008308 -0.0000321 0.0000558 -0.0000860 -0.0000513 -0.0000271 0.0001360 0.0000180 0.0000760 -0.0001484 -0.0000789 -0.0000346 -0.0000069 0.0000302 -0.0001501 0.0000633 -0.0000646 -0.0000248 -0.0002258 0.0000357 0.0000301 0.0000201 -0.0000752 0.0002995 -0.0002930 0.0000199 -0.0004830 -0.0000470 -0.0004825 0.0002387 -0.0004750 0.0003411 -0.0002005 0.0001661 -0.0005438 -0.0006513 0.0004772 -0.0000855 0.0000640 0.0000077 -0.0001695 0.0017782 -0.0022576 -0.0000006 -0.0002126 0.0000956 0.0002156 0.0006188 -0.0007166 0.0003617 -0.0001665 0.0001257 -0.0002621 0.0008805 0.0004299 0.0007259 -0.0006533 -0.0007026 0.0003536 0.0009386 -0.0050425 -0.0000470 0.0003800 0.0082142 -0.0021101 0.0000416 0.0000750 -0.0002229 -0.0003286 0.0002465 0.0000094 0.0000140 -0.0001851 -0.0000815 -0.0000635 -0.0000024 0.0003505 0.0000228 -0.0001621 -0.0001674 0.0001233 -0.0000683 -0.0002085 0.0002361 0.0000157 -0.0002655 0.0005392 -0.0193186 0.0220062 -0.0160431 0.0114204 0.0043258 -0.0068465 -0.0039815 0.0042753 0.0000733 -0.0001023 -0.0003211 0.0005530 0.0031691 -0.0027175 0.0000468 -0.0000704 -0.0000659 -0.0001707 0.0000298 -0.0004609 -0.0000501 -0.0003053 -0.0016161 0.0007287 0.0002465 -0.0012491 0.0043790 -0.0042698 -0.0003269 -0.0003137 -0.0000268 0.0001423 -0.0006631 0.0002014 -0.0002087 0.0002966 -0.0000798 -0.0008071 0.0000886 -0.0003775 0.0001290 -0.0006842 0.0048359 -0.0052663 0.0002480 -0.0009553 0.0001156 -0.0002443 0.0004664 -0.0014865 -0.0000968 -0.0002758 -0.0000691 -0.0003684 0.0004215 -0.0007454 0.0000492 -0.0004941 0.0028405 -0.0033229 0.0002092 -0.0005412 -0.0000341 -0.0001977 0.0005135 -0.0007610 0.0092018 -0.0215584 -0.0005582 -0.0000202 0.0000034 -0.0003248 0.0006689 -0.0011674 -0.0030528 0.0021733 0.0024885 -0.0018261 0.0004726 -0.0007319 0.0000058 -0.0001679 0.0000407 -0.0001966 -0.0002535 0.0001238 0.0000686 -0.0002663 0.0001454 -0.0002465
0.0001304 -0.0001022 0.0001948 -0.0002083 0.0002019 -0.0001349 0.0000045 -0.0000459 0.0000543 -0.0003101 0.0001357 -0.0000771 0.0001712 -0.0001638 0.0001242 -0.0003290 0.0000121 -0.0001893 0.0001272 -0.0000801 0.0001186 -0.0000064 0.0000453 0.0000242 0.0000848 -0.0002199 0.0000741 -0.0003119 -0.0000412 -0.0000681 0.0000682 0.0000093 0.0000093 -0.0000321 0.0000976 -0.0000282 -0.0000730 0.0000827 -0.0004756 0.0008266 -0.0000155 0.0000350 -0.0000880 -0.0000004 -0.0000688 0.0001820 0.0000282 0.0000988 -0.0000007 -0.0001019 -0.0000138 -0.0000121 0.0000283 -0.0001554 0.0000797 -0.0000254 -0.0000324 -0.0001309 0.0000487 0.0000682 0.0000192 -0.0000093 0.0003231 -0.0002760 0.0000099 -0.0004242 -0.0000803 -0.0002770 -0.0002870 0.0002205 0.0003272 -0.0001271 0.0001395 -0.0004829 -0.0008822 0.0005242 -0.0001507 0.0001428 -0.0000534 0.0000242 0.0028718 -0.0028012 0.0001152 -0.0003557 0.0001051 0.0003165 0.0013809 -0.0012462 0.0003154 -0.0000947 0.0001608 -0.0001593 -0.0009883 0.0014519 -0.0002300 -0.0004638 -0.0001217 -0.0001125 0.0023016 -0.0050579 0.0003028 -0.0000146 -0.0029850 0.0075030 -0.0000341 0.0001755 -0.0001610 -0.0002676 0.0002301 0.0000516 -0.0002221 0.0000505 -0.0000816 -0.0000401 -0.0000854 0.0001302 0.0000139 -0.0001943 -0.0001284 0.0000137 0.0000435 -0.0004851 0.0000217 0.0000537 0.0002441 -0.0000178 -0.0134422 0.0119956 -0.0140851 0.0179367 -0.0026232 0.0110869 -0.0043520 0.0031984 0.0001403 -0.0001318 -0.0025774 0.0019294 -0.0004627 0.0001542 0.0000500 -0.0001638 -0.0000460 -0.0002397 -0.0002339 -0.0003420 0.0001656 -0.0006718 0.0010725 -0.0018521 -0.0006067 0.0003620 0.0036212 -0.0016358 -0.0011905 0.0007938 -0.0000703 0.0001787 -0.0004959 0.0004179 -0.0001078 0.0001362 -0.0000973 -0.0009681 0.0001502 -0.0004995 -0.0000191 -0.0005883 0.0018143 -0.0005008 -0.0001558 -0.0008603 0.0008770 -0.0019836 0.0017903 -0.0034974 0.0005843 -0.0009538 -0.0000862 -0.0004384 0.0002474 -0.0007178 -0.0000222 -0.0003317 -0.0119820 0.0105628 0.0004929 -0.0009992 -0.0000149 -0.0001475 -0.0000843 -0.0005774 0.0068909 -0.0137088 -0.0000556 -0.0004645 -0.0000573 -0.0002551 0.0001617 -0.0000903 -0.0062478 0.0172266 0.0016595 -0.0010389 0.0004362 -0.0007360 -0.0000086 -0.0002256 0.0000452 -0.0002202 -0.0001818 0.0000348 0.0000671 -0.0003266 0.0005142 -0.0005087
0.0001666 -0.0002233 0.0002150 -0.0002929 0.0002283 -0.0002297 0.0000148 -0.0001315 0.0000690 -0.0003706 0.0001944 -0.0002511 0.0002274 -0.0003062 0.0001450 -0.0004383 0.0000702 -0.0002758 0.0001332 -0.0000958 0.0001818 -0.0001338 0.0000538 -0.0000101 0.0000308 -0.0002001 0.0000841 -0.0003918 -0.0000125 -0.0002168 0.0001011 -0.0000578 0.0000741 -0.0002218 0.0001552 -0.0001672 -0.0000352 0.0000039 0.0004211 0.0000910 -0.0000055 -0.0000093 -0.0001099 -0.0000087 -0.0001200 0.0001074 0.0000398 0.0000974 -0.0000203 -0.0000930 0.0000167 -0.0000950 0.0000256 -0.0001924 0.0000602 -0.0000141 -0.0000547 -0.0001035 0.0000547 0.0000655 -0.0000041 -0.0000057 0.0001786 -0.0001328 0.0000059 -0.0004225 0.0000647 -0.0003819 -0.0001357 -0.0001794 0.0003088 -0.0000854 0.0001582 -0.0004570 -0.0001990 -0.0000533 -0.0001129 0.0001142 0.0000548 -0.0000363 -0.0017658 0.0010587 -0.0001503 -0.0001385 0.0000969 0.0003169 0.0007340 -0.0008340 0.0002489 -0.0003581 0.0002427 -0.0002432 -0.0024890 -0.0008507 -0.0009101 -0.0000974 -0.0000150 -0.0001931 0.0048134 -0.0083961 0.0001038 0.0001171 -0.0040525 0.0063184 -0.0000188 0.0001596 0.0000613 -0.0005662 0.0002399 0.0000765 -0.0001616 0.0000173 -0.0000743 -0.0000200 0.0001636 -0.0000526 0.0000315 -0.0001447 -0.0000925 -0.0000149 0.0000590 -0.0006133 -0.0003243 0.0003002 -0.0007866 0.0010553 0.0001202 -0.0194208 0.0016007 -0.0025485 -0.0106144 0.0250249 0.0007752 -0.0000636 0.0002455 -0.0001533 -0.0009176 0.0012814 -0.0025524 0.0019655 0.0000597 -0.0000995 -0.0000232 -0.0002132 -0.0004476 -0.0006200 0.0000858 -0.0005678 0.0042504 -0.0038474 -0.0020547 0.0017913 0.0055255 -0.0022587 -0.0029193 0.0024896 0.0000468 0.0001335 0.0009916 -0.0008362 0.0000102 0.0001143 0.0000016 -0.0007070 0.0000893 -0.0003533 0.0001715 -0.0007628 0.0009848 -0.0003395 -0.0000232 -0.0009514 -0.0002180 -0.0006558 0.0011845 -0.0027916 0.0003834 -0.0011451 -0.0000639 -0.0003704 0.0001530 -0.0010922 -0.0002594 -0.0001708 -0.0113368 0.0156636 0.0003356 -0.0006540 -0.0000829 0.0000741 -0.0002376 -0.0001496 -0.0006724 0.0040582 0.0009117 -0.0011168 -0.0000967 -0.0000589 0.0003058 0.0001301 0.0060559 0.0080117 0.0016544 -0.0008786 -0.0000565 0.0001558 -0.0000210 -0.0000567 0.0000221 -0.0000765 -0.0000250 -0.0000948 0.0000753 -0.0001720 -0.0005216 0.0003335
0.0001767 -0.0002204 0.0002314 -0.0003135 0.0002354 -0.0002217 0.0000067 -0.0001473 0.0000762 -0.0003287 0.0002072 -0.0002834 0.0002673 -0.0003346 0.0001610 -0.0004407 0.0000871 -0.0003326 0.0001483 -0.0001210 0.0001976 -0.0001556 0.0000827 -0.0000403 0.0001495 -0.0003616 0.0000954 -0.0004477 0.0000074 -0.0002846 0.0001298 -0.0000919 0.0001208 -0.0003509 0.0002028 -0.0002675 0.0000039 -0.0000454 -0.0004511 0.0004236 -0.0000040 -0.0000565 -0.0000791 -0.0001590 -0.0000240 0.0000036 0.0000526 -0.0000689 0.0000184 -0.0001479 0.0000329 -0.0001291 0.0000758 -0.0002797 0.0000709 -0.0000824 -0.0000651 -0.0001493 0.0000651 -0.0000279 -0.0000222 -0.0000517 0.0001855 -0.0001542 0.0000578 -0.0004852 0.0000025 -0.0004878 -0.0002335 0.0000938 0.0003285 -0.0001808 0.0000551 -0.0004091 0.0001900 -0.0001747 -0.0000623 -0.0000272 0.0002107 -0.0003236 -0.0025733 0.0015329 -0.0001895 -0.0001562 0.0001133 0.0001791 -0.0004142 0.0005788 0.0002903 -0.0008399 0.0001487 -0.0004611 -0.0050011 0.0018896 0.0005166 -0.0009895 0.0002825 -0.0004354 0.0011968 -0.0015193 -0.0003116 0.0003569 0.0037461 -0.0062575 0.0001107 -0.0001009 0.0000294 -0.0006176 0.0002752 0.0000307 0.0001899 -0.0002084 -0.0000544 -0.0000589 0.0003282 -0.0000957 0.0000542 -0.0002215 -0.0001083 -0.0000095 0.0000383 -0.0005027 -0.0003364 0.0003535 -0.0011445 0.0011169 -0.0346170 0.0261612 0.0056672 -0.0042896 -0.0045751 0.0100274 0.0021910 0.0022134 0.0001309 -0.0001346 0.0012073 -0.0022354 -0.0016561 0.0009639 0.0001807 -0.0002978 0.0000441 -0.0003313 -0.0000254 -0.0008380 -0.0000741 -0.0004982 0.0021321 -0.0021422 -0.0015001 0.0005721 0.0060066 -0.0040835 -0.0010707 0.0005726 -0.0000498 0.0002254 0.0005895 -0.0004488 0.0001147 0.0001578 -0.0002043 -0.0004631 0.0001717 -0.0004684 0.0003170 -0.0007988 0.0035669 -0.0027650 0.0002452 -0.0013455 -0.0002921 -0.0002374 0.0001299 -0.0012682 -0.0000351 -0.0006740 0.0000188 -0.0003346 -0.0004324 -0.0007841 -0.0000190 -0.0006052 -0.0036269 -0.0001014 -0.0001497 -0.0001301 -0.0001696 0.0001471 0.0007358 -0.0006917 -0.0028081 0.0033954 0.0005632 -0.0006341 -0.0000631 0.0000284 0.0001894 0.0001172 0.0215771 -0.0283485 0.0016452 -0.0009048 -0.0000119 0.0000786 -0.0000324 0.0000274 0.0000622 -0.0000150 0.0001030 -0.0002175 0.0000902 -0.0000510 -0.0010189 0.0004153
0.0001951 -0.0002449 0.0002376 -0.0003199 0.0002420 -0.0002134 -0.0000010 -0.0001804 0.0000714 -0.0003433 0.0002221 -0.0002740 0.0002971 -0.0003340 0.0001653 -0.0004459 0.0001133 -0.0003809 0.0001857 -0.0001398 0.0002078 -0.0001619 0.0000649 -0.0000231 0.0002518 -0.0004205 0.0000955 -0.0004177 0.0000159 -0.0003052 0.0001374 -0.0000665 0.0001477 -0.0003544 0.0002266 -0.0002888 0.0000287 -0.0000569 -0.0007372 0.0007768 -0.0000062 -0.0000617 -0.0001940 -0.0000247 0.0000735 -0.0000303 0.0000474 -0.0000774 -0.0000009 -0.0001040 0.0000037 -0.0001055 0.0000669 -0.0002966 0.0000929 -0.0000627 -0.0000656 -0.0000967 0.0000742 0.0000283 -0.0000120 -0.0000198 0.0003693 -0.0002092 0.0000709 -0.0004269 -0.0000149 -0.0004502 -0.0005317 0.0004480 0.0003313 -0.0001686 0.0001321 -0.0004773 0.0002048 -0.0003513 -0.0000005 0.0000032 0.0001843 -0.0001907 -0.0004102 -0.0003082 0.0001343 -0.0003493 0.0001563 0.0001950 -0.0001316 0.0001347 0.0002559 -0.0004375 0.0002522 -0.0004974 -0.0100058 0.0065726 0.0012411 -0.0019357 0.0005447 -0.0006490 -0.0015004 0.0016698 -0.0004862 0.0004418 0.0094229 -0.0217090 0.0000792 -0.0000403 0.0001203 -0.0005797 0.0002646 0.0000643 0.0000275 -0.0002005 -0.0000469 -0.0000313 0.0001394 0.0000577 0.0000424 -0.0001337 -0.0001856 0.0000853 -0.0001752 -0.0001950 0.0008758 -0.0005171 -0.0011760 0.0012735 -0.0183565 0.0248382 -0.0043291 0.0109323 0.0094958 -0.0134563 -0.0060944 0.0058576 0.0001764 -0.0001422 0.0015719 -0.0019920 -0.0013144 0.0007789 0.0001826 -0.0001486 0.0001671 -0.0003293 0.0005373 -0.0009106 0.0001101 -0.0003748 -0.0023720 0.0010042 0.0003465 -0.0008223 0.0021102 -0.0026759 0.0003123 -0.0016932 -0.0000053 0.0002645 -0.0007701 0.0006508 0.0001893 0.0003713 -0.0003738 -0.0002839 0.0001988 -0.0004716 0.0001455 -0.0005060 0.0025172 -0.0012673 0.0006283 -0.0015047 0.0004029 -0.0010178 -0.0002644 -0.0020495 -0.0001477 -0.0002545 0.0000459 -0.0002254 -0.0001538 -0.0006881 0.0003451 -0.0010154 0.0105229 -0.0196584 0.0000187 0.0000043 -0.0000585 -0.0000267 0.0013585 -0.0014086 0.0004186 -0.0122320 0.0006090 -0.0010610 0.0000848 -0.0000894 -0.0013405 0.0013287 0.0150839 -0.0217910 0.0013504 -0.0010432 0.0004621 -0.0006683 -0.0000069 -0.0000341 0.0000684 0.0000387 -0.0000104 0.0000270 0.0000759 -0.0000920 0.0004431 -0.0008130
0.0002071 -0.0003190 0.0002579 -0.0003906 0.0002500 -0.0002802 -0.0000092 -0.0002515 0.0000726 -0.0004524 0.0002436 -0.0003461 0.0003085 -0.0004274 0.0001774 -0.0005606 0.0001744 -0.0004588 0.0002020 -0.0001839 0.0002569 -0.0002665 0.0000618 -0.0000500 0.0002594 -0.0004469 0.0001003 -0.0004793 0.0000305 -0.0003997 0.0001422 -0.0001474 0.0001654 -0.0004765 0.0002440 -0.0003785 0.0000478 -0.0001703 0.0000021 -0.0000155 -0.0000113 -0.0000762 -0.0002257 0.0001191 0.0000673 -0.0000771 0.0000582 -0.0000123 -0.0001757 0.0000412 -0.0000103 -0.0002175 0.0000015 -0.0003500 0.0001042 -0.0000626 -0.0000779 -0.0001135 0.0000712 0.0000504 -0.0000288 -0.0000494 0.0004415 -0.0002119 0.0000734 -0.0004364 0.0000348 -0.0004776 -0.0003020 -0.0000456 0.0003395 -0.0001713 0.0001851 -0.0005708 -0.0001779 -0.0004274 0.0000594 -0.0000097 0.0001493 -0.0001521 0.0000164 -0.0004261 0.0001186 -0.0002283 0.0001683 0.0002569 0.0005401 -0.0010890 -0.0001817 0.0000357 0.0003373 -0.0003917 -0.0027945 0.0007711 0.0005564 -0.0014164 0.0008126 -0.0011471 0.0001618 -0.0040492 -0.0003267 0.0005022 0.0033521 -0.0093752 0.0000254 0.0000306 0.0002195 -0.0006854 0.0002186 0.0000854 -0.0001020 -0.0001398 -0.0000796 0.0000093 -0.0002138 0.0002946 0.0000231 -0.0000625 -0.0000875 0.0000707 -0.0001759 -0.0002316 0.0004715 -0.0002045 -0.0003694 0.0007132 -0.0000742 -0.0060205 -0.0032529 0.0016757 0.0120348 -0.0140184 -0.0079758 0.0035088 0.0002243 -0.0001094 -0.0009071 0.0005694 -0.0012724 0.0010076 0.0001562 -0.0000212 0.0002199 -0.0002812 0.0004009 -0.0010071 0.0001151 -0.0001647 -0.0013856 0.0006350 0.0011522 -0.0010449 0.0034248 -0.0042183 0.0015002 -0.0017755 0.0001271 0.0001488 -0.0001084 -0.0001708 0.0002406 0.0004258 -0.0007051 0.0000704 0.0001092 -0.0002690 0.0002756 -0.0005501 -0.0022504 0.0021509 0.0004752 -0.0011454 -0.0006615 0.0001009 0.0001483 -0.0029588 -0.0003003 -0.0000808 0.0000576 -0.0000861 -0.0001288 -0.0002790 0.0002946 -0.0005859 0.0134699 -0.0160914 0.0006652 -0.0002311 0.0001197 -0.0000934 0.0005729 -0.0010836 0.0045451 -0.0200513 0.0006634 -0.0013747 0.0000182 0.0000387 -0.0004702 0.0007235 0.0035425 -0.0068988 0.0013772 -0.0011398 0.0005765 -0.0005155 -0.0000021 0.0000730 0.0000841 0.0001820 0.0000555 0.0000475 0.0000280 0.0000547 0.0005958 -0.0006042
0.0001805 -0.0002608 0.0002695 -0.0003734 0.0002347 -0.0002253 -0.0000022 -0.0002354 0.0000715 -0.0003541 0.0002244 -0.0002266 0.0003031 -0.0003661 0.0001697 -0.0004909 0.0001780 -0.0004741 0.0001919 -0.0001576 0.0002546 -0.0002352 0.0000723 -0.0000156 0.0001826 -0.0003804 0.0000970 -0.0003557 0.0000357 -0.0003287 0.0001370 -0.0000500 0.0001653 -0.0003735 0.0002310 -0.0003193 0.0000570 -0.0001105 -0.0008589 0.0007210 -0.0000089 -0.0000492 -0.0001822 0.0001184 0.0000102 0.0000775 0.0000621 0.0000230 -0.0001697 0.0000764 -0.0000376 -0.0001821 -0.0000048 -0.0003102 0.0000608 -0.0000128 -0.0001023 -0.0001493 0.0000360 0.0001629 -0.0000795 -0.0000918 0.0004326 -0.0001118 0.0001325 -0.0004684 -0.0001113 -0.0001918 -0.0001868 -0.0000665 0.0003751 -0.0001805 0.0002053 -0.0005240 -0.0000453 -0.0008374 -0.0000037 0.0000732 0.0001466 -0.0001603 0.0015639 -0.0022248 -0.0001118 -0.0000199 0.0001892 0.0002654 0.0005402 -0.0009964 -0.0002268 -0.0001641 0.0002143 -0.0001356 0.0025705 -0.0042109 0.0006264 -0.0007463 0.0007776 -0.0011424 0.0018688 -0.0047057 -0.0003182 0.0007037 0.0065094 -0.0066023 0.0000314 0.0000777 0.0000628 -0.0006476 0.0001934 0.0000727 -0.0000755 -0.0000669 -0.0001113 -0.0000038 -0.0001632 0.0002216 0.0000163 -0.0001536 -0.0000497 -0.0000154 -0.0001542 -0.0001735 -0.0000984 -0.0001686 0.0004650 -0.0006397 -0.0014005 -0.0041592 0.0085873 -0.0017600 -0.0016041 0.0013308 -0.0007798 0.0021405 0.0000049 -0.0000175 -0.0033784 0.0018347 -0.0016248 0.0006093 0.0001306 -0.0001900 0.0002082 -0.0003542 -0.0002550 -0.0004257 0.0000634 -0.0001571 -0.0003470 0.0005394 0.0000369 -0.0007051 0.0037257 -0.0034290 0.0017472 -0.0006341 0.0000267 0.0001383 0.0005373 -0.0005176 0.0003700 0.0001539 0.0004219 -0.0006009 0.0000877 -0.0002026 0.0001892 -0.0005760 -0.0015570 -0.0003332 0.0004709 -0.0011517 -0.0004527 0.0000631 0.0014144 -0.0021423 -0.0005608 -0.0000281 0.0000373 0.0000197 -0.0004858 0.0002879 0.0001027 -0.0002622 0.0158220 -0.0252455 0.0004227 -0.0000478 0.0001491 -0.0000697 -0.0004079 0.0000370 -0.0017153 -0.0026375 0.0007317 -0.0015952 -0.0000623 0.0001373 0.0005296 -0.0001920 0.0000843 -0.0171703 0.0003790 -0.0000044 -0.0003245 0.0005722 0.0000297 0.0000453 0.0000680 0.0002164 0.0003315 -0.0003616 -0.0000301 0.0001252 0.0006159 -0.0004908
0.0001872 -0.0002529 0.0002628 -0.0003503 0.0002113 -0.0001824 -0.0000044 -0.0002035 0.0000696 -0.0002895 0.0002015 -0.0001359 0.0002903 -0.0003008 0.0001521 -0.0004302 0.0001775 -0.0004361 0.0001902 -0.0001323 0.0002272 -0.0001945 0.0000525 0.0000314 0.0001559 -0.0002911 0.0000947 -0.0002689 0.0000385 -0.0002886 0.0001277 0.0000271 0.0001489 -0.0002457 0.0002291 -0.0002521 0.0000526 -0.0000368 -0.0003213 0.0004742 -0.0000060 -0.0000144 -0.0001300 0.0001101 -0.0000274 0.0001580 0.0000579 0.0000612 0.0001061 -0.0002759 -0.0000604 -0.0001610 -0.0000073 -0.0002732 0.0000083 0.0000804 -0.0001293 -0.0001664 0.0000247 0.0002703 -0.0001076 -0.0001378 0.0003381 0.0000565 0.0001121 -0.0004029 -0.0001082 -0.0000632 -0.0003289 0.0000626 0.0003665 -0.0001337 0.0002163 -0.0005852 0.0002804 -0.0010124 -0.0000863 0.0002551 0.0001330 0.0000077 0.0005824 -0.0014748 -0.0001033 0.0000488 0.0002157 0.0003698 -0.0001436 -0.0000929 0.0002377 -0.0001592 0.0002117 0.0001206 -0.0046001 0.0008684 0.0005439 -0.0005332 0.0005272 -0.0008294 0.0032786 -0.0067563 -0.0002982 0.0007319 0.0069999 -0.0122408 0.0000938 0.0002486 0.0001218 -0.0006858 0.0001737 0.0000719 -0.0000335 -0.0001037 -0.0001107 0.0000041 0.0000741 0.0001297 0.0000082 -0.0000648 -0.0002557 0.0002462 -0.0001214 -0.0001552 0.0000861 -0.0000448 0.0002720 -0.0001928 -0.0185840 0.0292642 0.0097627 -0.0126843 -0.0019049 0.0038378 -0.0015848 0.0031210 0.0000312 0.0000727 0.0009549 -0.0008625 -0.0002975 -0.0005782 0.0001124 -0.0000016 0.0000994 -0.0001224 -0.0003048 0.0000900 0.0002447 -0.0001990 0.0021510 -0.0017812 -0.0002178 -0.0004364 0.0017893 -0.0018613 0.0003335 -0.0013710 -0.0000397 0.0003460 0.0005645 -0.0005184 0.0001800 0.0003183 0.0015621 -0.0017494 0.0000557 0.0000250 -0.0000773 -0.0003001 0.0025614 -0.0051841 0.0005915 -0.0011015 0.0004620 -0.0008572 0.0002210 0.0016443 -0.0012301 0.0006798 0.0000179 0.0001960 -0.0005016 0.0006340 -0.0001000 -0.0001541 0.0104570 -0.0238635 -0.0002805 0.0005256 -0.0000184 0.0000617 -0.0003338 0.0004291 -0.0037638 -0.0010188 0.0003513 -0.0006441 0.0000017 0.0001337 0.0016365 -0.0008724 0.0000738 -0.0199585 0.0004052 -0.0001534 -0.0003832 0.0006358 0.0000410 -0.0000159 0.0000380 0.0002519 0.0003548 -0.0002519 -0.0000190 0.0001332 0.0007317 -0.0010230
0.0001862 -0.0002304 0.0002746 -0.0003491 0.0001917 -0.0001544 -0.0000204 -0.0001843 0.0000593 -0.0002788 0.0001389 -0.0000708 0.0002784 -0.0002926 0.0001334 -0.0003974 0.0001718 -0.0003885 0.0001829 -0.0001433 0.0002437 -0.0001995 0.0000558 0.0000207 0.0001988 -0.0003739 0.0000932 -0.0002835 0.0000534 -0.0002894 0.0001251 -0.0000014 0.0001272 -0.0002758 0.0002371 -0.0002466 0.0000469 -0.0000761 0.0003599 0.0002062 -0.0000159 -0.0000008 -0.0001592 0.0001767 -0.0001034 0.0001143 0.0000537 0.0000197 0.0001029 -0.0002867 -0.0000416 -0.0002949 -0.0000022 -0.0003896 0.0000338 -0.0000080 -0.0001513 -0.0002238 -0.0000047 0.0001473 -0.0001011 -0.0001658 0.0003242 -0.0000304 0.0000240 -0.0003312 -0.0000638 -0.0004081 -0.0004744 0.0000103 0.0002960 -0.0001443 0.0001615 -0.0007158 -0.0000068 -0.0002783 -0.0001613 0.0002607 0.0000633 -0.0000301 -0.0013531 0.0000508 0.0000541 -0.0001122 0.0002281 0.0003884 0.0000774 -0.0000137 0.0005442 -0.0003258 0.0002049 0.0001197 -0.0040793 0.0021775 0.0007488 -0.0013804 -0.0000288 -0.0001584 0.0030800 -0.0024748 -0.0001098 0.0004779 -0.0004557 0.0062055 0.0002844 0.0000985 -0.0000032 -0.0005959 0.0001562 0.0000436 -0.0001669 0.0000141 -0.0001149 -0.0000143 -0.0001310 0.0003490 0.0000047 -0.0000693 -0.0003299 0.0003502 -0.0000256 -0.0003100 -0.0002704 0.0004882 -0.0002514 0.0006679 -0.0193102 0.0314214 0.0038489 -0.0247450 0.0099880 -0.0173420 0.0025654 -0.0016859 0.0000866 -0.0000075 0.0017474 -0.0001510 0.0004556 -0.0002834 0.0001035 0.0001028 0.0000610 0.0000013 0.0004013 -0.0001967 0.0004155 -0.0002235 0.0030174 -0.0034575 0.0005135 -0.0006108 0.0001995 -0.0002443 0.0006905 -0.0021783 0.0000348 0.0003930 0.0004657 -0.0004321 -0.0000601 0.0005662 -0.0001588 -0.0002816 0.0000757 0.0000491 0.0000276 -0.0003464 0.0000755 -0.0009968 -0.0000071 -0.0002320 -0.0006894 0.0002624 -0.0004445 0.0015731 -0.0008876 0.0008574 -0.0000125 0.0002395 -0.0001956 -0.0000587 -0.0000882 -0.0000766 -0.0033315 -0.0004348 -0.0004959 0.0008405 -0.0001087 0.0002358 -0.0001129 0.0001348 -0.0054104 0.0011480 0.0001661 0.0003702 -0.0000807 0.0002414 0.0016802 -0.0007051 -0.0033740 -0.0040300 0.0002218 -0.0001867 0.0004302 0.0000841 -0.0000031 0.0000791 0.0001117 0.0002250 0.0002008 0.0001645 0.0000148 0.0001735 0.0012445 -0.0013751
0.0001146 -0.0001205 0.0002773 -0.0002962 0.0001712 -0.0000861 -0.0000310 -0.0001436 0.0000500 -0.0001765 0.0000379 0.0001126 0.0002625 -0.0001970 0.0001003 -0.0002851 0.0001450 -0.0003161 0.0001773 -0.0001112 0.0002449 -0.0001290 0.0000586 0.0000448 0.0001698 -0.0003142 0.0000793 -0.0001384 0.0000574 -0.0001651 0.0001083 0.0001282 0.0000865 -0.0000874 0.0001958 -0.0001117 0.0000275 0.0000313 -0.0004685 0.0010048 -0.0000533 0.0000836 -0.0001087 0.0000990 -0.0001639 0.0002206 0.0000392 0.0000939 -0.0000725 -0.0000042 -0.0000589 -0.0002558 -0.0000063 -0.0003602 0.0000191 -0.0000038 -0.0001605 -0.0001555 -0.0000614 0.0001842 -0.0000704 -0.0000398 0.0003002 0.0000513 0.0000396 -0.0002659 -0.0002136 -0.0001274 -0.0003469 -0.0000254 0.0002920 -0.0001702 0.0000471 -0.0005472 -0.0007260 0.0001337 -0.0002290 0.0003865 0.0001150 -0.0000378 -0.0030203 0.0016666 -0.0001284 -0.0000411 0.0002016 0.0004532 0.0008838 -0.0007445 0.0003417 -0.0001169 0.0001533 0.0003084 0.0041144 -0.0043472 0.0003243 -0.0005358 -0.0001748 0.0000448 0.0004559 0.0022385 0.0000560 0.0003827 0.0064995 0.0056017 0.0003050 0.0001640 -0.0002345 -0.0003214 0.0001526 0.0000517 -0.0002175 0.0001239 -0.0001201 -0.0000351 -0.0003985 0.0005471 -0.0000136 -0.0000854 -0.0002308 0.0003177 -0.0000009 -0.0003421 -0.0003784 0.0005605 -0.0003703 0.0009491 0.0028891 0.0059001 0.0046325 0.0003279 0.0032685 -0.0154997 -0.0020186 0.0013937 0.0001342 -0.0000920 0.0005972 0.0010481 -0.0003054 0.0005485 0.0000426 0.0000650 0.0001162 -0.0000285 0.0005487 -0.0003246 0.0001929 0.0000348 -0.0007347 0.0000436 -0.0003346 -0.0007779 -0.0019871 0.0017242 0.0020888 -0.0021346 0.0000862 0.0003292 -0.0004166 0.0001141 -0.0000602 0.0005002 -0.0010036 0.0001776 0.0000735 -0.0000567 -0.0000776 -0.0001030 0.0000231 0.0000684 -0.0001557 -0.0001734 -0.0007853 0.0005299 -0.0005255 0.0005251 -0.0003334 0.0003312 -0.0000059 0.0001861 0.0000905 -0.0004540 -0.0000359 -0.0002123 -0.0054074 0.0097299 0.0000875 0.0003179 0.0000710 0.0000702 -0.0003730 0.0002671 -0.0067883 0.0086521 0.0000635 -0.0001858 -0.0000946 0.0001462 0.0016162 -0.0007590 0.0038962 -0.0124413 -0.0006244 0.0006517 -0.0002268 0.0009013 -0.0000143 0.0001173 0.0000749 0.0002075 0.0001090 0.0001798 -0.0000096 0.0000966 0.0011792 -0.0008182
0.0001091 -0.0001576 0.0002805 -0.0002969 0.0001706 -0.0001067 -0.0000167 -0.0001515 0.0000634 -0.0001547 -0.0000078 0.0001562 0.0002457 -0.0001837 0.0000783 -0.0002803 0.0001645 -0.0002523 0.0001742 -0.0000994 0.0002243 -0.0001251 0.0000651 0.0000358 0.0001894 -0.0001972 0.0000727 -0.0001370 0.0000480 -0.0001540 0.0000883 0.0001529 0.0000501 -0.0000395 0.0001518 -0.0000667 0.0000006 0.0000612 -0.0002905 0.0002933 -0.0000580 0.0001044 -0.0000718 0.0000682 -0.0001523 0.0002722 0.0000375 0.0001151 0.0001055 -0.0001476 -0.0000589 -0.0002139 -0.0000166 -0.0003264 -0.0000183 0.0000301 -0.0001520 -0.0001708 -0.0000612 0.0001818 -0.0000602 0.0000130 0.0002408 0.0001849 0.0000059 -0.0001382 -0.0003247 0.0001037 0.0000982 -0.0003333 0.0003372 -0.0002294 -0.0000019 -0.0005361 -0.0010485 0.0003170 -0.0001590 0.0003643 0.0000643 0.0000849 0.0000051 -0.0003766 0.0001377 -0.0001085 0.0002158 0.0004856 0.0016468 -0.0014968 0.0004478 0.0000606 0.0002031 0.0003927 0.0027531 -0.0036112 0.0000411 0.0000974 0.0000881 -0.0004035 -0.0110424 0.0078526 0.0001558 0.0004003 0.0121163 -0.0067242 0.0002025 0.0003610 -0.0001562 -0.0003707 0.0001571 0.0000244 -0.0000311 -0.0000274 -0.0001022 -0.0000878 -0.0001292 0.0004445 -0.0000273 -0.0000208 -0.0003481 0.0004974 -0.0000529 -0.0001386 -0.0002523 0.0003749 0.0002747 -0.0002917 0.0175352 -0.0177322 0.0049273 -0.0023696 0.0019640 -0.0098244 -0.0066218 0.0031717 0.0001672 -0.0000184 0.0012266 -0.0000029 -0.0006500 0.0012601 0.0000518 0.0001820 0.0002212 -0.0000292 0.0002057 -0.0001907 -0.0000849 0.0002573 -0.0043154 0.0041806 -0.0011875 -0.0005176 -0.0053018 0.0050839 0.0020436 -0.0012344 0.0000633 0.0003345 -0.0011422 0.0004273 0.0000372 0.0003319 0.0001942 -0.0007242 0.0000472 0.0001138 -0.0000333 0.0000972 -0.0042627 0.0046008 0.0002725 -0.0005226 0.0006137 -0.0002456 0.0005483 0.0000142 0.0001827 -0.0000944 -0.0000310 0.0003036 -0.0000867 0.0003354 0.0000145 -0.0002101 0.0062046 -0.0081228 0.0000916 0.0002643 0.0001841 0.0000787 -0.0003074 0.0006171 0.0028529 0.0009440 0.0007457 -0.0008484 -0.0000386 0.0001520 0.0014055 -0.0004042 0.0082336 -0.0301587 -0.0006220 0.0010781 -0.0002897 0.0007728 0.0000376 0.0002443 -0.0000228 0.0002924 0.0001163 0.0000973 -0.0000391 0.0001561 0.0003146 -0.0002767
0.0001085 -0.0001519 0.0002827 -0.0002694 0.0001612 -0.0000561 -0.0000109 -0.0001214 0.0000741 -0.0000523 -0.0000501 0.0001949 0.0002271 -0.0000980 0.0000584 -0.0002003 0.0001471 -0.0001387 0.0001466 -0.0000226 0.0001874 -0.0000417 0.0000394 0.0001082 0.0001559 -0.0000339 0.0000547 -0.0000496 0.0000131 -0.0000460 0.0000660 0.0002557 0.0000196 0.0000385 0.0001363 -0.0000318 -0.0000113 0.0001247 0.0003920 -0.0004124 -0.0000586 0.0001096 -0.0001892 0.0001659 -0.0001860 0.0003537 0.0000371 0.0000906 0.0001822 -0.0003281 -0.0000163 -0.0002784 -0.0000278 -0.0003523 -0.0000231 0.0000047 -0.0001598 -0.0002521 -0.0000386 0.0001458 -0.0000688 -0.0000354 0.0002111 0.0001678 -0.0001012 -0.0000006 -0.0002689 -0.0000013 -0.0000631 0.0002078 0.0003119 -0.0002705 0.0002344 -0.0008372 0.0000956 -0.0007847 -0.0001212 0.0002549 0.0000757 -0.0000485 0.0012771 -0.0015414 0.0004185 -0.0001913 0.0002302 0.0003787 0.0010533 -0.0011755 0.0006998 -0.0002278 0.0002902 0.0002924 -0.0036542 0.0029440 -0.0000356 0.0004668 -0.0003304 -0.0000627 -0.0036714 0.0063518 0.0000970 0.0003208 0.0141220 -0.0209713 0.0002071 0.0003455 0.0000545 -0.0007336 0.0001441 -0.0000278 0.0000026 -0.0001698 -0.0001043 -0.0001979 0.0000064 0.0001428 -0.0000103 -0.0001384 -0.0004281 0.0004768 -0.0001180 0.0001720 0.0000820 -0.0003753 0.0003078 -0.0007306 0.0208057 -0.0283480 -0.0087953 0.0016766 0.0026683 -0.0170547 -0.0024615 0.0008863 0.0001594 -0.0001202 0.0010421 -0.0009248 -0.0027721 0.0020729 0.0000628 0.0001602 0.0001937 -0.0000202 0.0001263 -0.0000862 -0.0000847 0.0001504 -0.0004145 0.0004952 0.0002034 -0.0006043 -0.0009102 0.0005195 0.0003363 -0.0003363 0.0000541 0.0002597 -0.0012467 0.0008602 0.0002213 0.0001869 0.0016407 -0.0011793 0.0000517 0.0001928 0.0000180 0.0000368 -0.0029381 0.0040490 0.0004369 -0.0003443 0.0002091 -0.0002037 -0.0011948 0.0021996 0.0001555 -0.0001321 0.0000018 0.0002215 -0.0001423 0.0004663 0.0000150 -0.0000360 0.0097335 -0.0129306 0.0001777 0.0001112 0.0001073 0.0002083 -0.0005360 0.0005134 -0.0001391 -0.0024772 0.0010530 -0.0005450 0.0000135 0.0000994 0.0005052 0.0008558 -0.0098351 0.0127009 0.0007686 0.0001996 0.0006453 -0.0001013 0.0000605 0.0003218 -0.0000210 0.0002712 -0.0001010 0.0002031 -0.0000122 0.0001141 -0.0000100 0.0000434
0.0000869 -0.0001044 0.0002798 -0.0002368 0.0001501 -0.0000052 -0.0000232 -0.0000563 0.0000665 0.0000258 -0.0000728 0.0002471 0.0002121 -0.0000148 0.0000433 -0.0001381 0.0001113 -0.0000353 0.0001151 0.0000583 0.0001508 0.0000325 -0.0000153 0.0001918 0.0001038 0.0001225 0.0000373 0.0000303 -0.0000017 0.0000654 0.0000425 0.0003650 -0.0000172 0.0002044 0.0001082 0.0000211 -0.0000126 0.0002142 -0.0004167 0.0004246 -0.0000743 0.0001549 -0.0002034 0.0001583 -0.0001326 0.0003317 0.0000309 0.0001180 0.0000678 -0.0002746 -0.0000117 -0.0001945 -0.0000332 -0.0002539 -0.0000155 0.0000566 -0.0002005 -0.0002650 -0.0000201 0.0002530 -0.0001026 -0.0000929 0.0000695 0.0003213 -0.0001268 0.0001017 -0.0002798 0.0001785 -0.0002510 0.0005761 0.0002841 -0.0002262 0.0002525 -0.0008364 0.0006152 -0.0014863 -0.0001382 0.0003536 0.0001778 -0.0000604 -0.0012708 0.0000450 0.0006115 -0.0002577 0.0002174 0.0003839 0.0000966 -0.0004131 0.0003029 0.0001376 0.0002210 0.0005692 -0.0032991 0.0047695 -0.0002090 0.0008757 -0.0009084 0.0002769 0.0034190 -0.0011980 -0.0000571 0.0002636 0.0043643 -0.0064084 0.0000576 0.0006722 -0.0001846 -0.0004844 0.0001200 -0.0000080 0.0000219 -0.0002772 -0.0001589 -0.0001767 -0.0001590 0.0002423 -0.0000222 -0.0000671 -0.0003255 0.0004158 -0.0001077 0.0000851 -0.0001967 0.0001880 -0.0001814 -0.0001191 0.0016799 0.0014385 -0.0005653 0.0007064 -0.0146869 0.0115470 -0.0037389 0.0045808 -0.0000881 0.0003374 0.0007539 -0.0013775 -0.0039924 0.0023814 0.0000347 0.0002666 0.0000772 0.0001424 -0.0002658 0.0005067 -0.0001367 0.0003212 0.0029853 -0.0039759 0.0001134 0.0002843 0.0043344 -0.0045300 -0.0012281 0.0006805 0.0001182 0.0002473 -0.0003593 0.0001827 0.0001188 0.0003784 0.0013775 -0.0004280 0.0000313 0.0002163 0.0000446 0.0000416 0.0049725 -0.0054815 0.0004510 -0.0000780 0.0002283 -0.0002937 0.0005340 0.0010361 -0.0005582 0.0005621 0.0000227 0.0001974 -0.0000377 0.0004170 -0.0003566 0.0003500 0.0000454 0.0090633 0.0004389 -0.0001332 0.0001275 0.0001165 -0.0011010 0.0005338 -0.0090285 0.0092604 0.0005452 -0.0002842 0.0000447 0.0000493 0.0002847 0.0010719 -0.0046238 0.0165228 0.0004224 0.0008656 0.0003116 0.0000335 -0.0000039 0.0002511 0.0000547 0.0001819 0.0000424 0.0000149 -0.0000146 0.0000322 -0.0001272 0.0002922
0.0001174 -0.0001478 0.0002815 -0.0002360 0.0001524 -0.0000396 -0.0000140 -0.0000220 0.0000524 -0.0000410 -0.0000601 0.0002194 0.0002049 -0.0000653 0.0000428 -0.0001747 0.0001026 -0.0000059 0.0000924 0.0000337 0.0001458 0.0000266 -0.0000257 0.0001725 0.0001844 0.0000395 0.0000406 -0.0000353 0.0000035 0.0000240 0.0000325 0.0002986 -0.0000398 0.0001584 0.0000849 0.0000238 -0.0000059 0.0001426 -0.0004971 0.0006592 -0.0000737 0.0001806 -0.0001925 0.0002463 -0.0000674 0.0001080 0.0000249 0.0001479 -0.0001239 -0.0001343 -0.0000495 -0.0000984 -0.0000291 -0.0001851 -0.0000006 0.0000581 -0.0002253 -0.0003348 -0.0000035 0.0002075 -0.0001311 -0.0002358 -0.0000451 0.0004207 -0.0001065 0.0000749 -0.0003561 0.0001540 -0.0005208 0.0005588 0.0003113 -0.0002393 0.0001817 -0.0008020 0.0001645 -0.0008437 -0.0000370 0.0003196 0.0002218 -0.0001389 -0.0007801 0.0002945 0.0003981 -0.0001245 0.0002259 0.0003955 0.0005385 -0.0004535 0.0001138 0.0003158 0.0001463 0.0005759 -0.0018787 0.0034298 0.0001458 0.0001557 0.0005228 -0.0005204 -0.0007617 -0.0053368 -0.0002152 0.0005010 -0.0121173 0.0198563 0.0000281 0.0007975 -0.0002390 -0.0004431 0.0001131 -0.0000413 0.0001832 -0.0003988 -0.0001597 -0.0001586 -0.0001731 0.0005276 -0.0000540 0.0000258 -0.0002623 0.0005234 -0.0001440 0.0001602 -0.0007744 0.0007603 -0.0003417 0.0001174 -0.0101342 0.0148559 0.0113989 -0.0091003 -0.0082951 -0.0000899 -0.0019991 0.0029743 -0.0000858 0.0004476 0.0010278 -0.0014751 0.0006551 -0.0007253 0.0000639 0.0003332 0.0000482 0.0002615 -0.0005969 0.0010268 -0.0000860 0.0003615 0.0025825 -0.0028364 -0.0000494 0.0005912 0.0000815 -0.0006077 -0.0007013 0.0008236 0.0001310 0.0004023 0.0005402 -0.0006204 -0.0001762 0.0007803 0.0005241 -0.0002271 -0.0000548 0.0002803 -0.0000614 0.0002774 0.0048920 -0.0079897 0.0001554 0.0000788 -0.0000842 0.0003200 -0.0016435 0.0015961 -0.0006470 0.0008798 0.0000318 0.0003282 0.0002808 0.0003796 -0.0004877 0.0003444 -0.0035041 0.0142780 0.0004315 0.0000478 0.0000828 0.0001921 -0.0001639 0.0001646 0.0008448 0.0024101 0.0000587 -0.0007212 -0.0000603 0.0002790 0.0009154 0.0003290 -0.0032355 0.0067326 0.0004899 0.0010209 -0.0001371 0.0001835 0.0000165 0.0002338 0.0001487 0.0002147 0.0004372 -0.0002967 -0.0000634 0.0003107 -0.0003318 0.0005938
0.0001133 -0.0000753 0.0002750 -0.0001446 0.0001347 0.0000351 -0.0000047 0.0000746 0.0000458 0.0000357 -0.0000631 0.0003343 0.0001960 0.0000436 0.0000223 -0.0000389 0.0000728 0.0000533 0.0000832 0.0000713 0.0001150 0.0001901 -0.0000145 0.0002224 0.0001241 0.0001442 0.0000317 0.0001773 -0.0000205 0.0001869 0.0000193 0.0004619 -0.0000619 0.0003256 0.0000562 0.0001942 -0.0000164 0.0002647 0.0001596 0.0004438 -0.0000828 0.0002627 -0.0001498 0.0004128 -0.0000287 0.0001177 0.0000202 0.0002303 -0.0002888 0.0000485 -0.0000314 -0.0000349 -0.0000256 -0.0000956 -0.0000258 0.0001025 -0.0002317 -0.0003332 -0.0000011 0.0001824 -0.0001405 -0.0002710 -0.0000618 0.0004659 -0.0001475 0.0001196 -0.0002571 0.0000403 -0.0008165 0.0009745 0.0003097 -0.0002344 0.0000312 -0.0007130 0.0002750 -0.0006654 -0.0000503 0.0003694 0.0002044 -0.0002556 -0.0004414 0.0019040 0.0000986 -0.0000177 0.0002133 0.0004210 0.0003314 0.0001295 0.0001845 0.0002395 0.0001239 0.0005621 0.0013724 0.0024775 0.0002638 -0.0000424 0.0018840 -0.0012723 -0.0039746 0.0003299 -0.0002438 0.0005562 -0.0090646 0.0169001 0.0000912 0.0006519 0.0000747 -0.0007888 0.0001072 -0.0000731 0.0000862 -0.0003258 -0.0001664 -0.0001908 -0.0002918 0.0005086 -0.0000801 -0.0000886 -0.0003569 0.0005940 -0.0001289 0.0003614 -0.0011352 0.0011391 -0.0002890 0.0008005 -0.0082842 0.0148315 -0.0014573 0.0109638 -0.0037091 -0.0041672 0.0007182 -0.0026199 -0.0000386 0.0001325 -0.0007061 -0.0001861 0.0019296 -0.0012470 0.0000673 0.0001810 -0.0000259 0.0003011 -0.0004593 0.0010291 -0.0001674 0.0003218 0.0002185 -0.0008533 -0.0006404 0.0008624 -0.0038651 0.0019436 -0.0012761 0.0012280 0.0001526 0.0004478 0.0007130 -0.0005038 0.0000397 0.0004371 0.0014288 -0.0015846 -0.0001101 0.0002910 -0.0001882 0.0005342 -0.0004508 -0.0024929 -0.0000356 0.0001367 0.0000455 0.0002463 -0.0018037 -0.0001938 -0.0005336 0.0007367 -0.0000152 0.0003415 0.0004922 0.0000800 -0.0002582 0.0000601 -0.0034683 0.0103998 -0.0000066 0.0005024 0.0001220 0.0001675 0.0000199 0.0001650 0.0019953 -0.0009154 -0.0007640 0.0004447 -0.0000423 0.0002771 0.0015002 0.0001782 -0.0106240 0.0167468 0.0009556 0.0003138 0.0001608 -0.0000577 0.0000280 0.0002818 0.0000754 0.0002755 0.0003729 -0.0002166 -0.0000834 0.0003459 -0.0006763 0.0011394
0.0000937 -0.0000446 0.0002854 -0.0001327 0.0001345 0.0000555 -0.0000078 0.0001217 0.0000439 0.0000738 -0.0000636 0.0003569 0.0002031 0.0000767 0.0000119 0.0000101 0.0000820 0.0001038 0.0000951 0.0000928 0.0001214 0.0001971 -0.0000075 0.0002327 0.0000288 0.0002645 0.0000115 0.0002476 -0.0000286 0.0002588 0.0000094 0.0005322 -0.0000799 0.0004261 0.0000423 0.0002483 -0.0000232 0.0003318 -0.0001320 0.0009614 -0.0001000 0.0003108 -0.0001022 0.0003915 -0.0001373 0.0003087 0.0000272 0.0002637 -0.0002152 0.0000714 -0.0000392 0.0000733 -0.0000174 -0.0000203 -0.0000329 0.0001350 -0.0002440 -0.0003149 0.0000270 0.0002215 -0.0001586 -0.0002407 -0.0001404 0.0005029 -0.0002032 0.0002922 -0.0002754 0.0000654 -0.0005748 0.0007627 0.0002419 -0.0001460 -0.0001208 -0.0006040 0.0006307 -0.0013154 -0.0002199 0.0005536 0.0000997 -0.0000441 0.0007509 0.0014155 0.0002892 -0.0001079 0.0001938 0.0005575 0.0000240 0.0002781 0.0004025 0.0003020 0.0001058 0.0008392 0.0022939 0.0028303 0.0005229 -0.0001401 0.0008498 -0.0005549 -0.0014264 0.0028300 0.0000547 0.0001725 -0.0011134 -0.0012672 0.0001474 0.0007149 0.0001763 -0.0007896 0.0000906 -0.0000242 -0.0000257 -0.0002047 -0.0001768 -0.0001877 -0.0001957 0.0003548 -0.0000874 0.0000246 -0.0004878 0.0007091 -0.0003189 0.0006547 -0.0005652 0.0011282 -0.0008530 0.0016119 -0.0017444 0.0018883 -0.0201122 0.0278211 -0.0002070 0.0026854 0.0041627 -0.0031245 -0.0001013 0.0003307 -0.0028368 0.0013215 -0.0000124 0.0007144 -0.0000335 0.0004392 -0.0000162 0.0003636 -0.0001319 0.0007153 -0.0002554 0.0005337 -0.0004052 0.0001552 -0.0013042 0.0007304 0.0004093 0.0002630 -0.0021284 0.0026537 0.0001864 0.0004987 0.0008297 -0.0003201 0.0002282 0.0002415 0.0012714 -0.0011882 -0.0000559 0.0004313 0.0000744 0.0005542 -0.0051303 0.0053605 0.0003869 0.0000914 0.0008968 -0.0004326 -0.0001908 0.0000067 -0.0005933 0.0007592 -0.0000543 0.0003521 0.0002885 0.0000253 -0.0002730 0.0003483 0.0003914 0.0009195 -0.0004438 0.0009389 0.0002010 0.0002226 -0.0004868 0.0002808 0.0008368 0.0082468 -0.0006571 0.0009251 -0.0000015 0.0002752 0.0008000 0.0004491 0.0020352 0.0011255 -0.0000083 0.0010517 0.0002558 -0.0001771 0.0000072 0.0003201 0.0000135 0.0002861 0.0001467 0.0000733 -0.0000836 0.0002422 -0.0004322 0.0010863
0.0001106 -0.0000885 0.0002884 -0.0001669 0.0001375 0.0000252 0.0000026 0.0000929 0.0000390 0.0000298 -0.0000548 0.0002160 0.0002010 0.0000106 0.0000261 -0.0000654 0.0001186 0.0001390 0.0000885 0.0000741 0.0001337 0.0001194 -0.0000303 0.0001908 0.0000508 0.0002881 0.0000016 0.0000888 -0.0000087 0.0001497 0.0000001 0.0003895 -0.0000855 0.0002451 0.0000452 0.0001316 -0.0000172 0.0001975 -0.0001269 0.0006879 -0.0001039 0.0002635 -0.0000749 0.0001947 -0.0001364 0.0002130 0.0000400 0.0002019 -0.0000197 -0.0001700 -0.0000281 0.0000359 -0.0000110 -0.0000516 0.0000153 0.0000537 -0.0002555 -0.0003905 0.0000552 0.0001568 -0.0001625 -0.0003025 -0.0001033 0.0004171 -0.0001966 0.0003642 -0.0004969 0.0001861 -0.0003335 0.0006372 0.0001583 -0.0001353 -0.0000651 -0.0007076 -0.0006020 -0.0003332 -0.0001625 0.0004011 0.0000040 0.0000411 0.0011052 0.0006676 0.0001914 0.0000460 0.0001983 0.0005513 0.0001813 0.0001156 0.0004850 0.0003356 0.0000880 0.0008573 0.0012989 0.0023770 0.0007603 -0.0002244 0.0005780 -0.0002700 -0.0027946 0.0046393 0.0002338 0.0000122 0.0026939 -0.0053855 0.0001181 0.0007504 0.0001727 -0.0008707 0.0000826 -0.0000438 -0.0000177 -0.0001497 -0.0001431 -0.0002699 -0.0000039 0.0001492 -0.0000652 -0.0000097 -0.0005352 0.0007897 -0.0002114 0.0007428 -0.0004784 0.0008542 -0.0013530 0.0017936 -0.0045582 -0.0000915 -0.0066453 0.0027829 0.0038371 -0.0015813 -0.0032585 0.0032472 0.0002492 0.0001580 -0.0058666 0.0027757 -0.0008407 0.0010555 -0.0000130 0.0004501 -0.0000481 0.0004062 0.0003616 0.0001795 -0.0001258 0.0003791 0.0028054 -0.0013272 0.0000969 -0.0005608 0.0028926 -0.0021976 -0.0005331 0.0010902 0.0000954 0.0005713 0.0000025 0.0002004 -0.0001406 0.0006431 0.0002825 0.0001537 -0.0000020 0.0004753 0.0000812 0.0005556 -0.0029897 0.0031267 0.0001486 0.0001642 0.0013159 -0.0006314 -0.0025833 0.0037099 -0.0007588 0.0006669 -0.0000070 0.0003054 -0.0004355 0.0005834 -0.0002352 0.0002992 0.0035013 -0.0064989 0.0000568 0.0004480 0.0001002 0.0004211 -0.0003690 0.0000307 0.0005288 0.0084575 -0.0006934 0.0001550 0.0000095 0.0003193 0.0005852 0.0001023 0.0048999 -0.0050545 -0.0012865 0.0021264 0.0002211 0.0000759 0.0000580 0.0002857 0.0000538 0.0003175 -0.0000638 0.0003207 -0.0000478 0.0003100 0.0001537 0.0008440
0.0001275 -0.0000782 0.0002808 -0.0001202 0.0001361 0.0000603 0.0000128 0.0000969 0.0000388 0.0000526 -0.0000042 0.0001985 0.0002036 0.0000408 0.0000243 -0.0000361 0.0001107 0.0001689 0.0000651 0.0001343 0.0001350 0.0001648 -0.0000578 0.0002471 0.0000055 0.0004677 -0.0000138 0.0001371 -0.0000154 0.0001906 -0.0000097 0.0004530 -0.0000853 0.0002598 0.0000310 0.0001910 -0.0000122 0.0002503 -0.0002844 0.0005200 -0.0001049 0.0002953 -0.0000546 0.0002152 0.0000445 0.0000435 0.0000440 0.0002301 0.0000882 -0.0002416 -0.0000131 0.0000567 -0.0000069 -0.0000014 0.0000337 0.0000600 -0.0002752 -0.0003746 0.0000395 0.0001917 -0.0001681 -0.0002861 -0.0001138 0.0005596 -0.0001843 0.0004195 -0.0005009 0.0002446 -0.0002569 0.0009636 0.0001167 -0.0000858 -0.0001314 -0.0006309 -0.0007107 0.0004728 -0.0001094 0.0004343 -0.0000144 0.0001293 -0.0004394 0.0020341 0.0000658 0.0002158 0.0002136 0.0005297 0.0010444 -0.0004800 0.0003423 0.0005263 0.0000997 0.0008194 -0.0010100 0.0047517 0.0006693 0.0002044 0.0004511 -0.0001916 -0.0005825 0.0048785 0.0000077 0.0003640 0.0006002 0.0037160 0.0001318 0.0006747 0.0000721 -0.0008567 0.0000809 -0.0000665 -0.0000413 -0.0001380 -0.0001450 -0.0003021 0.0000653 -0.0000677 -0.0000603 -0.0001665 -0.0004857 0.0006568 0.0000013 0.0006774 -0.0007074 0.0010123 -0.0010109 0.0014410 -0.0230036 0.0230445 0.0000019 0.0046888 -0.0032792 0.0092650 -0.0142512 0.0142192 0.0002523 -0.0000073 -0.0036435 0.0021017 0.0003007 -0.0001641 0.0000612 0.0001353 -0.0000376 0.0003022 0.0000381 0.0001499 -0.0000743 0.0001962 0.0031674 -0.0023625 0.0009798 -0.0005378 -0.0007057 0.0019196 -0.0008382 0.0000011 -0.0000025 0.0005716 -0.0009588 0.0008370 -0.0001746 0.0006444 -0.0001433 0.0007383 -0.0000257 0.0003968 -0.0002198 0.0007287 -0.0005994 -0.0022745 -0.0001893 0.0000116 0.0010007 -0.0002645 0.0011799 -0.0003502 -0.0007359 0.0002309 -0.0000434 0.0003014 -0.0009260 0.0013605 -0.0003309 0.0001025 -0.0087736 0.0110719 0.0005993 -0.0001092 0.0003086 0.0000332 -0.0006801 0.0006145 -0.0013216 0.0055753 -0.0012400 0.0006513 0.0000164 0.0002281 0.0002510 0.0001075 -0.0089246 0.0224068 -0.0000559 0.0014075 0.0004937 0.0000763 0.0000496 0.0002104 0.0000724 0.0003032 -0.0000359 0.0002050 -0.0000650 0.0002848 0.0000673 0.0007527
0.0001257 -0.0001240 0.0002786 -0.0001164 0.0001555 0.0000273 0.0000206 0.0000738 0.0000359 0.0000088 0.0000670 0.0001129 0.0002161 -0.0000129 0.0000232 -0.0000712 0.0001130 0.0001210 0.0000533 0.0001535 0.0001351 0.0001563 -0.0000620 0.0002392 0.0000244 0.0005115 -0.0000288 0.0001097 -0.0000311 0.0001648 -0.0000115 0.0004402 -0.0001003 0.0002203 0.0000379 0.0002042 0.0000080 0.0002351 -0.0018324 0.0018543 -0.0001155 0.0003208 -0.0000058 0.0002044 0.0000747 0.0000652 0.0000451 0.0002431 0.0001836 -0.0003189 -0.0000169 0.0000837 -0.0000099 0.0000377 0.0000073 0.0000723 -0.0002883 -0.0003947 0.0000335 0.0001970 -0.0001545 -0.0002910 -0.0001147 0.0006522 -0.0001608 0.0004148 -0.0003607 0.0001510 -0.0001841 0.0009761 0.0001262 -0.0000713 -0.0000859 -0.0005982 -0.0002528 0.0003772 -0.0000728 0.0004733 0.0000460 0.0000456 0.0004724 0.0014137 0.0000044 0.0003047 0.0002135 0.0005940 0.0001025 0.0005498 0.0003100 0.0004628 0.0000224 0.0009497 -0.0010537 0.0040923 0.0002512 0.0003575 0.0002514 0.0001778 -0.0000139 0.0045999 -0.0000986 0.0004585 0.0026259 -0.0040917 0.0002465 0.0006390 -0.0000777 -0.0005777 0.0000886 -0.0000274 0.0000236 -0.0000802 -0.0001475 -0.0002716 0.0000162 0.0000678 -0.0000744 -0.0000686 -0.0003548 0.0005782 -0.0001098 0.0007441 -0.0004470 0.0010638 -0.0010686 0.0010039 -0.0027719 -0.0023275 0.0009031 0.0093744 0.0057639 -0.0007002 -0.0004815 0.0045136 0.0000767 0.0001801 0.0022114 -0.0017406 0.0006227 -0.0002150 0.0000659 0.0001887 0.0000751 0.0002392 -0.0005124 0.0010586 -0.0001858 0.0004958 0.0005365 0.0003470 -0.0009032 0.0015938 -0.0054940 0.0066893 -0.0011351 0.0000210 0.0001654 0.0004632 -0.0001818 0.0004599 0.0001433 0.0003417 0.0007910 -0.0004076 -0.0000022 0.0003997 -0.0001772 0.0007141 -0.0002801 0.0002381 0.0000734 0.0001249 0.0004171 0.0002529 0.0016672 -0.0002787 0.0002642 -0.0004188 -0.0000406 0.0003706 -0.0005803 0.0011782 -0.0002039 0.0003153 -0.0212918 0.0201896 0.0006515 -0.0000207 0.0003602 -0.0000146 -0.0004265 0.0006346 0.0005739 -0.0014747 -0.0004264 0.0002077 -0.0000494 0.0002943 0.0003649 0.0003003 -0.0008688 0.0101882 0.0015630 -0.0003546 0.0010095 -0.0005772 0.0000232 0.0002545 0.0000020 0.0003428 -0.0000172 0.0003323 -0.0000932 0.0003713 -0.0006950 0.0011454
0.0001218 -0.0000999 0.0002810 -0.0000866 0.0001569 0.0000740 0.0000154 0.0001107 0.0000292 0.0000493 0.0000912 0.0000679 0.0002137 -0.0000083 0.0000308 -0.0000603 0.0001105 0.0000806 0.0000370 0.0001549 0.0001080 0.0001752 -0.0000832 0.0002377 0.0000152 0.0004831 -0.0000358 0.0000702 -0.0000417 0.0001587 -0.0000063 0.0004011 -0.0001151 0.0001698 0.0000412 0.0001920 0.0000269 0.0002053 -0.0013546 0.0013219 -0.0001269 0.0002969 0.0000522 0.0001519 -0.0000125 0.0001850 0.0000578 0.0001996 0.0001656 -0.0002197 0.0000088 0.0000121 -0.0000073 0.0000044 0.0000150 0.0000086 -0.0002982 -0.0004595 0.0000708 0.0000669 -0.0001467 -0.0003271 -0.0000093 0.0004948 -0.0001964 0.0003944 -0.0002363 -0.0000211 0.0001869 0.0004835 0.0001945 -0.0001924 0.0000800 -0.0007581 -0.0007435 0.0006235 0.0000707 0.0001644 0.0001085 -0.0002117 0.0002970 0.0010906 0.0000883 0.0000844 0.0002491 0.0005021 -0.0004788 0.0011999 0.0003782 0.0001152 0.0000280 0.0008129 -0.0027342 0.0047755 0.0005378 -0.0007397 -0.0003845 0.0005214 -0.0030467 0.0030623 0.0003761 -0.0000889 0.0017137 -0.0059831 0.0000536 0.0006957 -0.0004038 -0.0002200 0.0000870 0.0000045 -0.0001104 -0.0000153 -0.0001495 -0.0002982 -0.0000970 0.0002980 -0.0000809 -0.0000661 -0.0003678 0.0006052 0.0000864 0.0006055 -0.0003392 0.0006381 -0.0006424 0.0004505 0.0074673 -0.0114091 0.0116298 -0.0266378 0.0100767 -0.0187818 0.0051595 -0.0036098 0.0000984 0.0000936 0.0017238 -0.0018625 0.0004240 0.0005503 0.0000872 0.0001840 0.0000224 0.0002983 -0.0004862 0.0013805 -0.0001552 0.0003782 0.0015146 -0.0006587 -0.0031517 0.0028667 -0.0016273 0.0017842 0.0017664 -0.0014816 0.0002585 0.0003690 0.0005037 0.0000671 0.0000376 0.0003125 0.0007438 -0.0002379 0.0000242 0.0003715 0.0001530 0.0003146 0.0010602 0.0027784 -0.0001162 0.0007739 0.0006840 -0.0004754 0.0023765 -0.0008371 0.0004491 0.0001866 0.0000350 0.0002739 -0.0000593 0.0002964 0.0002913 -0.0002006 -0.0214668 0.0112876 0.0004451 -0.0000379 0.0000349 0.0003197 -0.0002175 0.0006733 0.0027121 -0.0012551 0.0001744 -0.0000553 -0.0000462 0.0002868 0.0013075 -0.0002021 0.0160644 -0.0385174 0.0005572 -0.0000269 0.0009529 -0.0009051 0.0000533 0.0002519 -0.0000172 0.0003527 -0.0000555 0.0004851 -0.0000981 0.0004350 -0.0009140 0.0010949
