-0.0000000 -0.0000000 -0.0000000 -0.0000000 -0.0000000 -0.0000000 -0.0000000 -0.0000000 -0.0000000 -0.0000000 -0.0000000 -0.0000000 -0.0000000 -0.0000000 -0.0000000 -0.0000000 -0.0000000 -0.0000000 -0.0000000 -0.0000000 -0.0000000 -0.0000000 -0.0000000 -0.0000000 -0.0000000 -0.0000000 -0.0000000 -0.0000000 -0.0000000 -0.0000000 -0.0000000 -0.0000000 -0.0000000 -0.0000000 -0.0000000 -0.0000000 -0.0000000 -0.0000000 -0.0000000 -0.0000000 -0.0000000 -0.0000000 -0.0000000 -0.0000000 -0.0000000 -0.0000000 -0.0000000 -0.0000000 -0.0000000 -0.0000000 -0.0000000 -0.0000000 -0.0000000 -0.0000000 -0.0000000 -0.0000000 -0.0000000 -0.0000000 -0.0000000 -0.0000000 -0.0000000 -0.0000000 -0.0000000 -0.0000000 -0.0000000 -0.0000000 -0.0000000 -0.0000000 -0.0000000 -0.0000000 -0.0000000 -0.0000000 -0.0000000 -0.0000000 -0.0000000 -0.0000000 -0.0000000 -0.0000000 -0.0000000 -0.0000000 -0.0000000 -0.0000000 -0.0000000 -0.0000000 -0.0000000 -0.0000000 -0.0000000 -0.0000000 -0.0000000 -0.0000000 -0.0000000 -0.0000000 -0.0000000 -0.0000000 -0.0000000 -0.0000000 -0.0000000 -0.0000000 -0.0000000 -0.0000000 -0.0000000 -0.0000000 -0.0000000 -0.0000000 -0.0000000 -0.0000000 -0.0000000 -0.0000000 -0.0000000 -0.0000000 -0.0000000 -0.0000000 -0.0000000 -0.0000000 -0.0000000 -0.0000000 -0.0000000 -0.0000000 -0.0000000 -0.0000000 -0.0000000 -0.0000000 -0.0000000 -0.0000000 -0.0000000 -0.0000000 -0.0000000 -0.0000000 -0.0000000 -0.0000000 -0.0000000 -0.0000000 -0.0000000 -0.0000000 -0.0000000 -0.0000000 -0.0000000 -0.0000000 -0.0000000 -0.0000000 -0.0000000 -0.0000000 -0.0000000 -0.0000000 -0.0000000 -0.0000000 -0.0000000 -0.0000000 -0.0000000 -0.0000000 -0.0000000 -0.0000000 -0.0000000 -0.0000000 -0.0000000 -0.0000000 -0.0000000 -0.0000000 -0.0000000 -0.0000000 -0.0000000 -0.0000000 -0.0000000 -0.0000000 -0.0000000 -0.0000000 -0.0000000 -0.0000000 -0.0000000 -0.0000000 -0.0000000 -0.0000000 -0.0000000 -0.0000000 -0.0000000 -0.0000000 -0.0000000 -0.0000000 -0.0000000 -0.0000000 -0.0000000 -0.0000000 -0.0000000 -0.0000000 -0.0000000 -0.0000000 -0.0000000 -0.0000000 -0.0000000 -0.0000000 -0.0000000 -0.0000000 -0.0000000 -0.0000000 -0.0000000 -0.0000000 -0.0000000 -0.0000000 -0.0000000 -0.0000000 -0.0000000 -0.0000000 -0.0000000 -0.0000000 -0.0000000 -0.0000000 -0.0000000 -0.0000000 -0.0000000 -0.0000000 -0.0000000 -0.0000000 -0.0000000 -0.0000000 -0.0000000 -0.0000000
-0.0000000 -0.0000000 -0.0000000 -0.0000000 -0.0000000 -0.0000000 -0.0000000 -0.0000000 -0.0000000 -0.0000000 -0.0000000 -0.0000000 -0.0000000 -0.0000000 -0.0000000 -0.0000000 -0.0000000 -0.0000000 -0.0000000 -0.0000000 -0.0000000 -0.0000000 -0.0000000 -0.0000000 -0.0000000 -0.0000000 -0.0000000 -0.0000000 -0.0000000 -0.0000000 -0.0000000 -0.0000000 -0.0000000 -0.0000000 -0.0000000 -0.0000000 -0.0000000 -0.0000000 -0.0000000 -0.0000000 -0.0000000 -0.0000000 -0.0000000 -0.0000000 -0.0000000 -0.0000000 -0.0000000 -0.0000000 -0.0000000 -0.0000000 -0.0000000 -0.0000000 -0.0000000 -0.0000000 -0.0000000 -0.0000000 -0.0000000 -0.0000000 -0.0000000 -0.0000000 -0.0000000 -0.0000000 -0.0000000 -0.0000000 -0.0000000 -0.0000000 -0.0000000 -0.0000000 -0.0000000 -0.0000000 -0.0000000 -0.0000000 -0.0000000 -0.0000000 -0.0000000 -0.0000000 -0.0000000 -0.0000000 -0.0000000 -0.0000000 -0.0000000 -0.0000000 -0.0000000 -0.0000000 -0.0000000 -0.0000000 -0.0000000 -0.0000000 -0.0000000 -0.0000000 -0.0000000 -0.0000000 -0.0000000 -0.0000000 -0.0000000 -0.0000000 -0.0000000 -0.0000000 -0.0000000 -0.0000000 -0.0000000 -0.0000000 -0.0000000 -0.0000000 -0.0000000 -0.0000000 -0.0000000 -0.0000000 -0.0000000 -0.0000000 -0.0000000 -0.0000000 -0.0000000 -0.0000000 -0.0000000 -0.0000000 -0.0000000 -0.0000000 -0.0000000 -0.0000000 -0.0000000 -0.0000000 -0.0000000 -0.0000000 -0.0000000 -0.0000000 -0.0000000 -0.0000000 -0.0000000 -0.0000000 -0.0000000 -0.0000000 -0.0000000 -0.0000000 -0.0000000 -0.0000000 -0.0000000 -0.0000000 -0.0000000 -0.0000000 -0.0000000 -0.0000000 -0.0000000 -0.0000000 -0.0000000 -0.0000000 -0.0000000 -0.0000000 -0.0000000 -0.0000000 -0.0000000 -0.0000000 -0.0000000 -0.0000000 -0.0000000 -0.0000000 -0.0000000 -0.0000000 -0.0000000 -0.0000000 -0.0000000 -0.0000000 -0.0000000 -0.0000000 -0.0000000 -0.0000000 -0.0000000 -0.0000000 -0.0000000 -0.0000000 -0.0000000 -0.0000000 -0.0000000 -0.0000000 -0.0000000 -0.0000000 -0.0000000 -0.0000000 -0.0000000 -0.0000000 -0.0000000 -0.0000000 -0.0000000 -0.0000000 -0.0000000 -0.0000000 -0.0000000 -0.0000000 -0.0000000 -0.0000000 -0.0000000 -0.0000000 -0.0000000 -0.0000000 -0.0000000 -0.0000000 -0.0000000 -0.0000000 -0.0000000 -0.0000000 -0.0000000 -0.0000000 -0.0000000 -0.0000000 -0.0000000 -0.0000000 -0.0000000 -0.0000000 -0.0000000 -0.0000000 -0.0000000 -0.0000000 -0.0000000 -0.0000000 -0.0000000 -0.0000000
-0.0000051 -0.0000665 -0.0000047 -0.0000870 0.0000044 -0.0000919 -0.0000028 -0.0000289 0.0000022 -0.0000294 -0.0000084 -0.0000763 0.0000309 -0.0001011 0.0000112 -0.0000863 0.0000031 -0.0000949 0.0000029 -0.0000438 -0.0000815 -0.0000193 -0.0000301 -0.0000348 0.0000077 0.0000169 -0.0000061 -0.0000475 -0.0000106 -0.0000420 0.0000027 -0.0001073 0.0000125 -0.0001304 0.0000755 -0.0000840 0.0000084 -0.0000943 0.0001295 0.0000956 0.0000105 -0.0000907 -0.0000107 -0.0000641 -0.0000782 -0.0002673 0.0000059 -0.0000667 0.0001691 -0.0002832 0.0000104 -0.0000301 0.0000027 -0.0000082 0.0000015 -0.0000315 0.0000078 -0.0000102 0.0000130 -0.0000715 0.0000330 -0.0000790 0.0000703 -0.0002669 -0.0000296 -0.0000275 -0.0000077 -0.0001873 0.0001105 -0.0001512 0.0002173 -0.0000671 -0.0053313 0.0050519 -0.0052986 -0.0008593 -0.0000064 -0.0000971 -0.0000975 0.0001204 0.0005431 -0.0003458 -0.0002619 -0.0001702 -0.0000012 0.0000677 -0.0008233 0.0000860 0.0005444 -0.0002979 -0.0000995 0.0001439 0.0075811 -0.0100018 -0.0020471 0.0024273 0.0001339 -0.0001587 0.0003824 -0.0001332 -0.0004320 0.0002553 -0.0000845 0.0000916 -0.0000507 0.0000238 0.0027093 0.0013598 -0.0073121 0.0142560 -0.0002225 0.0002498 0.0000398 0.0000973 0.0004055 -0.0005055 0.0000240 0.0000303 0.0000584 0.0001040 0.0000218 0.0001454 0.0002621 -0.0003971 -0.0003074 -0.0000445 0.0001173 0.0003132 0.0000519 -0.0000433 0.0000596 -0.0000872 0.0010000 -0.0025285 0.0000572 -0.0000100 0.0001213 0.0006435 0.0002950 -0.0001919 0.0000240 -0.0000155 0.0001449 -0.0000892 0.0000091 0.0001575 0.0001939 -0.0001390 -0.0002938 -0.0002886 -0.0000212 0.0000284 -0.0000288 0.0000329 0.0005531 -0.0006536 0.0001004 -0.0000700 0.0001764 -0.0001615 0.0000090 0.0000059 0.0001825 -0.0007353 0.0000208 -0.0001347 -0.0001598 0.0001074 0.0000273 -0.0000247 -0.0000161 0.0000118 -0.0000702 0.0000303 0.0001578 -0.0001597 -0.0005433 0.0006137 0.0000237 -0.0000479 -0.0001564 0.0000005 -0.0002142 -0.0005520 -0.0011177 0.0025734 0.0002716 -0.0002545 0.0000272 -0.0001097 0.0000500 -0.0001084 -0.0012232 0.0000912 -0.0000308 0.0000430 -0.0000159 -0.0000791 -0.0002420 -0.0001352 0.0004413 -0.0044850 0.0000039 -0.0001059 0.0009034 -0.0003022 -0.0000105 -0.0000439 0.0001473 -0.0001104 0.0000447 -0.0001439 -0.0000105 -0.0000663 -0.0000473 -0.0000528
0.0000042 -0.0001231 -0.0000137 -0.0001262 -0.0000111 -0.0001360 -0.0000007 -0.0000395 0.0000047 -0.0000222 0.0000237 -0.0001717 0.0000399 -0.0001586 0.0000113 -0.0001157 -0.0000159 -0.0001086 0.0000036 -0.0000996 -0.0001400 0.0000240 -0.0000032 -0.0001073 0.0000355 0.0000143 -0.0000134 -0.0000517 -0.0000186 -0.0000547 -0.0000061 -0.0001311 -0.0000490 -0.0000796 0.0000858 -0.0002129 -0.0000053 -0.0001246 0.0003683 -0.0003394 0.0000089 -0.0001222 -0.0000534 -0.0000496 -0.0001752 -0.0000326 0.0000051 -0.0000809 0.0002167 -0.0002881 0.0000119 -0.0000113 0.0000034 0.0000137 0.0000100 -0.0000496 0.0000142 -0.0000110 0.0000361 -0.0001312 0.0000446 -0.0001062 -0.0003574 -0.0000201 -0.0000349 -0.0000675 -0.0000669 -0.0000894 0.0016139 -0.0011191 0.0001130 -0.0000487 -0.0040088 0.0004588 0.0025692 -0.0203440 0.0003432 -0.0005496 -0.0002193 0.0001403 0.0021955 -0.0012488 0.0003387 -0.0016897 -0.0000400 -0.0000569 -0.0041180 0.0033728 0.0002882 -0.0003695 -0.0001184 -0.0000900 0.0042038 -0.0046759 -0.0042178 0.0029806 -0.0001209 -0.0001428 -0.0002933 0.0005088 -0.0005578 0.0004507 -0.0001398 -0.0000476 -0.0000466 -0.0000031 -0.0019248 0.0028382 -0.0119762 0.0190440 -0.0004358 0.0004172 0.0004408 -0.0003004 0.0012754 -0.0018423 0.0000673 -0.0000440 0.0001145 0.0000190 -0.0000415 0.0001774 0.0010616 -0.0020919 0.0011479 -0.0006329 0.0018011 -0.0010706 -0.0000229 0.0000858 0.0000297 -0.0000340 -0.0027967 -0.0004882 0.0000123 0.0000630 -0.0005809 0.0016924 0.0000864 -0.0000205 0.0000189 0.0000409 0.0001006 -0.0001155 -0.0003177 0.0004971 0.0000644 0.0000634 -0.0006446 0.0008717 -0.0002443 0.0001619 -0.0001370 0.0001773 -0.0002800 0.0003995 0.0000627 -0.0000118 -0.0000066 0.0000749 0.0000612 0.0000279 0.0007721 -0.0010042 0.0001016 -0.0001218 -0.0000764 0.0001797 -0.0002662 0.0000888 0.0001217 -0.0000600 -0.0002625 0.0001070 0.0007193 -0.0005687 -0.0009115 0.0004585 -0.0000858 0.0001399 -0.0004577 0.0002585 0.0016629 -0.0022965 -0.0081181 0.0066484 0.0003074 -0.0000222 -0.0000223 0.0000048 -0.0000578 0.0000954 -0.0003680 0.0006921 0.0001496 -0.0003213 -0.0000153 -0.0000449 0.0000955 0.0003650 0.0020856 -0.0025279 -0.0000964 0.0000944 -0.0005124 0.0003502 -0.0000211 0.0000217 0.0000556 -0.0000533 -0.0000266 -0.0000816 -0.0000340 -0.0000845 -0.0000583 0.0000157
0.0000124 -0.0001163 -0.0000283 -0.0001153 0.0000015 -0.0001338 0.0000109 -0.0000398 0.0000002 0.0000006 0.0000488 -0.0002214 0.0000226 -0.0001806 0.0000032 -0.0001039 -0.0000211 -0.0001232 -0.0000101 -0.0001219 -0.0000891 0.0000055 0.0000076 -0.0001732 0.0000665 -0.0000747 -0.0000251 -0.0000476 -0.0000337 -0.0000621 -0.0000196 -0.0001123 -0.0000285 -0.0002359 0.0001584 -0.0003623 -0.0000067 -0.0001146 0.0000722 0.0000266 0.0000228 -0.0001832 -0.0000690 -0.0000668 -0.0001684 0.0001845 0.0000037 -0.0000670 0.0003497 -0.0005472 0.0000114 0.0000148 -0.0000038 0.0000557 0.0000230 -0.0000253 0.0000013 0.0000542 0.0000251 -0.0001308 0.0000381 -0.0000777 0.0001701 -0.0003717 0.0000673 -0.0002270 0.0000699 -0.0002373 0.0011585 -0.0012309 -0.0000183 0.0000396 -0.0069379 0.0036244 0.0061745 -0.0142900 0.0003793 -0.0002965 -0.0001506 -0.0000086 0.0019979 -0.0017813 -0.0002949 -0.0007645 -0.0000869 -0.0000910 0.0011834 -0.0016381 -0.0000437 -0.0003958 -0.0000531 -0.0001919 -0.0015926 0.0008288 -0.0025171 0.0031268 0.0000318 -0.0003446 0.0006350 -0.0009001 -0.0007485 0.0005167 -0.0000784 -0.0001204 0.0001145 -0.0002105 0.0006844 0.0000410 -0.0075198 0.0151139 -0.0004055 0.0002984 0.0006707 -0.0004857 0.0004589 -0.0004457 0.0000330 -0.0000717 0.0000412 -0.0001414 0.0001273 -0.0001120 0.0013184 -0.0020940 0.0027638 -0.0011327 0.0015972 -0.0013076 -0.0003213 0.0001847 -0.0000171 -0.0000512 -0.0007809 -0.0021206 -0.0000562 0.0000405 -0.0001783 -0.0010240 -0.0001835 0.0002210 -0.0000253 -0.0000840 0.0000051 -0.0001825 -0.0003094 0.0001550 0.0001158 -0.0001479 -0.0000607 0.0000560 0.0002379 -0.0003788 -0.0004251 0.0002942 -0.0009565 0.0015055 -0.0000583 0.0000131 0.0001234 -0.0001867 0.0000320 -0.0000221 0.0007270 -0.0007137 0.0000225 -0.0000516 -0.0000012 0.0000949 0.0000147 -0.0003960 0.0001438 -0.0001247 0.0000624 -0.0002344 0.0003163 -0.0003299 -0.0005263 0.0002633 -0.0000830 0.0001472 -0.0003575 0.0001937 -0.0010559 0.0016621 -0.0016432 -0.0015003 -0.0001628 0.0004098 -0.0000213 0.0001000 0.0000539 0.0000291 -0.0029130 0.0029405 -0.0000181 0.0000004 0.0000474 0.0000109 0.0000700 0.0004283 -0.0043051 0.0044145 0.0000089 0.0001476 -0.0014093 0.0014213 -0.0000151 0.0001099 -0.0001000 0.0001459 -0.0001406 0.0002704 -0.0000749 0.0002161 -0.0000809 0.0001828
-0.0000171 0.0001516 -0.0000135 0.0001137 0.0000128 0.0000826 0.0000154 0.0000638 0.0000001 0.0001435 0.0000752 -0.0000934 0.0000102 -0.0000645 -0.0000069 0.0000395 -0.0000041 -0.0000612 -0.0000172 0.0000326 -0.0000797 0.0001411 -0.0000209 0.0000202 0.0000788 -0.0000076 -0.0000353 0.0000313 -0.0000342 -0.0000198 -0.0000268 -0.0000472 -0.0000217 -0.0002036 0.0001074 -0.0002170 -0.0000054 -0.0000830 0.0005560 -0.0006860 0.0000181 -0.0001658 -0.0000120 -0.0001242 0.0000116 0.0000564 -0.0000006 -0.0000554 0.0001563 -0.0003365 0.0000129 0.0000511 -0.0000017 0.0000854 0.0000077 0.0000321 0.0000114 0.0000943 0.0000345 -0.0001389 0.0000244 -0.0000335 0.0004965 -0.0002680 0.0000786 -0.0002190 0.0001479 -0.0004871 0.0007313 -0.0002221 -0.0004063 0.0004749 -0.0029608 0.0037362 0.0057001 -0.0012670 -0.0000203 -0.0000164 -0.0000087 -0.0002475 0.0017142 -0.0010707 0.0001743 -0.0011271 -0.0000794 -0.0000816 0.0023069 -0.0026446 -0.0001667 -0.0003465 -0.0000265 -0.0001632 -0.0014935 0.0020054 -0.0021512 0.0051410 0.0001710 -0.0003983 0.0013980 -0.0014466 -0.0005652 0.0003445 -0.0000074 -0.0001059 0.0000836 -0.0002529 -0.0002084 -0.0039094 -0.0023604 0.0017244 -0.0003252 -0.0000488 0.0003805 -0.0001132 0.0003175 -0.0002118 0.0000107 -0.0000613 -0.0004019 0.0000959 -0.0000484 -0.0000104 0.0009191 -0.0013685 0.0027185 -0.0019620 0.0013811 -0.0006108 0.0000207 -0.0001379 -0.0000140 -0.0000085 -0.0061407 0.0038919 -0.0000235 0.0000027 0.0003032 -0.0028996 -0.0003910 0.0003665 -0.0000311 -0.0001401 0.0002288 -0.0004043 -0.0000979 -0.0002769 -0.0001195 -0.0000270 0.0000702 -0.0001992 0.0006365 -0.0006699 -0.0003330 0.0000652 -0.0001615 0.0000818 -0.0001120 -0.0000034 0.0001337 -0.0001907 -0.0000084 -0.0000179 0.0009935 -0.0014330 -0.0002600 0.0000244 0.0001233 -0.0001250 -0.0001941 -0.0000068 0.0000166 -0.0000951 0.0004874 -0.0006666 -0.0004461 0.0002286 -0.0002119 -0.0000959 0.0000044 -0.0000094 -0.0000179 -0.0002948 0.0004478 0.0001955 0.0033190 -0.0032500 -0.0003995 0.0002574 -0.0000293 0.0000472 0.0001012 -0.0002894 -0.0015538 0.0018386 0.0001434 -0.0002798 0.0000208 -0.0000774 -0.0010795 0.0004896 -0.0116165 0.0099480 0.0000229 0.0001100 -0.0005011 0.0008950 -0.0000256 0.0001093 -0.0001656 0.0001801 -0.0000716 0.0002341 -0.0000571 0.0003356 -0.0001241 0.0003426
-0.0000181 0.0002612 -0.0000125 0.0002153 -0.0000100 0.0002042 0.0000087 0.0001553 0.0000019 0.0002480 0.0000553 0.0000502 0.0000083 -0.0000006 -0.0000071 0.0001298 0.0000002 0.0000324 0.0000246 0.0001247 0.0000654 0.0001405 -0.0000003 0.0002019 -0.0000507 0.0002236 -0.0000393 0.0001516 -0.0000538 0.0001261 -0.0000302 0.0001165 -0.0000603 0.0000049 0.0000037 0.0000959 -0.0000063 0.0000509 0.0003272 -0.0006759 -0.0000289 0.0000809 -0.0000610 0.0000490 0.0002509 -0.0001251 -0.0000073 0.0000325 -0.0001424 0.0001006 0.0000347 0.0001126 -0.0000075 0.0001515 0.0000362 0.0001455 0.0000031 0.0001854 0.0000357 -0.0000038 0.0000302 0.0001015 0.0001693 -0.0000350 0.0000546 -0.0000194 0.0001401 -0.0003862 0.0004866 0.0011457 -0.0002733 0.0003976 -0.0023357 -0.0004145 0.0051293 0.0006735 0.0001479 -0.0004081 -0.0000198 -0.0001123 -0.0020340 0.0006873 0.0003381 0.0000566 -0.0000579 -0.0000768 0.0000394 -0.0001390 -0.0005674 0.0000521 0.0000027 -0.0001899 -0.0041509 0.0054371 0.0073030 -0.0073360 0.0002703 -0.0003870 0.0013328 -0.0006201 -0.0013130 0.0008274 0.0000194 -0.0000785 -0.0000772 -0.0000243 0.0004248 -0.0043645 -0.0110867 0.0121363 0.0001832 -0.0003482 -0.0001730 0.0003578 0.0006505 -0.0001975 0.0000558 -0.0001102 -0.0001809 -0.0000623 -0.0000164 -0.0000038 0.0004031 -0.0013852 0.0015752 -0.0030309 0.0008473 0.0001809 0.0001202 -0.0001415 -0.0000679 -0.0000129 -0.0092037 0.0084479 -0.0000050 -0.0000889 -0.0004669 -0.0025453 -0.0002878 -0.0000603 0.0000720 -0.0002176 0.0001386 -0.0003208 0.0000682 -0.0004950 -0.0001346 -0.0000744 0.0015917 -0.0008797 0.0002606 -0.0003306 0.0001255 -0.0002426 0.0001934 -0.0004118 -0.0000461 -0.0001127 0.0001819 -0.0002970 -0.0000587 -0.0000114 0.0002649 -0.0013179 -0.0000175 -0.0002614 0.0001721 -0.0002652 -0.0003722 0.0003777 -0.0000957 -0.0000367 0.0002282 -0.0005737 0.0003099 -0.0003658 0.0008685 -0.0007888 -0.0000401 0.0000215 -0.0000711 -0.0004283 0.0014013 -0.0010747 0.0033945 -0.0007069 -0.0001095 -0.0000659 -0.0000267 0.0000541 -0.0000118 -0.0000863 0.0006172 -0.0011432 0.0003635 -0.0006974 -0.0000202 -0.0000747 -0.0005842 0.0000663 -0.0168249 0.0194036 0.0001050 0.0000574 -0.0010974 0.0006300 -0.0000389 0.0001220 -0.0001798 0.0001731 0.0000573 -0.0000462 -0.0000489 0.0000654 0.0000493 0.0001256
0.0000121 0.0000397 0.0000050 -0.0000291 -0.0000195 0.0000103 0.0000096 0.0001068 0.0000023 0.0001534 0.0000490 -0.0000752 0.0000089 -0.0001252 0.0000030 -0.0000047 -0.0000084 -0.0000314 0.0000150 0.0000124 0.0001278 -0.0000610 0.0000220 0.0000373 -0.0001084 0.0001903 -0.0000359 0.0001199 -0.0000645 0.0000907 -0.0000267 0.0001368 0.0000418 -0.0001403 0.0000055 0.0000236 -0.0000200 0.0000840 -0.0006762 -0.0001197 -0.0000263 0.0001283 -0.0000894 0.0000926 0.0002841 -0.0000151 0.0000004 0.0000465 -0.0002851 0.0002536 0.0000307 0.0001555 -0.0000170 0.0001856 0.0000274 0.0002603 0.0000003 0.0002873 0.0000445 0.0001062 0.0000176 0.0002682 -0.0004265 0.0001889 0.0000987 0.0000286 -0.0000470 -0.0001004 0.0006031 0.0006217 -0.0004985 0.0006522 -0.0110668 0.0013524 0.0080369 -0.0136408 0.0000992 -0.0003131 0.0000158 0.0000088 0.0026848 -0.0035184 -0.0004582 0.0012518 -0.0000614 0.0001120 -0.0006705 0.0024148 -0.0008787 0.0006071 -0.0000744 0.0000272 0.0017155 -0.0030792 0.0003235 0.0026798 0.0001380 -0.0001872 0.0004817 0.0001220 -0.0018005 0.0010619 0.0000681 -0.0000771 0.0000431 0.0000389 -0.0014723 0.0070789 -0.0072862 0.0082247 0.0007016 -0.0005940 -0.0001505 0.0002741 -0.0010256 0.0015534 0.0000298 -0.0000158 0.0001975 -0.0002683 0.0001807 0.0000097 0.0001914 -0.0009944 -0.0011505 0.0006538 -0.0001857 0.0008887 0.0000435 -0.0000235 -0.0001487 0.0000570 -0.0068456 0.0088829 0.0000358 -0.0002233 -0.0007712 0.0005293 -0.0002175 -0.0005364 0.0001313 -0.0003430 -0.0001289 -0.0000647 -0.0001431 -0.0003429 0.0001172 -0.0002240 0.0010759 -0.0006579 0.0005025 -0.0009725 0.0001229 -0.0003003 0.0002552 -0.0006846 0.0000157 -0.0001577 0.0004950 -0.0005436 -0.0000997 -0.0000411 -0.0009843 0.0000094 0.0002028 -0.0004536 0.0000922 -0.0002563 -0.0003212 0.0004211 -0.0001089 -0.0000751 -0.0000572 -0.0003499 0.0004068 -0.0003944 0.0009569 -0.0006573 -0.0000194 -0.0000803 -0.0000643 -0.0003874 -0.0002539 0.0000478 0.0036892 0.0007078 0.0004299 -0.0005072 0.0000272 -0.0000342 -0.0000524 -0.0001164 -0.0044993 0.0032809 0.0001876 -0.0004696 -0.0000650 -0.0000991 0.0001592 -0.0000327 -0.0200795 0.0209769 0.0000899 0.0000378 -0.0010625 0.0002490 -0.0000236 0.0000738 -0.0000911 0.0001598 0.0000466 -0.0000860 -0.0000590 -0.0000918 0.0002041 -0.0002202
0.0000118 -0.0001079 0.0000103 -0.0001988 -0.0000166 -0.0001650 0.0000069 0.0000491 0.0000034 0.0000653 0.0001117 -0.0002862 0.0000110 -0.0002139 0.0000036 -0.0001434 -0.0000269 -0.0001378 -0.0000293 -0.0000715 -0.0000535 -0.0000469 -0.0000345 -0.0000909 0.0000661 -0.0000815 -0.0000360 -0.0000262 -0.0000362 -0.0000786 -0.0000320 -0.0000246 0.0000709 -0.0002933 -0.0002308 0.0000866 -0.0000205 -0.0000975 -0.0003422 -0.0000392 -0.0000102 -0.0000690 0.0000163 -0.0001323 0.0002430 -0.0001793 0.0000193 -0.0000992 0.0002020 -0.0003332 0.0000228 0.0001007 -0.0000148 0.0001208 0.0000251 0.0001654 0.0000090 0.0002202 0.0000375 0.0000043 0.0000305 0.0001666 -0.0002463 -0.0002684 0.0001372 -0.0001975 0.0000090 -0.0002559 0.0021039 -0.0014297 -0.0002636 0.0006353 -0.0025508 -0.0048582 -0.0134548 -0.0058425 0.0001508 -0.0000716 -0.0000955 0.0001953 -0.0004523 0.0026124 -0.0011713 0.0011189 -0.0000681 0.0001705 -0.0019625 0.0033216 -0.0008985 0.0005906 -0.0000520 -0.0000174 0.0047338 -0.0044972 -0.0087206 0.0091838 0.0000487 -0.0001168 0.0006570 -0.0003949 -0.0002349 0.0000664 0.0000955 -0.0001944 -0.0000013 0.0000363 0.0061941 -0.0044966 -0.0026701 0.0067083 0.0000387 0.0000342 0.0001414 -0.0000016 -0.0008717 0.0011336 -0.0000473 0.0001379 -0.0000916 0.0001425 0.0001199 0.0001117 -0.0002541 -0.0003707 -0.0029121 0.0042450 -0.0002449 0.0008207 -0.0000654 0.0000734 -0.0000124 -0.0001042 0.0001417 0.0060824 0.0000394 -0.0000735 0.0017488 0.0006883 -0.0003719 -0.0000964 0.0001403 -0.0002966 0.0001229 -0.0003589 0.0001674 -0.0002632 0.0001190 -0.0000890 -0.0006496 0.0010026 0.0007193 -0.0008864 -0.0000488 -0.0001543 0.0001510 -0.0009896 0.0000538 -0.0000635 0.0001702 -0.0001371 -0.0001444 0.0001567 -0.0009730 0.0008784 0.0000131 -0.0002456 -0.0000884 -0.0000142 -0.0003563 0.0001802 -0.0000223 -0.0001151 -0.0001061 -0.0003107 -0.0000089 -0.0001196 -0.0003932 -0.0000529 0.0000467 -0.0002192 0.0000920 -0.0004706 -0.0005227 -0.0000327 0.0052551 -0.0001570 0.0002710 -0.0003148 0.0000153 -0.0000258 -0.0002303 -0.0001403 0.0007065 0.0005081 0.0001332 -0.0002268 -0.0000066 -0.0002189 -0.0002191 0.0007023 0.0011448 -0.0194989 -0.0001405 0.0000760 -0.0002188 0.0000711 0.0000041 -0.0000017 0.0000727 -0.0000990 -0.0000704 -0.0000643 -0.0000141 -0.0002613 0.0001189 -0.0001714
-0.0000046 -0.0002416 -0.0000146 -0.0003055 -0.0000112 -0.0002890 0.0000092 -0.0000398 0.0000012 -0.0000280 0.0001288 -0.0004300 0.0000219 -0.0002987 0.0000034 -0.0002756 -0.0000377 -0.0002496 0.0000001 -0.0001685 -0.0001850 -0.0000199 -0.0000189 -0.0002203 0.0000558 -0.0001794 -0.0000400 -0.0001592 0.0000042 -0.0002458 -0.0000319 -0.0001621 0.0000013 -0.0003299 -0.0002660 -0.0001269 -0.0000040 -0.0002755 -0.0003282 0.0005594 0.0000224 -0.0002123 -0.0000048 -0.0002354 0.0000560 -0.0001909 0.0000383 -0.0002307 0.0003589 -0.0005716 0.0000164 0.0000421 -0.0000171 0.0000624 0.0000418 0.0000565 -0.0000102 0.0001667 0.0000205 -0.0000884 0.0000273 0.0000416 0.0005466 -0.0011337 0.0000599 -0.0003116 -0.0000330 -0.0003934 0.0020803 -0.0012740 0.0003656 0.0000135 0.0083052 -0.0093269 -0.0025548 -0.0034949 0.0002322 -0.0004312 -0.0002223 0.0000229 -0.0012156 0.0045603 0.0001027 -0.0000126 -0.0000219 -0.0001053 0.0005646 -0.0013588 -0.0008205 0.0002290 -0.0001056 -0.0001638 -0.0014033 0.0004974 -0.0028882 0.0022030 -0.0000764 -0.0002076 0.0016419 -0.0011928 0.0012049 -0.0010468 -0.0000084 -0.0002998 -0.0001169 -0.0000977 0.0044039 -0.0049975 -0.0024989 0.0062821 -0.0001101 0.0002247 0.0001880 -0.0001554 0.0000466 -0.0003262 -0.0000263 0.0000474 -0.0002204 0.0000603 -0.0000019 0.0002208 -0.0013332 0.0007987 -0.0054815 0.0061220 0.0000264 -0.0002085 -0.0000918 0.0000623 -0.0000074 -0.0001331 0.0015070 -0.0052140 -0.0000356 -0.0000478 0.0024558 -0.0017385 0.0001663 -0.0006131 0.0000223 -0.0001165 0.0000483 -0.0001559 0.0000671 -0.0000842 -0.0002062 0.0001006 -0.0004981 0.0011737 0.0003408 -0.0001119 -0.0002600 0.0000140 -0.0000485 -0.0008193 0.0000328 -0.0000331 -0.0000126 0.0000531 -0.0000602 0.0001488 0.0007159 -0.0003140 -0.0001463 0.0000084 -0.0001681 0.0001058 0.0000005 -0.0002566 0.0000514 -0.0001806 -0.0001391 -0.0002599 0.0000706 -0.0005484 -0.0005880 -0.0000540 0.0001167 -0.0001971 -0.0000499 -0.0001568 0.0001077 -0.0010942 0.0004985 -0.0030318 -0.0004161 0.0001940 0.0000369 0.0000668 -0.0001116 -0.0002509 0.0001565 0.0016852 -0.0001412 0.0001749 0.0000231 -0.0001262 -0.0008014 0.0003186 -0.0051269 0.0027046 -0.0001188 0.0000642 0.0004087 0.0003205 -0.0000033 0.0000614 0.0001856 -0.0001864 -0.0000110 -0.0001375 -0.0000052 -0.0002027 -0.0000531 0.0000801
0.0000148 -0.0002881 -0.0000135 -0.0003184 -0.0000058 -0.0003047 0.0000087 -0.0001040 0.0000041 -0.0001194 0.0000925 -0.0004970 0.0000121 -0.0003838 0.0000204 -0.0003969 -0.0000134 -0.0003533 0.0000327 -0.0002579 -0.0001631 -0.0001164 0.0000805 -0.0003869 -0.0001012 -0.0000733 -0.0000352 -0.0003156 -0.0000165 -0.0003576 -0.0000305 -0.0002811 -0.0000519 -0.0003941 0.0000050 -0.0005490 0.0000241 -0.0004458 -0.0014467 0.0006858 0.0000424 -0.0003340 0.0000366 -0.0003488 -0.0001910 -0.0001560 0.0000742 -0.0003903 0.0000959 -0.0003649 -0.0000079 0.0000220 -0.0000166 0.0000030 0.0000397 -0.0000073 -0.0000079 0.0001379 0.0000193 -0.0001707 0.0000087 -0.0000196 0.0004481 -0.0005875 -0.0000207 -0.0003143 -0.0000275 -0.0005608 0.0010283 -0.0011160 0.0001920 0.0001951 0.0115998 -0.0143744 0.0011273 -0.0072558 -0.0002702 -0.0002996 -0.0001074 -0.0003137 0.0000156 0.0012398 0.0008530 -0.0004636 0.0000217 -0.0002740 0.0033642 -0.0030397 -0.0006746 0.0000749 -0.0001970 -0.0002572 0.0066079 -0.0064959 0.0009031 0.0026729 -0.0002215 -0.0002215 0.0011586 -0.0007864 0.0008462 -0.0009003 -0.0001734 -0.0002269 -0.0001393 -0.0000863 -0.0068258 0.0073054 -0.0053264 0.0056053 0.0000315 -0.0000480 -0.0000922 0.0000968 0.0003236 -0.0005872 0.0000284 -0.0001207 -0.0002886 -0.0001237 0.0000600 0.0001673 -0.0020987 0.0017133 -0.0031877 0.0035596 -0.0008445 0.0005991 0.0000858 -0.0002608 0.0001737 -0.0003634 -0.0036008 -0.0057271 -0.0000033 -0.0003738 0.0001297 -0.0019061 -0.0001406 -0.0001749 0.0000898 -0.0003312 -0.0002903 0.0000336 -0.0002246 -0.0001646 0.0000943 -0.0003413 0.0002433 -0.0003881 0.0006822 -0.0007345 -0.0002568 -0.0001693 -0.0000846 -0.0007993 -0.0000457 -0.0001026 -0.0002253 0.0000345 -0.0000409 -0.0000998 0.0003725 -0.0001490 -0.0002236 -0.0000260 -0.0000659 -0.0002036 0.0002986 -0.0005604 -0.0000140 -0.0002687 -0.0003381 -0.0002259 -0.0000808 -0.0004348 -0.0000739 0.0000036 0.0000415 -0.0002197 -0.0001242 -0.0001198 0.0031472 -0.0037468 -0.0011222 -0.0103184 0.0001757 -0.0003147 0.0000373 0.0000970 0.0002718 -0.0006575 -0.0042002 0.0048827 0.0000607 -0.0003947 0.0000170 -0.0000997 -0.0012418 0.0007383 -0.0068289 0.0032082 0.0000159 0.0000202 0.0003164 0.0006148 -0.0000327 0.0001447 0.0000218 0.0000987 0.0000208 -0.0000752 -0.0000449 0.0000982 -0.0000004 0.0000333
0.0000053 -0.0000905 0.0000153 -0.0001597 0.0000354 -0.0001697 0.0000114 -0.0000825 0.0000117 -0.0000827 0.0001380 -0.0004546 0.0000103 -0.0003319 0.0000251 -0.0003495 0.0000310 -0.0003743 0.0000361 -0.0001450 -0.0000558 -0.0000717 0.0001401 -0.0002559 -0.0000656 0.0000810 -0.0000379 -0.0003407 -0.0000319 -0.0003938 -0.0000227 -0.0003761 0.0000216 -0.0004746 0.0000442 -0.0003984 0.0000536 -0.0005099 -0.0004584 -0.0000411 0.0000183 -0.0002685 0.0000057 -0.0003339 -0.0000508 -0.0004004 0.0000910 -0.0004744 -0.0002075 -0.0002329 -0.0000047 0.0000099 -0.0000203 -0.0000349 0.0000219 0.0000017 -0.0000015 0.0001467 0.0000339 -0.0002240 -0.0000180 -0.0000263 -0.0002275 0.0000516 -0.0000636 -0.0003066 -0.0000012 -0.0006795 -0.0001534 -0.0006898 0.0002624 0.0000758 -0.0002199 -0.0030524 0.0134230 -0.0279147 -0.0003772 -0.0002493 0.0001214 -0.0004505 -0.0041251 0.0037780 0.0003267 -0.0001331 -0.0000025 -0.0003451 0.0017775 -0.0012008 -0.0001056 -0.0008593 -0.0000803 -0.0005887 0.0059981 -0.0061367 0.0005307 0.0007531 -0.0000909 -0.0003479 0.0000202 -0.0004763 0.0002670 -0.0004393 -0.0002210 -0.0002523 -0.0002310 0.0000102 -0.0105233 0.0118484 -0.0038138 0.0099658 0.0000043 -0.0002857 -0.0002379 0.0001170 0.0011056 -0.0010812 0.0000195 -0.0001963 -0.0002642 -0.0002585 0.0001004 0.0000397 -0.0012086 0.0002520 -0.0004080 0.0018418 -0.0027316 0.0020299 -0.0000806 -0.0001163 0.0000754 -0.0003107 0.0037679 -0.0003132 0.0000364 -0.0004645 -0.0028922 0.0016789 0.0001275 -0.0006199 0.0002214 -0.0005789 -0.0000587 -0.0002648 0.0001862 -0.0008153 0.0001288 -0.0005226 -0.0016922 0.0009663 0.0003555 -0.0006231 0.0000130 -0.0002206 0.0004489 -0.0006642 -0.0000475 -0.0001448 -0.0000884 -0.0004731 -0.0001603 -0.0000948 -0.0001009 0.0002738 -0.0003187 -0.0001232 -0.0000676 -0.0003357 0.0001539 -0.0007300 -0.0000773 -0.0002883 -0.0001988 -0.0006053 -0.0003208 0.0001264 -0.0003408 -0.0001414 -0.0000493 -0.0003255 0.0001541 -0.0007439 0.0027234 -0.0035434 0.0024177 -0.0114310 0.0006457 -0.0004443 0.0000150 0.0000012 0.0001640 -0.0004930 0.0008279 -0.0025915 0.0001481 -0.0008530 0.0000003 -0.0003510 -0.0015158 0.0007354 -0.0103585 -0.0029817 0.0000567 -0.0001162 -0.0001423 -0.0007722 -0.0000398 0.0000488 -0.0001311 0.0000738 -0.0000377 -0.0001233 -0.0000492 0.0000344 -0.0000648 -0.0000649
-0.0000200 -0.0000633 0.0000344 -0.0001821 0.0000486 -0.0001954 0.0000281 -0.0001072 0.0000147 -0.0000962 0.0001318 -0.0003677 0.0000549 -0.0003650 0.0000307 -0.0003784 0.0000333 -0.0003927 0.0000469 -0.0000840 0.0001139 -0.0001526 0.0000656 -0.0000603 0.0000759 0.0000110 -0.0000326 -0.0003599 -0.0000272 -0.0004598 0.0000045 -0.0004466 0.0000707 -0.0005309 -0.0001320 -0.0000858 0.0000683 -0.0004922 0.0005890 -0.0002692 0.0000061 -0.0001459 -0.0001031 -0.0001881 0.0002733 -0.0004606 0.0000919 -0.0004333 -0.0003691 -0.0001711 -0.0000023 0.0000657 -0.0000343 -0.0000176 0.0000048 0.0001596 -0.0000007 0.0002740 0.0000559 -0.0000979 -0.0000315 0.0001527 0.0000299 -0.0004164 -0.0000541 -0.0002200 0.0001487 -0.0006976 0.0002932 -0.0013597 0.0001143 0.0000762 0.0000365 -0.0059040 0.0036535 0.0027463 -0.0001958 -0.0003332 0.0002644 -0.0004955 -0.0035422 0.0029186 -0.0006815 0.0007805 -0.0000713 -0.0002160 -0.0005189 -0.0008488 0.0000906 -0.0005811 -0.0002019 -0.0002904 -0.0035081 0.0015234 0.0010334 -0.0012913 0.0000598 -0.0003515 0.0016392 -0.0020372 -0.0002055 0.0000300 -0.0001359 -0.0003202 -0.0000923 -0.0001754 -0.0026081 -0.0013870 0.0009037 -0.0011280 -0.0000525 -0.0002133 -0.0003478 0.0001987 0.0007469 -0.0011281 -0.0000058 -0.0002024 0.0001289 -0.0006736 0.0001762 -0.0001496 -0.0010323 -0.0003272 -0.0007809 0.0026746 0.0026575 -0.0025144 -0.0004784 0.0003078 -0.0002205 -0.0000125 0.0031914 0.0026057 -0.0000328 -0.0004758 -0.0043397 0.0035911 0.0006981 -0.0016540 0.0001191 -0.0006037 -0.0000838 -0.0003299 0.0001464 -0.0008036 -0.0002982 -0.0002394 -0.0008913 0.0007531 -0.0001667 -0.0005368 -0.0000714 -0.0000636 0.0003727 -0.0004259 -0.0000675 -0.0002084 0.0000940 -0.0007058 -0.0001209 -0.0002159 0.0002398 -0.0004269 -0.0001050 -0.0002603 0.0000459 -0.0005592 0.0000595 -0.0006228 -0.0000233 -0.0003471 0.0001307 -0.0011363 0.0001014 -0.0001500 -0.0004879 -0.0003677 -0.0000102 -0.0004646 0.0004437 -0.0011190 -0.0010258 -0.0004869 0.0051171 -0.0038296 0.0006082 -0.0008436 -0.0000110 -0.0000414 -0.0002536 -0.0000357 0.0028574 -0.0040759 0.0001178 -0.0008093 0.0000861 -0.0005403 -0.0009527 -0.0007108 -0.0161424 0.0146945 0.0000460 -0.0001566 0.0013958 -0.0010849 -0.0000366 -0.0000253 -0.0002409 0.0000615 -0.0000179 -0.0003128 0.0000005 -0.0002760 -0.0000034 -0.0002547
-0.0000024 -0.0002560 0.0000358 -0.0003873 0.0000274 -0.0003941 0.0000267 -0.0001994 0.0000131 -0.0002411 0.0001188 -0.0005026 0.0000914 -0.0005461 0.0000497 -0.0005642 0.0000387 -0.0005288 0.0000436 -0.0002422 0.0000830 -0.0003748 0.0000210 -0.0002400 -0.0000213 -0.0001237 -0.0000129 -0.0005282 -0.0000143 -0.0006400 0.0000198 -0.0005780 0.0000550 -0.0005859 -0.0000641 -0.0002914 0.0000805 -0.0006098 -0.0007805 0.0005591 0.0000080 -0.0002248 -0.0000583 -0.0002452 0.0001686 -0.0004709 0.0001110 -0.0004879 -0.0004020 -0.0000381 -0.0000121 0.0001035 -0.0000404 -0.0000368 0.0000080 0.0002344 0.0000201 0.0003280 0.0000479 -0.0000059 -0.0000201 0.0002199 0.0002777 -0.0004673 0.0000223 -0.0002408 0.0002735 -0.0007365 0.0005433 -0.0016158 -0.0003243 0.0003429 0.0056618 -0.0120515 -0.0002215 0.0034219 -0.0002387 -0.0001998 0.0001956 -0.0002661 -0.0022028 0.0016895 -0.0003353 -0.0001997 -0.0001070 0.0000052 -0.0019090 -0.0000745 -0.0006774 0.0005874 -0.0003619 0.0000000 0.0025774 -0.0054542 -0.0004743 0.0018535 0.0001377 -0.0003136 0.0030138 -0.0043327 0.0001238 -0.0001462 -0.0001216 -0.0002276 -0.0001181 -0.0000159 0.0107007 -0.0166868 -0.0237172 0.0177767 -0.0001848 0.0000942 -0.0005174 0.0005273 0.0007115 -0.0006698 -0.0000062 -0.0000770 0.0001534 -0.0003139 0.0001159 0.0001354 0.0001335 -0.0012835 0.0001365 -0.0000697 0.0029985 -0.0026912 -0.0003177 0.0002604 -0.0002499 -0.0000028 0.0039678 -0.0064187 -0.0001342 -0.0002748 0.0002821 -0.0004885 0.0005738 -0.0014796 -0.0000236 -0.0003325 0.0000702 -0.0004449 -0.0000904 -0.0004748 -0.0002970 -0.0002076 0.0015299 -0.0009767 0.0001080 -0.0004115 -0.0003392 0.0000860 0.0004627 -0.0006161 -0.0000605 -0.0002552 0.0000659 -0.0005455 -0.0000703 -0.0002791 -0.0010114 0.0002362 0.0001699 -0.0005237 0.0000410 -0.0004822 -0.0002424 -0.0001070 -0.0000337 -0.0004282 0.0002804 -0.0013223 0.0003259 -0.0006166 0.0000425 -0.0008094 0.0000063 -0.0005325 0.0003843 -0.0012598 -0.0008101 0.0010632 0.0040353 -0.0000160 0.0004744 -0.0008815 0.0000147 -0.0000821 -0.0000792 -0.0004405 0.0020358 -0.0029408 0.0006431 -0.0011935 0.0001290 -0.0005602 -0.0012488 -0.0000354 -0.0046603 0.0060218 -0.0000356 -0.0001950 0.0003872 0.0013686 -0.0000422 -0.0000243 -0.0001357 -0.0001214 -0.0000890 -0.0003107 -0.0000055 -0.0004249 -0.0000148 -0.0004109
-0.0000159 -0.0003558 0.0000374 -0.0005461 0.0000141 -0.0005379 0.0000210 -0.0002408 0.0000173 -0.0003238 0.0001227 -0.0006038 0.0000896 -0.0006077 0.0000551 -0.0006402 0.0000290 -0.0005864 0.0000222 -0.0003217 0.0000669 -0.0004877 0.0000607 -0.0004009 0.0000755 -0.0003137 0.0000122 -0.0006452 0.0000328 -0.0007576 0.0000372 -0.0006548 0.0000881 -0.0007016 0.0000827 -0.0004961 0.0000953 -0.0007016 -0.0005691 -0.0000014 0.0000330 -0.0003457 0.0000314 -0.0003632 -0.0001522 -0.0004371 0.0001194 -0.0005616 -0.0005175 -0.0000127 -0.0000258 0.0000708 -0.0000462 -0.0000979 0.0000012 0.0001452 0.0000150 0.0002725 0.0000290 -0.0001187 -0.0000489 0.0000822 0.0000814 -0.0003624 0.0000927 -0.0004685 0.0001594 -0.0006913 -0.0000419 -0.0002486 -0.0003470 0.0002237 0.0032363 -0.0052541 0.0121992 -0.0242578 -0.0004472 -0.0003339 0.0000876 -0.0002517 -0.0012370 -0.0002314 0.0006596 -0.0013626 -0.0001325 -0.0000719 0.0011467 -0.0024513 -0.0015491 0.0009432 -0.0000721 -0.0005454 -0.0014448 -0.0014945 0.0016402 0.0028210 0.0000500 -0.0003105 0.0008918 -0.0020060 -0.0002451 0.0000068 -0.0001259 -0.0002370 -0.0001578 0.0000369 0.0036818 -0.0049385 -0.0101909 0.0001777 -0.0002628 0.0000133 -0.0001838 0.0002254 -0.0003644 -0.0003277 -0.0000067 0.0000117 0.0001019 -0.0000788 -0.0000072 0.0003839 0.0007160 -0.0014551 0.0017985 -0.0041697 -0.0014502 0.0008746 0.0000299 -0.0000510 -0.0002497 0.0001058 0.0022389 -0.0006435 -0.0001491 -0.0000756 0.0017154 -0.0010046 0.0002655 -0.0007480 0.0000737 -0.0002148 0.0001306 -0.0004422 0.0002043 -0.0005453 -0.0004791 0.0000826 0.0005978 -0.0001537 0.0002256 0.0001156 -0.0000338 -0.0000832 0.0003932 -0.0002591 -0.0000785 -0.0001502 0.0000898 -0.0003898 -0.0000959 -0.0000760 -0.0019077 0.0006881 0.0002152 -0.0006142 -0.0002142 -0.0000044 -0.0001167 -0.0003544 -0.0000066 -0.0002836 0.0001646 -0.0008722 0.0006197 -0.0009651 0.0000411 -0.0004627 0.0000181 -0.0003084 -0.0003782 -0.0004705 0.0009776 -0.0004081 -0.0015443 0.0002929 0.0003900 -0.0002619 0.0000446 0.0000088 0.0002253 -0.0005750 0.0023267 -0.0034767 0.0005760 -0.0008145 0.0000025 -0.0002016 -0.0003274 -0.0006201 0.0029665 -0.0044202 -0.0000643 -0.0000779 -0.0000498 0.0007989 -0.0000425 0.0000800 0.0000447 -0.0002323 -0.0000269 -0.0002149 -0.0000426 -0.0002739 -0.0001623 -0.0003902
-0.0000120 -0.0002987 0.0000454 -0.0004961 -0.0000029 -0.0004493 0.0000113 -0.0002039 0.0000176 -0.0003072 0.0000790 -0.0005166 0.0000860 -0.0005761 0.0000612 -0.0005967 -0.0000103 -0.0005050 0.0000021 -0.0002966 0.0001596 -0.0005194 0.0000555 -0.0003811 0.0001086 -0.0003458 0.0000329 -0.0006562 0.0000794 -0.0007532 0.0000573 -0.0006398 0.0000853 -0.0007459 0.0001926 -0.0006166 0.0001125 -0.0006921 0.0001004 -0.0006140 0.0000464 -0.0003900 -0.0000152 -0.0003240 0.0001150 -0.0005183 0.0001159 -0.0005312 -0.0000220 -0.0005366 -0.0000371 0.0000605 -0.0000497 -0.0001239 -0.0000127 0.0001108 -0.0000004 0.0002769 0.0000276 -0.0001593 -0.0000526 -0.0000050 -0.0000017 -0.0007133 0.0001101 -0.0005783 0.0001884 -0.0008009 0.0007187 -0.0007146 -0.0001550 0.0001077 -0.0011667 -0.0010821 0.0116932 -0.0210982 -0.0002905 -0.0005827 0.0001723 -0.0002958 -0.0048073 0.0024670 -0.0017932 0.0011669 -0.0001350 -0.0002439 0.0008139 -0.0019477 -0.0008874 0.0001614 0.0001248 -0.0007096 -0.0080241 0.0058735 0.0003480 0.0020511 -0.0000393 -0.0002760 0.0006726 -0.0011831 -0.0006217 0.0002470 -0.0002591 -0.0000798 -0.0000463 -0.0001971 0.0038129 -0.0163549 0.0045600 -0.0077081 0.0001240 -0.0005497 0.0000435 0.0000732 -0.0002700 -0.0008685 -0.0000290 -0.0000678 0.0002083 -0.0005628 0.0000923 -0.0000643 -0.0016966 0.0007429 0.0022213 -0.0047196 -0.0004514 -0.0001176 0.0000592 -0.0002965 -0.0001211 0.0000459 -0.0001062 0.0019845 -0.0000530 -0.0002743 0.0008972 -0.0028692 -0.0000830 -0.0002231 0.0000214 -0.0002412 -0.0001053 -0.0002876 0.0002973 -0.0007942 -0.0004068 0.0001749 0.0008280 0.0001327 -0.0004816 0.0002062 0.0000066 -0.0000459 -0.0003521 -0.0001943 -0.0001262 -0.0000561 -0.0002448 -0.0001099 0.0000318 -0.0001310 -0.0005845 -0.0007321 0.0000165 -0.0004686 -0.0000459 -0.0000949 0.0000451 -0.0005650 -0.0000350 -0.0001084 0.0001926 -0.0007166 0.0003798 -0.0002795 0.0001216 -0.0000655 0.0000757 -0.0002506 -0.0007485 -0.0000273 0.0027090 -0.0020996 -0.0019419 0.0025664 0.0004868 -0.0004475 -0.0000232 0.0001700 0.0003354 -0.0003200 0.0018215 -0.0009817 0.0000318 -0.0001770 -0.0000216 0.0000084 0.0005341 -0.0009404 0.0089432 -0.0104741 0.0000684 0.0000168 0.0007530 -0.0006026 -0.0000368 0.0001703 -0.0000128 -0.0000287 0.0000938 -0.0000930 -0.0000644 0.0001512 -0.0001426 -0.0000590
-0.0000322 0.0000079 0.0000531 -0.0001965 -0.0000307 -0.0001254 0.0000023 -0.0000905 0.0000196 -0.0001628 0.0000371 -0.0002518 0.0000662 -0.0003989 0.0000572 -0.0003786 -0.0000146 -0.0003125 0.0000088 -0.0001471 -0.0000541 -0.0002400 0.0000338 -0.0001021 0.0000565 -0.0001389 0.0000440 -0.0004666 0.0001156 -0.0005992 0.0000802 -0.0004461 0.0000078 -0.0004070 0.0002935 -0.0005829 0.0001011 -0.0004308 -0.0000582 -0.0001652 0.0000205 -0.0001322 -0.0000219 -0.0001488 -0.0002569 0.0000396 0.0001046 -0.0004085 0.0002223 -0.0006814 -0.0000072 0.0000664 -0.0000438 -0.0001058 -0.0000219 0.0001600 -0.0000005 0.0002944 0.0000250 -0.0000921 -0.0000241 -0.0000146 -0.0000087 -0.0005420 0.0001345 -0.0004567 0.0002854 -0.0006954 0.0015122 -0.0016111 -0.0000252 -0.0001243 0.0008278 -0.0057781 0.0117122 -0.0108736 -0.0003860 -0.0001459 0.0001128 -0.0001954 -0.0057952 0.0024793 -0.0022456 0.0022391 -0.0001026 -0.0002141 -0.0035703 0.0023934 0.0001388 -0.0006279 0.0001576 -0.0005984 -0.0045313 0.0017784 0.0035038 -0.0034984 -0.0002204 -0.0002176 -0.0008657 -0.0000630 0.0003146 -0.0003315 -0.0004267 0.0001315 0.0000069 -0.0002406 -0.0029089 -0.0024055 0.0076852 -0.0112922 0.0006641 -0.0008113 0.0003337 0.0000463 0.0006248 -0.0010640 -0.0000608 -0.0000614 0.0002928 -0.0007072 0.0001338 -0.0001527 -0.0011066 0.0007853 -0.0016240 0.0014269 -0.0009301 0.0008485 -0.0000175 -0.0002072 -0.0001458 0.0001378 -0.0059739 0.0108048 -0.0001783 -0.0002434 0.0031416 -0.0073470 -0.0003660 -0.0004503 -0.0001462 -0.0000594 0.0003021 -0.0005083 -0.0000251 -0.0004851 -0.0002781 0.0001086 0.0003174 0.0001144 -0.0006117 0.0001972 -0.0001157 0.0001715 -0.0000470 -0.0006589 -0.0001066 -0.0000912 -0.0003674 -0.0001065 0.0000747 -0.0002125 -0.0001538 -0.0005118 0.0000754 -0.0005014 0.0001410 -0.0003786 0.0000829 -0.0003919 -0.0000365 -0.0002910 0.0000615 -0.0006947 -0.0004774 0.0005051 0.0005832 -0.0008380 0.0000406 -0.0003432 0.0001814 -0.0009215 0.0041880 -0.0051716 -0.0018694 0.0020499 0.0000153 -0.0000995 -0.0000666 0.0001768 0.0003248 -0.0003919 0.0014782 -0.0001418 -0.0001769 -0.0001148 -0.0000969 -0.0000130 0.0006176 0.0007373 0.0043944 -0.0029068 0.0001573 0.0000287 0.0012601 -0.0013617 -0.0000200 0.0001341 -0.0000255 0.0000022 0.0000274 -0.0000423 -0.0000707 0.0002062 -0.0001666 0.0002711
-0.0000548 0.0001386 0.0000433 -0.0001191 -0.0000421 -0.0000233 0.0000012 -0.0000221 0.0000163 -0.0000714 0.0000556 -0.0001062 0.0000575 -0.0003142 0.0000422 -0.0002524 -0.0000334 -0.0001873 0.0000336 -0.0000481 -0.0000913 -0.0000543 0.0000390 0.0000351 0.0001140 -0.0000649 0.0000585 -0.0003047 0.0001172 -0.0004185 0.0000911 -0.0002257 0.0000535 -0.0002529 0.0002207 -0.0002992 0.0000938 -0.0001768 -0.0003673 0.0002837 0.0000183 0.0000686 0.0000145 -0.0000118 -0.0005758 0.0004137 0.0000762 -0.0002301 -0.0002314 -0.0001088 0.0000026 0.0001397 -0.0000473 -0.0000507 -0.0000212 0.0003223 -0.0000039 0.0004146 0.0000066 0.0001139 -0.0000296 0.0002074 0.0002304 -0.0002958 0.0001486 -0.0002334 0.0002915 -0.0003052 0.0010915 -0.0013078 -0.0002130 0.0001873 0.0043160 -0.0066070 0.0073117 -0.0076599 -0.0007206 0.0003782 -0.0001110 0.0003175 -0.0011819 0.0013296 -0.0001829 0.0009089 -0.0000819 0.0000378 -0.0005506 0.0004086 -0.0011314 0.0007558 0.0000419 -0.0003680 -0.0008821 -0.0003823 -0.0000344 -0.0026668 0.0000728 -0.0001191 -0.0021313 0.0014209 0.0003546 -0.0003276 -0.0001783 -0.0000183 0.0000057 -0.0000083 -0.0131148 0.0141564 0.0156515 -0.0466810 -0.0000086 -0.0002085 0.0006651 -0.0002715 -0.0002816 0.0002993 -0.0000824 0.0000109 0.0003232 -0.0006381 0.0000204 -0.0000725 0.0010438 -0.0011759 -0.0022532 0.0017356 -0.0019247 0.0023084 0.0001082 -0.0001494 -0.0000166 0.0000932 -0.0098054 0.0133004 -0.0003966 -0.0000077 0.0011582 -0.0021064 -0.0000356 -0.0006511 -0.0000503 -0.0000428 0.0002368 -0.0003709 -0.0001711 -0.0002671 -0.0004828 0.0003104 0.0000012 -0.0006233 -0.0001753 0.0002306 0.0001110 -0.0001005 -0.0000739 -0.0004862 -0.0001084 -0.0001025 -0.0000662 -0.0002547 -0.0000302 -0.0000509 -0.0013966 0.0025527 0.0002671 -0.0005721 0.0000605 -0.0002544 0.0002092 -0.0002251 0.0000420 -0.0003329 -0.0000016 -0.0004938 -0.0005438 0.0004221 0.0003846 -0.0005170 -0.0000341 -0.0002202 0.0003666 -0.0009287 0.0020897 -0.0060377 -0.0028151 0.0031860 0.0005721 -0.0004617 -0.0000595 0.0002264 -0.0000690 -0.0000012 -0.0014443 0.0008437 -0.0000840 -0.0000391 -0.0001176 0.0000322 0.0012188 0.0001586 -0.0082292 0.0136491 -0.0000586 0.0002425 0.0002318 -0.0003426 -0.0000667 0.0001921 -0.0001598 0.0002018 -0.0000075 -0.0000388 -0.0000789 0.0001229 0.0000024 0.0000787
-0.0000339 0.0000670 0.0000321 -0.0002060 -0.0000399 -0.0001070 -0.0000112 0.0000002 0.0000105 -0.0000775 0.0000684 -0.0001408 0.0000517 -0.0003387 0.0000305 -0.0002666 -0.0000375 -0.0001880 0.0000708 -0.0001286 0.0001503 -0.0002547 0.0000446 -0.0000896 0.0001739 -0.0002076 0.0000731 -0.0002925 0.0000663 -0.0003292 0.0000844 -0.0001581 0.0001412 -0.0003042 0.0000188 -0.0001417 0.0000950 -0.0001467 0.0004978 -0.0003713 0.0000266 -0.0000551 0.0000340 -0.0000309 -0.0002619 0.0002415 0.0000565 -0.0001316 -0.0001410 0.0000444 -0.0000109 0.0002034 -0.0000465 -0.0000179 -0.0000450 0.0004140 -0.0000151 0.0004921 -0.0000313 0.0002439 -0.0000187 0.0003345 0.0001172 -0.0001573 0.0000909 -0.0001621 0.0002071 -0.0003392 0.0002042 -0.0007811 0.0001804 0.0002312 -0.0020901 0.0049274 -0.0085824 0.0046395 -0.0004374 0.0002858 0.0000277 0.0002458 0.0039712 -0.0011562 -0.0005867 0.0014639 -0.0000487 0.0002655 0.0043043 -0.0038442 -0.0013931 0.0010955 -0.0002385 0.0001854 -0.0009053 0.0022804 -0.0139794 0.0100701 0.0004382 -0.0001256 0.0001905 -0.0007574 0.0004680 -0.0002851 0.0000984 -0.0000815 -0.0000765 0.0003338 -0.0041297 0.0029023 0.0194359 -0.0407853 -0.0008583 0.0007900 0.0004740 -0.0001848 -0.0003313 0.0006578 -0.0000837 0.0002272 0.0000829 -0.0002302 0.0001178 -0.0001344 0.0011552 -0.0020251 0.0001282 -0.0010847 -0.0020966 0.0022737 0.0000802 0.0000682 0.0000069 0.0001567 -0.0071893 0.0011945 -0.0002955 0.0002061 -0.0016664 0.0016401 0.0006146 -0.0008836 -0.0000476 0.0001757 0.0000477 -0.0000737 -0.0002806 0.0000378 -0.0002445 0.0003209 0.0009515 -0.0016188 -0.0000399 0.0003125 0.0002088 -0.0000059 -0.0009141 0.0006996 -0.0000537 -0.0000235 -0.0001274 -0.0001186 -0.0000994 0.0001387 -0.0001555 0.0017323 0.0001590 -0.0002823 0.0000615 -0.0000979 -0.0000441 0.0002256 -0.0000359 -0.0000436 0.0000459 -0.0004135 0.0002117 -0.0003763 -0.0001360 0.0000290 -0.0001040 -0.0000162 -0.0001703 -0.0003784 -0.0007793 -0.0020375 0.0017994 0.0024178 0.0004118 -0.0003888 -0.0000155 0.0002295 -0.0003406 0.0002614 -0.0025962 0.0005478 -0.0002616 0.0001162 -0.0001024 0.0000670 -0.0002523 0.0007565 -0.0047507 0.0057199 -0.0001778 0.0003391 -0.0001944 0.0005549 -0.0000732 0.0002329 -0.0000890 0.0003201 -0.0000753 -0.0000238 -0.0001277 0.0002249 0.0001559 -0.0000271
-0.0000304 0.0000509 0.0000390 -0.0002304 -0.0000717 -0.0001044 -0.0000211 0.0000467 0.0000068 -0.0000372 0.0000284 -0.0000776 0.0000378 -0.0002773 0.0000170 -0.0001961 -0.0000274 -0.0001186 0.0000633 -0.0001416 0.0000533 -0.0002333 -0.0000053 -0.0000908 0.0000764 -0.0001880 0.0000853 -0.0002096 0.0000457 -0.0001969 0.0000864 -0.0000069 0.0000887 -0.0000936 -0.0001548 0.0001110 0.0000782 -0.0000349 0.0007467 -0.0003280 0.0000177 -0.0000808 -0.0000054 0.0000214 0.0001731 -0.0001931 0.0000439 -0.0000524 -0.0002605 0.0002303 -0.0000250 0.0002066 -0.0000374 -0.0000070 -0.0000708 0.0003707 -0.0000061 0.0004131 -0.0000535 0.0001941 -0.0000123 0.0002659 0.0006067 -0.0006562 0.0000302 -0.0001693 0.0001549 -0.0002830 -0.0014951 0.0021873 0.0003544 -0.0000133 -0.0078950 0.0115429 0.0029642 0.0010945 -0.0002454 0.0002925 -0.0003035 0.0003871 0.0057440 -0.0024729 -0.0002123 0.0008228 -0.0000594 0.0002963 -0.0011648 0.0009064 -0.0002481 0.0002178 -0.0003011 0.0004161 0.0004555 0.0030975 -0.0152954 0.0139964 0.0002309 0.0001164 -0.0010117 0.0000577 -0.0001294 0.0004726 0.0000746 -0.0000712 -0.0000585 0.0003520 -0.0058213 0.0063918 0.0061677 -0.0045012 -0.0005059 0.0007167 0.0004473 -0.0001174 -0.0002248 0.0003673 -0.0000841 0.0003219 -0.0003130 0.0003270 0.0001770 -0.0000321 0.0007741 -0.0015203 -0.0003837 -0.0011356 -0.0018068 0.0014241 -0.0000148 0.0002485 -0.0000888 0.0003507 -0.0021025 0.0037119 -0.0002185 0.0003885 0.0004595 0.0001944 0.0001049 -0.0006162 -0.0002439 0.0005762 0.0000548 0.0001308 -0.0004435 0.0008415 0.0000616 0.0002262 -0.0018430 0.0017140 -0.0002456 0.0007681 0.0002479 0.0002928 -0.0001785 0.0003353 -0.0001113 0.0001967 -0.0003421 0.0002910 -0.0001331 0.0004041 0.0007787 0.0001608 -0.0000151 0.0000477 -0.0001386 0.0003579 -0.0001513 0.0003336 -0.0001195 0.0003194 -0.0001271 -0.0000521 0.0007474 -0.0008567 -0.0003796 0.0003247 -0.0000833 0.0002481 -0.0001907 -0.0001756 -0.0006294 0.0000858 0.0008640 0.0001374 -0.0000214 0.0001742 -0.0000326 0.0004312 0.0000333 0.0000909 -0.0022476 0.0006660 -0.0000455 -0.0000900 -0.0001159 0.0003875 -0.0002883 0.0012203 -0.0145733 0.0188480 -0.0002561 0.0005655 0.0019855 -0.0008772 -0.0000719 0.0003456 -0.0001215 0.0003752 -0.0002180 0.0001747 -0.0001815 0.0003057 -0.0000441 0.0002692
-0.0000470 0.0000943 0.0000301 -0.0001838 -0.0000847 -0.0000285 -0.0000398 0.0001015 0.0000003 0.0000095 -0.0000079 0.0000276 0.0000361 -0.0002247 0.0000013 -0.0000971 -0.0000234 -0.0000282 -0.0000000 -0.0001305 -0.0000335 -0.0001408 -0.0000414 -0.0001177 -0.0000531 -0.0000505 0.0000927 -0.0001280 0.0000623 -0.0000858 0.0000803 0.0001486 0.0000306 -0.0000091 -0.0000366 0.0000260 0.0000481 0.0000744 -0.0003920 0.0005590 0.0000092 -0.0000966 -0.0001166 0.0000971 0.0003433 -0.0004112 0.0000427 0.0000037 -0.0001569 0.0001116 -0.0000312 0.0001936 -0.0000272 0.0000011 -0.0000614 0.0003076 0.0000017 0.0003470 -0.0000425 0.0001201 -0.0000260 0.0002379 0.0000823 -0.0000148 -0.0000338 -0.0001656 0.0001592 -0.0001263 -0.0024546 0.0034117 -0.0001453 0.0002042 -0.0073156 0.0046650 0.0096613 -0.0106184 -0.0000428 0.0000957 -0.0005291 0.0005903 0.0027743 -0.0011020 0.0025152 -0.0020610 -0.0000960 0.0003392 -0.0026839 0.0029205 0.0001992 -0.0000858 -0.0001281 0.0003700 0.0037285 -0.0036153 -0.0079905 0.0022956 0.0001481 0.0000773 -0.0014804 0.0011089 -0.0002549 0.0004905 -0.0001669 0.0002962 0.0000712 0.0001852 -0.0017054 0.0037770 -0.0067070 0.0103403 -0.0004048 0.0003671 -0.0000414 0.0002890 -0.0002081 0.0005175 -0.0000645 0.0001625 0.0000044 0.0000300 0.0000410 0.0000226 -0.0011574 0.0010188 -0.0010513 0.0011626 -0.0019909 0.0020740 0.0002970 0.0000225 0.0000738 0.0002486 0.0040369 -0.0073830 -0.0001570 0.0001531 0.0003279 -0.0000759 -0.0000150 -0.0005434 -0.0002205 0.0005495 -0.0001701 0.0003823 -0.0002427 0.0005869 -0.0000228 0.0003929 -0.0017516 0.0021989 -0.0003368 0.0005753 0.0001423 0.0002211 -0.0011174 0.0007881 -0.0001114 0.0002124 -0.0001738 0.0001315 -0.0001916 0.0004515 0.0001066 0.0012908 -0.0001029 0.0002181 0.0000385 0.0003868 0.0001299 0.0000755 -0.0001654 0.0003418 0.0000885 0.0000318 0.0006123 -0.0002606 -0.0002817 0.0007234 -0.0001352 0.0003677 0.0000049 -0.0002522 0.0012571 -0.0012911 -0.0085237 0.0073366 -0.0000162 0.0003173 -0.0001019 0.0006187 0.0000912 0.0002878 -0.0013606 0.0007833 0.0001326 0.0002675 -0.0001100 0.0005348 -0.0000141 0.0009677 -0.0004576 0.0059468 -0.0001874 0.0006767 -0.0001953 0.0011719 -0.0001357 0.0005120 -0.0003646 0.0007064 -0.0001065 0.0003244 -0.0002005 0.0006448 -0.0002292 0.0007133
-0.0001019 0.0004183 -0.0000041 0.0001533 -0.0001060 0.0002887 -0.0000498 0.0002253 -0.0000071 0.0001737 -0.0000334 0.0002991 0.0000128 0.0000060 -0.0000219 0.0001765 -0.0000479 0.0002134 -0.0000398 0.0000668 -0.0000395 0.0000431 -0.0000411 0.0001212 0.0000067 0.0000959 0.0000860 0.0000299 0.0000458 0.0000806 0.0000679 0.0003306 0.0000122 0.0001487 -0.0000559 0.0001165 0.0000098 0.0002500 -0.0005402 0.0002909 0.0000045 0.0000159 -0.0000960 0.0001288 0.0000282 -0.0000401 0.0000390 0.0000571 0.0000002 0.0001313 -0.0000459 0.0002109 -0.0000135 0.0000218 -0.0000830 0.0002547 -0.0000084 0.0003086 -0.0000567 0.0000926 -0.0000460 0.0001996 -0.0000700 -0.0000944 0.0000633 -0.0002127 0.0000818 -0.0001271 -0.0015768 0.0014922 -0.0006977 0.0007448 -0.0047846 -0.0008463 -0.0021163 -0.0007351 -0.0000980 -0.0001571 -0.0004625 0.0005286 0.0004205 -0.0016516 0.0016354 -0.0005734 -0.0001100 0.0003572 0.0029436 -0.0034601 0.0002512 -0.0002815 -0.0002974 0.0005292 -0.0039691 0.0005664 -0.0021657 -0.0049382 0.0003414 -0.0002341 0.0016282 -0.0004297 0.0004484 -0.0002337 -0.0002242 0.0004257 0.0001062 0.0001726 -0.0021222 0.0051066 -0.0021848 0.0163331 -0.0002193 0.0002360 -0.0003216 0.0006538 -0.0012450 0.0012852 -0.0000673 0.0000861 0.0004650 -0.0004131 -0.0000110 -0.0001889 -0.0018681 0.0021907 0.0005616 -0.0009302 -0.0023234 0.0029412 0.0001194 0.0003216 0.0000268 0.0002928 -0.0020045 0.0038013 -0.0000834 -0.0000224 0.0009694 -0.0019807 0.0001560 -0.0006552 -0.0002197 0.0004545 -0.0000385 0.0002856 -0.0001201 0.0001995 -0.0002350 0.0005170 0.0006471 0.0000776 -0.0002293 0.0000174 0.0000816 -0.0000562 -0.0014200 0.0007868 -0.0000786 0.0001094 0.0001690 -0.0001492 -0.0002076 0.0003310 -0.0006576 0.0012462 -0.0002957 0.0004553 0.0001817 0.0000917 0.0002098 -0.0000626 -0.0001841 0.0001747 0.0000129 0.0000877 0.0005697 -0.0000139 -0.0002139 0.0000783 -0.0001551 0.0002905 -0.0002553 -0.0002438 0.0008419 -0.0004394 -0.0144745 0.0143890 -0.0008545 0.0007123 -0.0000713 0.0004432 -0.0000547 0.0004457 0.0007212 -0.0012592 0.0003128 0.0000821 -0.0001556 0.0003405 -0.0027155 0.0030931 0.0091007 -0.0112743 -0.0000953 0.0004933 -0.0008998 0.0020942 -0.0001575 0.0004303 -0.0001018 0.0004845 0.0000010 0.0002021 -0.0001998 0.0006550 -0.0001853 0.0006259
-0.0001126 0.0004843 -0.0000013 0.0002174 -0.0001018 0.0003419 -0.0000455 0.0002774 -0.0000081 0.0002483 -0.0000468 0.0004022 -0.0000102 0.0001264 -0.0000274 0.0002790 -0.0000515 0.0003057 -0.0000283 0.0001667 0.0000772 -0.0000199 0.0000016 0.0002206 0.0000429 0.0001686 0.0000733 0.0001548 0.0000273 0.0002014 0.0000625 0.0004514 0.0000450 0.0002240 -0.0002075 0.0004489 0.0000007 0.0004125 -0.0005244 -0.0000161 -0.0000236 0.0001974 -0.0000634 0.0001738 -0.0000346 0.0001845 0.0000073 0.0002070 -0.0001233 0.0005285 -0.0000501 0.0002658 -0.0000088 0.0000998 -0.0001164 0.0003986 -0.0000264 0.0004131 -0.0000824 0.0002710 -0.0000410 0.0003644 0.0001537 -0.0006023 0.0000868 -0.0000596 -0.0000036 0.0001652 -0.0010447 0.0011361 -0.0002841 0.0006742 -0.0078210 0.0024126 0.0095354 -0.0145441 -0.0002318 0.0000391 -0.0001741 0.0003567 -0.0019967 0.0019007 -0.0003246 0.0010007 -0.0000687 0.0003572 -0.0000723 -0.0013075 -0.0000566 0.0003283 -0.0002144 0.0003589 -0.0077250 0.0071205 -0.0105214 0.0074590 0.0005549 -0.0003615 0.0015256 -0.0006552 -0.0001123 0.0002234 -0.0000606 0.0002589 -0.0000184 0.0004019 -0.0212230 0.0155500 -0.0013877 0.0201770 -0.0002543 0.0002459 -0.0002839 0.0004463 -0.0011141 0.0013231 -0.0000871 0.0000256 0.0000767 -0.0002235 -0.0001116 -0.0001838 -0.0002050 0.0002155 0.0005664 -0.0023144 0.0013734 -0.0003238 -0.0000530 0.0004294 -0.0001209 0.0003835 -0.0038963 0.0114353 -0.0001486 -0.0000131 -0.0011158 0.0008958 0.0002468 -0.0007178 -0.0002657 0.0004263 0.0000792 0.0001479 -0.0005228 0.0004164 -0.0001916 0.0003995 0.0005041 0.0004721 -0.0003349 0.0001197 0.0000141 -0.0000470 -0.0004927 -0.0000513 -0.0001599 0.0000900 -0.0002523 0.0002721 -0.0001421 0.0001325 0.0000910 0.0001444 -0.0003635 0.0006306 -0.0000896 0.0002369 0.0000880 -0.0001330 -0.0001376 0.0000895 -0.0002517 0.0001493 0.0001763 0.0002575 0.0005921 -0.0007989 -0.0001095 0.0002336 0.0000665 -0.0003081 -0.0021729 0.0026654 -0.0079982 0.0111917 -0.0008644 0.0002081 -0.0000420 0.0003022 0.0002906 -0.0000120 -0.0019232 0.0035067 0.0003820 -0.0001055 -0.0001913 0.0001857 -0.0018207 0.0015880 0.0040643 -0.0100744 -0.0001736 0.0002435 -0.0004036 0.0016123 -0.0001218 0.0002390 -0.0000994 0.0002445 0.0000086 -0.0000805 -0.0001481 0.0001708 -0.0001277 0.0003272
-0.0000822 0.0002059 0.0000094 -0.0000653 -0.0000962 0.0000682 -0.0000553 0.0002089 -0.0000022 0.0001180 -0.0000632 0.0002712 0.0000014 -0.0000322 -0.0000257 0.0001025 -0.0000222 0.0001267 -0.0000225 -0.0000080 0.0000853 -0.0001946 0.0000362 -0.0000602 -0.0000294 -0.0000001 0.0000664 0.0000678 0.0000065 0.0001197 0.0000537 0.0003543 0.0000391 0.0001229 -0.0002637 0.0004125 0.0000119 0.0003741 -0.0005817 0.0005714 -0.0000483 0.0001211 -0.0000660 0.0001124 0.0002805 0.0000150 -0.0000033 0.0002298 -0.0000052 0.0005303 -0.0000582 0.0002967 -0.0000114 0.0001467 -0.0001008 0.0004520 -0.0000350 0.0004970 -0.0000569 0.0003185 -0.0000281 0.0004616 -0.0001387 -0.0000111 -0.0000121 -0.0000072 0.0000601 0.0002210 -0.0002267 0.0000886 0.0007095 0.0000224 -0.0192135 0.0077466 0.0184650 -0.0213556 -0.0000036 0.0000895 0.0000362 0.0002315 0.0009164 0.0013558 0.0010183 -0.0000989 -0.0000776 0.0005242 -0.0024283 0.0026301 -0.0005854 0.0009924 -0.0000874 0.0001778 -0.0104228 0.0097062 -0.0076367 0.0067151 0.0002156 -0.0000405 -0.0006384 0.0006910 -0.0004188 0.0005713 -0.0000456 0.0002787 -0.0001390 0.0005393 -0.0047551 0.0066791 -0.0031605 0.0081277 -0.0006784 0.0006692 -0.0005290 0.0005686 0.0008434 -0.0001712 -0.0000582 0.0000716 -0.0000705 0.0000712 -0.0001919 0.0002016 0.0007502 -0.0006771 0.0011604 0.0008709 0.0007558 0.0000856 -0.0000540 0.0004265 -0.0000958 0.0004100 -0.0033817 0.0108410 -0.0000025 -0.0002210 -0.0071829 0.0050870 0.0004392 -0.0007411 -0.0000917 0.0002865 -0.0001973 0.0005386 -0.0004940 0.0004037 0.0002054 0.0001378 -0.0007120 0.0013320 0.0001666 -0.0002469 0.0001504 -0.0000860 -0.0004443 -0.0001699 -0.0001737 0.0000505 -0.0002846 0.0000928 -0.0001710 -0.0000409 0.0003751 -0.0006715 -0.0001586 0.0003557 -0.0000332 0.0002141 -0.0001317 -0.0002276 -0.0001142 0.0000229 -0.0002290 0.0001551 0.0002584 0.0001100 0.0010802 -0.0012153 0.0000310 -0.0000493 0.0006817 -0.0009637 -0.0040887 0.0043198 0.0020606 0.0035705 -0.0001948 -0.0001832 0.0000154 0.0001730 0.0001929 -0.0002627 -0.0001996 0.0024295 0.0002562 0.0000396 -0.0002228 -0.0000312 0.0000423 -0.0002345 -0.0023680 0.0011564 -0.0001775 0.0001120 0.0004391 -0.0006391 -0.0000576 0.0000761 -0.0000566 0.0000541 -0.0000608 -0.0002254 -0.0001677 -0.0001079 0.0001092 -0.0000074
-0.0000742 0.0000372 0.0000141 -0.0002369 -0.0000882 -0.0001127 -0.0000538 0.0001658 0.0000018 0.0000470 -0.0000956 0.0002148 0.0000340 -0.0001566 -0.0000354 0.0000373 0.0000069 -0.0000099 0.0000283 -0.0001507 0.0000657 -0.0002903 0.0000389 -0.0002159 0.0000366 -0.0003110 0.0000614 -0.0000524 0.0000122 0.0000077 0.0000388 0.0002609 -0.0000120 0.0000451 -0.0001591 0.0000579 -0.0000018 0.0002708 -0.0000259 0.0004617 -0.0000582 -0.0000416 -0.0001350 0.0000761 0.0006733 -0.0006598 0.0000083 0.0001231 0.0001351 0.0001725 -0.0000731 0.0002710 -0.0000089 0.0001333 -0.0000898 0.0003066 -0.0000380 0.0004222 -0.0000220 0.0001028 0.0000021 0.0002602 -0.0006377 0.0002942 -0.0000443 -0.0001972 -0.0000201 -0.0000667 0.0000103 -0.0005890 0.0004834 0.0002710 0.0037939 -0.0096700 0.0126209 -0.0216708 0.0002840 -0.0003047 -0.0002507 0.0003926 -0.0014637 0.0015100 0.0019387 -0.0011725 -0.0001030 0.0005497 0.0004365 0.0010908 -0.0000843 0.0006376 -0.0001872 0.0003247 0.0017029 -0.0001113 -0.0022827 0.0025890 -0.0000217 -0.0000646 0.0003295 0.0005874 0.0000029 0.0002515 -0.0000064 0.0000963 0.0000595 0.0002661 -0.0013047 0.0055056 -0.0022564 -0.0027945 -0.0002922 0.0003802 -0.0001663 0.0003842 0.0014877 -0.0016772 -0.0000099 0.0000835 0.0001578 -0.0000410 -0.0000843 0.0001551 0.0001322 -0.0002616 0.0014601 -0.0014054 -0.0017320 0.0016525 -0.0001515 0.0006061 0.0000568 0.0003109 -0.0077763 0.0108944 0.0000510 -0.0001635 -0.0036034 0.0018468 0.0000276 -0.0003704 -0.0000193 0.0002695 -0.0002486 0.0006880 -0.0004438 0.0005370 0.0001228 0.0002159 -0.0007168 0.0009892 0.0005373 -0.0004490 0.0002820 -0.0002187 0.0000991 -0.0002530 -0.0001138 0.0000347 -0.0000665 -0.0000616 -0.0001612 0.0000630 -0.0001432 0.0001734 -0.0001191 0.0002121 0.0000205 0.0001376 0.0000661 -0.0003396 -0.0002074 0.0001055 -0.0000328 0.0000614 0.0006146 0.0001673 0.0004277 -0.0007420 -0.0000467 -0.0000569 0.0003665 -0.0007127 -0.0014687 0.0026735 0.0068790 -0.0045610 0.0003422 -0.0001877 0.0000627 0.0000316 0.0001146 -0.0003752 0.0001854 0.0003482 0.0001069 -0.0000809 -0.0001330 -0.0002951 -0.0004083 0.0006310 0.0004520 -0.0022875 -0.0000796 -0.0000381 0.0019570 -0.0028116 -0.0000336 -0.0000535 -0.0000862 -0.0000740 -0.0000155 -0.0004382 -0.0001882 -0.0002837 0.0000870 -0.0003388
-0.0000535 -0.0001242 0.0000338 -0.0004023 -0.0000813 -0.0002634 -0.0000416 0.0001355 0.0000077 -0.0000033 -0.0000489 0.0000362 0.0000295 -0.0001989 -0.0000259 -0.0000299 0.0000355 -0.0001426 0.0000486 -0.0002719 0.0001658 -0.0005036 0.0000508 -0.0003479 0.0001165 -0.0005173 0.0000489 -0.0001605 0.0000023 -0.0000560 0.0000272 0.0001624 -0.0000237 -0.0000274 -0.0000908 -0.0000767 -0.0000053 0.0001783 0.0004899 -0.0005198 -0.0000236 -0.0002087 -0.0001717 0.0000597 0.0003796 -0.0006936 0.0000131 0.0000715 0.0004027 -0.0002582 -0.0000682 0.0002531 -0.0000045 0.0001474 -0.0000649 0.0002124 -0.0000459 0.0004039 0.0000136 -0.0000374 0.0000248 0.0001369 -0.0004106 -0.0001591 0.0000230 -0.0003422 -0.0001308 -0.0001985 0.0002545 -0.0005270 -0.0002816 0.0008701 0.0112614 -0.0156067 -0.0026084 -0.0033368 0.0004471 -0.0005821 -0.0002367 0.0000284 0.0023708 -0.0044180 0.0007071 -0.0015824 -0.0000493 0.0003062 -0.0002772 0.0010667 -0.0002134 0.0006540 -0.0000620 0.0001189 0.0046966 -0.0011177 0.0031126 -0.0000968 0.0004226 -0.0006596 -0.0005917 0.0010771 0.0005370 -0.0003698 0.0002600 -0.0002212 0.0000472 0.0001543 -0.0111139 0.0110375 0.0046693 -0.0066055 -0.0001938 0.0002129 0.0002097 0.0000136 0.0019112 -0.0020920 -0.0000061 -0.0000392 0.0000462 -0.0001646 0.0001197 -0.0003604 -0.0011834 0.0002487 0.0001095 -0.0023090 0.0002811 -0.0003361 -0.0001567 0.0004419 0.0000271 0.0003335 -0.0177101 0.0132696 0.0000295 -0.0001346 -0.0035571 0.0026875 -0.0003404 -0.0002287 -0.0000438 0.0002017 -0.0001645 0.0003221 -0.0001904 0.0002419 -0.0001896 0.0002813 0.0006009 -0.0004725 0.0002379 -0.0001694 -0.0001888 0.0002179 0.0005094 -0.0001245 -0.0000592 -0.0000340 -0.0001319 -0.0001577 0.0000019 -0.0000720 -0.0006894 0.0011063 -0.0000236 0.0000786 0.0000866 0.0000441 -0.0000791 0.0000994 -0.0000955 -0.0000393 0.0002426 -0.0003197 0.0004775 -0.0000227 0.0002587 -0.0001190 -0.0001829 0.0001091 -0.0002685 -0.0000864 0.0004013 0.0014197 0.0056257 -0.0042318 0.0005669 -0.0003644 0.0000387 0.0000273 -0.0000817 -0.0003212 0.0011897 -0.0002994 -0.0001456 -0.0002123 -0.0001525 -0.0002755 0.0000191 -0.0001013 0.0038757 -0.0042852 -0.0000697 -0.0001053 0.0011002 -0.0005448 -0.0000361 -0.0000881 -0.0001300 0.0000012 0.0000052 -0.0005342 -0.0000632 -0.0004209 0.0000052 -0.0005283
-0.0000434 -0.0001750 0.0000041 -0.0004095 -0.0000791 -0.0003045 -0.0000380 0.0001120 0.0000076 -0.0000437 0.0000193 -0.0001047 -0.0000046 -0.0002008 -0.0000164 -0.0000851 0.0000033 -0.0001796 0.0000340 -0.0003294 -0.0000121 -0.0004239 0.0000166 -0.0004334 0.0001795 -0.0006342 0.0000300 -0.0002978 0.0000022 -0.0001970 0.0000145 0.0000070 0.0000399 -0.0002727 -0.0001358 -0.0000927 0.0000124 0.0000525 0.0006724 -0.0003848 0.0000198 -0.0003995 -0.0001734 -0.0000695 -0.0002767 -0.0001599 0.0000074 0.0000163 0.0003753 -0.0001933 -0.0000618 0.0002295 0.0000016 0.0001531 -0.0000577 0.0001086 -0.0000527 0.0004058 0.0000450 -0.0001581 0.0000142 0.0000540 0.0001675 -0.0005934 0.0001305 -0.0006055 -0.0000068 -0.0003854 0.0006249 -0.0008609 -0.0006178 0.0009085 0.0007735 -0.0063867 -0.0060144 0.0070959 -0.0000414 -0.0003868 -0.0001430 -0.0002758 0.0025761 -0.0046509 -0.0025006 0.0009660 0.0000394 0.0000077 0.0017202 -0.0018133 -0.0001445 -0.0000112 -0.0001159 -0.0000929 0.0047097 -0.0026605 0.0006876 0.0021905 0.0006780 -0.0007259 -0.0011645 0.0009866 0.0003586 -0.0004715 -0.0000054 -0.0000834 -0.0000427 -0.0000174 0.0019389 0.0019029 0.0068924 -0.0167960 -0.0001799 0.0001142 -0.0000950 0.0002274 0.0005264 0.0001859 -0.0000455 -0.0001220 -0.0001271 -0.0000945 0.0001173 -0.0005225 -0.0011816 0.0011329 -0.0026869 0.0018760 -0.0003555 0.0001564 0.0000015 0.0000638 -0.0000417 0.0004082 -0.0074742 0.0029862 0.0001221 -0.0004037 -0.0023129 0.0016058 -0.0000034 -0.0008445 -0.0000422 -0.0000187 -0.0000940 0.0001372 0.0000619 -0.0003249 -0.0000850 -0.0000239 0.0017150 -0.0011926 -0.0003831 -0.0002229 -0.0003625 0.0001198 0.0006361 -0.0003825 -0.0001174 -0.0001164 -0.0000712 -0.0004651 0.0001043 -0.0004169 -0.0011275 0.0009601 -0.0001071 -0.0001584 0.0001269 -0.0002352 0.0001070 -0.0001302 -0.0000055 -0.0002264 0.0002808 -0.0005678 -0.0006324 0.0001478 -0.0002303 0.0000573 -0.0000942 -0.0000931 -0.0005496 -0.0003173 -0.0001222 -0.0003658 0.0077054 -0.0018659 0.0003524 -0.0007348 0.0000435 -0.0001004 -0.0001202 -0.0004797 0.0035604 -0.0036984 -0.0000435 -0.0004098 -0.0001756 -0.0003188 -0.0002621 0.0006408 -0.0075660 -0.0021608 -0.0001483 -0.0000961 0.0009260 -0.0004225 -0.0000369 -0.0001098 0.0001429 -0.0002111 -0.0001342 -0.0003205 -0.0000419 -0.0003098 -0.0000870 -0.0004128
-0.0000274 -0.0000437 0.0000272 -0.0002700 -0.0000550 -0.0001884 -0.0000415 0.0001467 0.0000048 0.0000184 0.0000084 -0.0000068 0.0000155 -0.0001594 -0.0000239 0.0000034 -0.0000014 -0.0001217 0.0000630 -0.0002518 0.0000480 -0.0003722 -0.0000064 -0.0002258 0.0000804 -0.0003833 0.0000065 -0.0003466 0.0000098 -0.0002490 -0.0000028 -0.0000560 0.0000034 -0.0003212 -0.0000502 -0.0001714 0.0000210 0.0000177 -0.0001879 0.0004750 0.0000357 -0.0003770 -0.0000975 -0.0001817 -0.0001027 -0.0001658 0.0000126 -0.0000237 0.0001446 -0.0000764 -0.0000585 0.0002338 0.0000040 0.0001460 -0.0000770 0.0000676 -0.0000549 0.0004134 0.0000606 -0.0002341 0.0000048 0.0000047 -0.0004942 -0.0001349 0.0001072 -0.0006863 0.0000165 -0.0005824 -0.0009170 0.0002810 -0.0002200 0.0003640 -0.0069619 0.0071173 -0.0061784 0.0002662 -0.0005358 -0.0002732 0.0000937 -0.0005731 -0.0000075 -0.0009603 -0.0012321 0.0009076 0.0000335 -0.0001929 0.0032098 -0.0026454 0.0011619 -0.0011245 -0.0000270 -0.0004484 0.0099229 -0.0132150 0.0012927 -0.0001536 0.0005533 -0.0008713 -0.0005315 0.0001341 0.0004272 -0.0006002 -0.0000936 -0.0002395 -0.0000193 -0.0002694 0.0053957 -0.0084921 0.0038361 -0.0256754 -0.0000276 -0.0000989 -0.0006330 0.0005985 -0.0012541 0.0008078 0.0000435 -0.0003330 -0.0000325 -0.0003233 0.0000043 -0.0005467 0.0006655 -0.0011412 -0.0015266 0.0006795 0.0006572 0.0002139 -0.0000879 0.0001751 0.0000110 0.0003897 0.0068561 -0.0105935 0.0000696 -0.0005126 -0.0027221 0.0024993 0.0002379 -0.0011768 0.0000185 -0.0002156 -0.0001538 0.0001529 -0.0002988 0.0000098 -0.0001996 -0.0001409 0.0013842 -0.0011093 -0.0003353 -0.0005653 -0.0001970 -0.0001669 0.0004573 -0.0009347 -0.0001570 -0.0001923 -0.0001295 -0.0005388 0.0000284 -0.0005025 -0.0012145 0.0012591 -0.0002560 -0.0003922 -0.0001201 -0.0002660 0.0008566 -0.0009963 -0.0001622 -0.0002482 0.0000134 -0.0007181 -0.0003866 -0.0002211 -0.0005064 -0.0003487 -0.0000893 -0.0003581 -0.0002489 -0.0009091 0.0001925 -0.0013477 0.0020782 0.0034269 0.0006653 -0.0010992 0.0000741 -0.0003775 0.0002400 -0.0011227 0.0006471 -0.0016004 0.0001335 -0.0004954 -0.0000467 -0.0007471 0.0003501 0.0004111 -0.0065733 -0.0013353 -0.0001083 -0.0003498 0.0011918 -0.0025527 -0.0000077 -0.0003184 -0.0000687 -0.0003896 0.0000485 -0.0007065 -0.0000916 -0.0004030 -0.0004118 -0.0001589
0.0000022 -0.0001224 0.0000465 -0.0003611 -0.0000425 -0.0003032 -0.0000452 0.0001185 0.0000105 -0.0000057 0.0000174 -0.0000315 0.0000640 -0.0002307 -0.0000194 -0.0000334 0.0000589 -0.0002460 0.0000501 -0.0002405 -0.0000441 -0.0002429 -0.0000132 -0.0001487 -0.0000757 -0.0002037 -0.0000067 -0.0004779 -0.0000426 -0.0002952 -0.0000207 -0.0001692 0.0001289 -0.0004245 0.0001078 -0.0003026 0.0000363 -0.0000011 -0.0008249 0.0007071 0.0000549 -0.0002918 -0.0000144 -0.0002329 0.0000101 -0.0005249 0.0000187 -0.0000256 0.0000122 -0.0000164 -0.0000879 0.0003019 -0.0000048 0.0001690 -0.0000736 0.0002103 -0.0000645 0.0005541 0.0000761 -0.0001046 0.0000225 0.0001433 -0.0003585 0.0000839 0.0000287 -0.0004377 0.0000435 -0.0005496 -0.0018235 0.0006573 0.0002573 -0.0000588 -0.0089011 0.0114440 0.0106292 -0.0210881 -0.0006666 0.0001525 0.0000932 -0.0003675 0.0056491 -0.0046904 -0.0002073 0.0005122 -0.0000473 -0.0001120 -0.0022698 0.0021451 0.0007334 -0.0004803 0.0000364 -0.0004671 -0.0022117 -0.0023836 -0.0019814 -0.0005024 0.0001439 -0.0005438 0.0013850 -0.0022412 0.0011695 -0.0007631 -0.0000741 -0.0002825 0.0001625 -0.0004868 -0.0059412 -0.0010052 0.0073347 -0.0265823 -0.0003275 0.0000987 -0.0011077 0.0009763 0.0000814 -0.0012589 0.0000960 -0.0004115 0.0001098 -0.0005212 0.0000984 -0.0007274 0.0010905 -0.0028988 0.0013248 -0.0028994 0.0002730 0.0008718 -0.0003665 0.0004269 0.0000459 0.0002499 -0.0019642 0.0015681 -0.0000279 -0.0005777 -0.0083309 0.0084175 0.0003970 -0.0009541 0.0001015 -0.0003756 -0.0001834 0.0000504 -0.0001685 -0.0000347 -0.0002656 -0.0001024 0.0008398 -0.0016336 0.0001941 -0.0008000 -0.0002543 -0.0002373 -0.0006882 -0.0005560 -0.0000861 -0.0003159 -0.0001238 -0.0005150 -0.0000826 -0.0006379 -0.0008574 0.0006801 -0.0002353 -0.0004068 -0.0002009 -0.0001850 0.0008964 -0.0011822 -0.0000340 -0.0004968 -0.0001256 -0.0007844 0.0006966 -0.0011622 -0.0000223 -0.0006213 0.0000082 -0.0005994 0.0001699 -0.0012909 0.0014155 -0.0025274 -0.0004905 0.0003133 0.0007596 -0.0011463 0.0001196 -0.0005533 0.0002422 -0.0015557 -0.0000025 -0.0007072 0.0004149 -0.0008104 0.0000473 -0.0010060 0.0006105 -0.0009003 -0.0032218 0.0117586 -0.0000781 -0.0004446 0.0016274 -0.0023127 -0.0000236 -0.0004340 -0.0000679 -0.0005276 0.0001338 -0.0010788 -0.0000307 -0.0007094 -0.0002160 -0.0004974
-0.0000230 -0.0003489 0.0000380 -0.0006112 -0.0000271 -0.0005801 -0.0000583 0.0000345 0.0000128 -0.0001469 0.0000791 -0.0002924 0.0000850 -0.0004337 -0.0000121 -0.0002178 0.0000394 -0.0003966 0.0000670 -0.0004081 -0.0001162 -0.0003065 0.0000181 -0.0003730 0.0000035 -0.0004719 -0.0000183 -0.0007222 -0.0000381 -0.0005439 -0.0000423 -0.0004139 0.0001373 -0.0005531 0.0003477 -0.0007408 0.0000311 -0.0001690 -0.0000300 0.0003155 0.0000212 -0.0003582 -0.0000007 -0.0003307 -0.0001818 -0.0006287 0.0000122 -0.0000975 0.0000033 -0.0000170 -0.0001071 0.0003139 -0.0000184 0.0001626 -0.0000594 0.0002484 -0.0000750 0.0006379 0.0000861 -0.0000752 0.0000488 0.0001804 0.0002036 -0.0002765 -0.0000355 -0.0003633 0.0000864 -0.0005517 -0.0002934 -0.0009341 0.0000686 0.0001077 -0.0023194 -0.0002120 0.0178441 -0.0405851 -0.0001848 0.0000571 -0.0000841 -0.0001077 0.0055420 -0.0041446 -0.0003697 0.0003864 -0.0000470 -0.0000310 -0.0010612 0.0008464 0.0000574 0.0000526 -0.0001478 -0.0003235 -0.0035462 0.0031102 -0.0066322 -0.0011478 0.0000289 -0.0002281 0.0009525 -0.0016748 0.0005731 -0.0001548 -0.0001737 -0.0001850 0.0002275 -0.0006542 -0.0046900 0.0017597 0.0171152 -0.0416012 -0.0002966 0.0001972 -0.0007461 0.0007825 0.0000450 -0.0004227 0.0000307 -0.0002189 0.0000448 -0.0002783 0.0002298 -0.0006309 -0.0004583 -0.0009106 -0.0007577 -0.0019666 0.0007074 0.0003874 -0.0002521 0.0002926 -0.0001431 0.0003043 -0.0127125 0.0099454 0.0000763 -0.0005088 -0.0047850 0.0057861 0.0009601 -0.0013946 0.0000876 -0.0002290 0.0000408 -0.0002101 -0.0000581 -0.0000923 0.0000358 -0.0001683 0.0008014 -0.0016047 0.0000187 -0.0003420 -0.0003179 -0.0000884 -0.0009488 0.0001794 -0.0000467 -0.0003216 0.0001520 -0.0006896 -0.0000980 -0.0005861 0.0000136 -0.0003042 -0.0001773 -0.0003171 -0.0000629 -0.0002411 0.0005863 -0.0008046 0.0001143 -0.0005253 -0.0003335 -0.0007019 0.0003536 -0.0010276 -0.0004548 -0.0002299 0.0001038 -0.0006577 0.0002567 -0.0010461 -0.0004989 -0.0019936 0.0115884 -0.0181977 -0.0000812 -0.0003765 0.0001183 -0.0005719 0.0002213 -0.0016222 0.0034793 -0.0056647 0.0001968 -0.0006177 -0.0000213 -0.0009669 0.0000138 -0.0003289 0.0049838 -0.0056811 0.0000468 -0.0005637 -0.0004915 -0.0003978 -0.0000469 -0.0004228 0.0001247 -0.0006364 0.0000577 -0.0010692 0.0000282 -0.0008648 0.0000812 -0.0006302
-0.0000569 -0.0004385 0.0000571 -0.0007307 -0.0000155 -0.0007112 -0.0000664 0.0000059 0.0000136 -0.0002078 0.0001049 -0.0004605 0.0000979 -0.0005486 -0.0000120 -0.0002876 0.0000196 -0.0004638 0.0000993 -0.0004834 0.0000953 -0.0005724 0.0000969 -0.0005277 0.0000651 -0.0005305 -0.0000300 -0.0008234 0.0000095 -0.0007306 -0.0000584 -0.0005848 0.0000561 -0.0005554 0.0003285 -0.0009220 0.0000140 -0.0002972 -0.0002813 0.0000871 -0.0000048 -0.0004432 -0.0000633 -0.0003796 -0.0001742 -0.0003523 0.0000207 -0.0002138 0.0003885 -0.0004663 -0.0001044 0.0002660 -0.0000303 0.0001112 -0.0000680 0.0001507 -0.0000824 0.0005875 0.0001089 -0.0002088 -0.0000010 0.0001013 0.0001084 -0.0002583 0.0000175 -0.0004621 0.0002519 -0.0007576 0.0004576 -0.0011430 -0.0007595 0.0007078 0.0116112 -0.0159167 -0.0057519 -0.0048894 0.0004851 -0.0008791 0.0001762 -0.0006547 0.0025792 0.0003257 -0.0002272 0.0003312 -0.0000571 -0.0001237 0.0008772 0.0006125 0.0002634 -0.0001824 0.0000430 -0.0006490 -0.0014976 0.0026815 0.0051750 -0.0086629 -0.0000970 -0.0002836 -0.0016208 0.0013812 -0.0006904 0.0005146 -0.0001074 -0.0004648 -0.0000940 -0.0004601 -0.0062253 0.0050940 0.0086414 -0.0233598 -0.0001545 0.0001625 0.0001612 0.0000926 -0.0017792 0.0009191 0.0000457 -0.0001303 -0.0000377 -0.0001251 0.0002685 -0.0004355 -0.0007458 -0.0005558 0.0008733 -0.0012859 0.0024960 -0.0011675 -0.0001189 0.0001332 -0.0001292 0.0003175 -0.0059471 0.0107608 0.0001541 -0.0003797 -0.0016982 0.0020488 0.0005510 -0.0011160 0.0000368 -0.0000866 0.0006561 -0.0006042 0.0001126 -0.0001205 0.0001311 -0.0002122 0.0003842 -0.0012903 -0.0007190 0.0003814 -0.0002607 0.0002487 -0.0004729 -0.0000117 -0.0001067 -0.0002047 0.0002249 -0.0007678 -0.0000777 -0.0003273 -0.0007606 0.0009450 -0.0002470 -0.0001381 0.0001042 -0.0003958 0.0004564 -0.0003430 0.0000185 -0.0002472 -0.0002638 -0.0008984 -0.0001799 -0.0002975 -0.0008576 -0.0000387 0.0000617 -0.0004632 -0.0002123 -0.0006724 0.0005261 -0.0019221 0.0094060 -0.0103736 -0.0003986 0.0002149 0.0001084 -0.0003703 0.0003501 -0.0013828 -0.0017314 -0.0000800 -0.0002095 -0.0001050 -0.0000328 -0.0007859 0.0004850 -0.0005639 0.0016066 0.0040192 -0.0000069 -0.0004180 -0.0017566 0.0009097 0.0000136 -0.0003520 -0.0000081 -0.0004371 0.0000749 -0.0009635 0.0000666 -0.0007944 -0.0000884 -0.0002733
-0.0000276 -0.0003804 0.0000684 -0.0006519 -0.0000094 -0.0006257 -0.0000662 -0.0000055 0.0000136 -0.0001828 0.0000678 -0.0004435 0.0000936 -0.0005424 -0.0000148 -0.0002647 0.0000077 -0.0004665 0.0001064 -0.0004571 0.0000469 -0.0005449 0.0001073 -0.0005406 0.0001192 -0.0005409 -0.0000354 -0.0008594 -0.0000105 -0.0007607 -0.0000840 -0.0006746 0.0000943 -0.0005905 0.0001333 -0.0007857 0.0000207 -0.0003611 -0.0002855 -0.0005252 0.0000168 -0.0004970 -0.0001210 -0.0003774 -0.0000537 -0.0004628 0.0000093 -0.0002371 0.0003506 -0.0006196 -0.0000864 0.0002199 -0.0000336 0.0000799 -0.0000809 0.0001292 -0.0000781 0.0005616 0.0000867 -0.0002163 -0.0000242 0.0000739 -0.0000505 -0.0004762 0.0000916 -0.0005015 0.0003440 -0.0008467 -0.0013257 0.0003035 -0.0003889 0.0003722 0.0028390 0.0022133 -0.0024212 -0.0039758 -0.0003076 -0.0000611 0.0000153 -0.0004539 0.0008727 0.0021058 0.0010015 -0.0009478 -0.0000944 -0.0001416 -0.0018682 0.0018690 -0.0011102 0.0012444 -0.0000180 -0.0006366 -0.0012366 0.0025086 -0.0023319 0.0028457 -0.0001557 -0.0002205 -0.0007052 0.0001117 -0.0007148 0.0004470 -0.0001923 -0.0003826 -0.0000475 -0.0005261 -0.0013515 -0.0097282 0.0047269 -0.0107420 0.0000971 -0.0000918 0.0002142 0.0000540 -0.0004288 -0.0006250 0.0000589 -0.0001746 0.0002302 -0.0004703 0.0003566 -0.0006039 -0.0000109 -0.0008019 0.0008033 -0.0008926 0.0011711 -0.0005298 -0.0000178 -0.0000711 0.0000773 0.0001679 -0.0081255 0.0107960 0.0000246 -0.0003110 -0.0004500 -0.0023751 0.0003319 -0.0008738 -0.0000382 -0.0001869 0.0002837 -0.0003787 0.0006730 -0.0007087 -0.0000605 -0.0002043 -0.0004905 -0.0007043 -0.0005822 -0.0004480 -0.0001957 0.0002988 -0.0004799 0.0000288 -0.0001686 -0.0001760 0.0000965 -0.0006566 0.0000908 -0.0004852 -0.0003739 0.0007979 -0.0001403 -0.0002863 0.0002610 -0.0004526 0.0005308 -0.0005890 -0.0002001 0.0000251 0.0000852 -0.0010950 -0.0000337 -0.0000903 -0.0003919 0.0000583 -0.0000234 -0.0002971 -0.0007906 -0.0003458 0.0022973 -0.0025418 0.0032075 -0.0036536 -0.0007809 0.0003956 0.0001056 -0.0002180 0.0004705 -0.0013463 -0.0080467 0.0060493 -0.0000658 -0.0001981 0.0000819 -0.0006944 0.0002944 -0.0011069 -0.0019407 0.0192883 0.0000267 -0.0002578 -0.0001438 0.0008974 0.0000021 -0.0001792 0.0000168 -0.0002125 -0.0000101 -0.0005440 0.0000420 -0.0003166 -0.0002035 0.0000933
0.0000013 -0.0001028 0.0000640 -0.0003029 -0.0000117 -0.0002921 -0.0000877 0.0000990 0.0000075 -0.0000414 0.0000492 -0.0002236 0.0000690 -0.0003641 -0.0000303 -0.0000812 0.0000007 -0.0002964 0.0000178 -0.0001943 -0.0000343 -0.0003198 0.0000834 -0.0002145 0.0001106 -0.0003601 -0.0000488 -0.0007397 -0.0000165 -0.0006522 -0.0000968 -0.0005967 0.0000529 -0.0003805 0.0001723 -0.0006412 0.0000200 -0.0002532 0.0002688 -0.0005092 0.0000416 -0.0002574 -0.0001004 -0.0002555 0.0003642 -0.0005961 -0.0000071 -0.0001623 -0.0000790 -0.0002876 -0.0000866 0.0002367 -0.0000393 0.0000796 -0.0000939 0.0001551 -0.0000833 0.0005740 0.0000531 -0.0001278 -0.0000492 0.0001219 -0.0001570 -0.0004787 0.0001365 -0.0005112 0.0002295 -0.0007195 -0.0029215 0.0014112 -0.0003579 0.0005480 -0.0034752 0.0079112 0.0121998 -0.0259141 -0.0005528 0.0003437 -0.0003038 0.0000252 -0.0001360 0.0009705 0.0014056 -0.0009968 -0.0000621 -0.0001925 -0.0004086 -0.0005298 -0.0014234 0.0015388 -0.0001612 -0.0004455 0.0026133 -0.0024690 -0.0024667 0.0020993 -0.0001152 -0.0001975 -0.0004457 0.0000318 -0.0004228 0.0000494 -0.0001615 -0.0002733 0.0000083 -0.0005580 0.0019063 -0.0243930 0.0023890 0.0025885 -0.0000070 -0.0001299 -0.0002805 0.0004331 0.0011305 -0.0018715 0.0000412 -0.0001933 0.0001597 -0.0005107 0.0000896 -0.0005156 -0.0008018 0.0004832 -0.0011686 0.0001469 0.0006712 -0.0001301 -0.0000689 -0.0001442 -0.0000118 0.0001982 -0.0112791 0.0030400 0.0000076 -0.0003857 -0.0003993 -0.0022781 0.0003594 -0.0011092 -0.0000259 -0.0003131 -0.0003960 0.0000834 0.0002664 -0.0004469 -0.0001634 -0.0002311 -0.0018300 0.0006273 -0.0000402 -0.0011357 0.0000186 -0.0000711 0.0002552 -0.0007605 -0.0002693 -0.0000971 0.0001755 -0.0007981 0.0001757 -0.0006960 0.0004090 -0.0003163 -0.0001180 -0.0003951 0.0001824 -0.0003011 0.0002286 -0.0005925 -0.0000540 -0.0000713 0.0001376 -0.0011425 -0.0001553 -0.0001950 0.0000656 -0.0001023 0.0000236 -0.0004388 -0.0004495 -0.0005623 0.0012168 -0.0018420 0.0044806 -0.0093724 -0.0003348 0.0001080 0.0000980 -0.0002403 0.0004754 -0.0012820 -0.0028521 0.0012297 0.0000092 -0.0004263 0.0000528 -0.0007003 0.0002347 -0.0010305 0.0005968 0.0188084 -0.0000774 -0.0002594 -0.0006206 0.0006426 -0.0000005 -0.0001964 0.0001100 -0.0002691 -0.0000940 -0.0004083 -0.0000204 -0.0001418 -0.0002882 0.0001458
-0.0000062 -0.0000368 0.0000498 -0.0002213 -0.0000287 -0.0002011 -0.0000924 0.0001154 0.0000028 -0.0000089 0.0000425 -0.0001715 0.0000708 -0.0002911 -0.0000357 -0.0000488 -0.0000036 -0.0002188 0.0000193 -0.0000997 -0.0000337 -0.0001213 0.0000629 -0.0000149 0.0000002 -0.0000947 -0.0000466 -0.0006847 -0.0000321 -0.0005672 -0.0000874 -0.0005547 0.0000733 -0.0003460 0.0002194 -0.0004768 0.0000011 -0.0001365 0.0006426 -0.0004713 0.0000363 -0.0000539 -0.0000851 -0.0001534 0.0004192 -0.0005672 -0.0000119 -0.0001062 -0.0000803 -0.0001336 -0.0001056 0.0002914 -0.0000475 0.0000866 -0.0001001 0.0002913 -0.0001216 0.0006977 0.0000131 0.0001037 -0.0001051 0.0003811 -0.0003779 -0.0000805 0.0000868 -0.0002268 0.0001062 -0.0003067 -0.0008992 0.0005085 -0.0003515 0.0005979 0.0038760 -0.0032897 0.0003887 0.0035353 -0.0000796 0.0000797 0.0000007 -0.0001389 -0.0057903 0.0058348 -0.0002279 0.0011751 -0.0000455 0.0000153 0.0012237 -0.0009336 -0.0005705 0.0006941 0.0000697 -0.0003542 0.0017874 -0.0017891 0.0002108 0.0007941 -0.0002384 0.0002754 -0.0007439 0.0015272 -0.0005866 0.0000790 -0.0000150 -0.0004209 -0.0002139 -0.0001339 0.0021329 -0.0095966 -0.0069370 0.0192420 -0.0000915 -0.0000845 -0.0005972 0.0006403 0.0008437 -0.0009581 0.0000217 -0.0000766 0.0001441 -0.0003758 0.0000682 -0.0004420 -0.0004326 0.0008765 0.0007404 -0.0022975 0.0000786 0.0002627 -0.0003270 0.0002007 0.0001518 0.0000592 -0.0111235 0.0084081 0.0000479 -0.0004638 -0.0019355 0.0020344 0.0001753 -0.0010312 0.0000026 -0.0002771 0.0000105 -0.0000674 -0.0002369 -0.0002396 -0.0001189 -0.0001545 -0.0003315 -0.0003861 -0.0001934 -0.0004468 -0.0000355 -0.0000273 0.0007626 -0.0023518 -0.0001811 -0.0001541 -0.0001332 -0.0005714 0.0000363 -0.0005584 0.0004095 -0.0006110 -0.0001959 -0.0001416 0.0002434 -0.0003745 0.0000354 -0.0002033 0.0000666 -0.0002509 0.0001976 -0.0011602 -0.0007060 0.0001783 0.0003737 -0.0005057 -0.0000270 -0.0004872 0.0004671 -0.0013647 0.0008510 -0.0018908 -0.0035265 0.0037478 0.0004001 -0.0007259 0.0001081 -0.0002206 0.0005388 -0.0014861 -0.0012590 0.0020246 -0.0004420 0.0002015 0.0000288 -0.0006841 0.0017833 -0.0018754 0.0013177 0.0160161 -0.0002012 -0.0002411 -0.0007848 0.0004494 0.0000195 -0.0001933 0.0000704 -0.0001376 -0.0000799 -0.0005648 -0.0000030 -0.0003534 -0.0003887 -0.0000237
-0.0000204 -0.0001798 0.0000489 -0.0004045 -0.0000340 -0.0003231 -0.0000834 0.0000134 -0.0000058 -0.0001058 0.0000403 -0.0003254 0.0000550 -0.0004026 -0.0000323 -0.0002042 -0.0000332 -0.0002834 0.0001033 -0.0002118 0.0000264 -0.0002042 0.0000742 -0.0001821 -0.0000630 -0.0001753 -0.0000345 -0.0007920 -0.0000536 -0.0006502 -0.0000897 -0.0006523 0.0000120 -0.0003694 0.0002553 -0.0005460 -0.0000080 -0.0002176 0.0008189 -0.0010358 0.0000549 -0.0002274 -0.0000734 -0.0002451 0.0000848 -0.0006865 -0.0000192 -0.0001472 0.0000318 -0.0003238 -0.0001436 0.0002868 -0.0000523 0.0000514 -0.0001195 0.0003327 -0.0001475 0.0007235 -0.0000192 0.0001736 -0.0000908 0.0004346 0.0000133 -0.0008164 0.0000256 0.0000098 0.0001310 -0.0000918 0.0004551 -0.0003954 0.0000143 0.0002709 0.0021020 0.0009439 -0.0093772 0.0189225 -0.0000370 0.0000431 0.0002186 -0.0002686 -0.0086789 0.0090768 -0.0015129 0.0023099 -0.0000884 0.0002850 0.0042667 -0.0026822 0.0000005 0.0007808 -0.0001992 0.0000271 0.0019987 0.0024429 -0.0071000 0.0079641 -0.0003349 0.0006179 -0.0025822 0.0023449 -0.0001207 -0.0000523 -0.0000522 -0.0003100 -0.0003200 0.0002283 0.0071786 -0.0137469 -0.0047941 0.0176440 -0.0003600 0.0004244 -0.0004289 0.0006049 -0.0000830 0.0009253 0.0000160 0.0000637 -0.0000579 0.0001718 0.0002138 -0.0002293 -0.0006119 0.0012366 0.0017940 -0.0047096 -0.0012930 0.0016035 -0.0001885 0.0002978 0.0002460 0.0000795 -0.0022275 0.0110720 -0.0000162 -0.0000793 0.0009188 -0.0028427 0.0005723 -0.0013360 -0.0001876 0.0002120 0.0001788 0.0001632 0.0001823 -0.0003921 -0.0000186 0.0000834 0.0010130 -0.0018000 -0.0001210 0.0002734 0.0000005 0.0004155 -0.0008361 -0.0006914 -0.0000576 -0.0001191 -0.0001459 -0.0002763 -0.0000753 -0.0001120 -0.0003426 0.0005073 0.0000071 0.0000002 0.0002412 -0.0001141 -0.0000243 0.0000700 -0.0000238 -0.0000271 -0.0000017 -0.0008136 -0.0007572 0.0007429 0.0004430 -0.0007488 0.0000133 -0.0003767 0.0004659 -0.0012211 -0.0002198 0.0005101 -0.0091207 0.0081689 0.0001622 -0.0002409 0.0001110 -0.0000413 0.0005101 -0.0013171 -0.0000226 -0.0001443 -0.0005033 0.0004761 0.0000279 -0.0005620 0.0017583 -0.0017482 0.0009092 0.0129916 -0.0000517 -0.0003675 0.0002296 -0.0007516 0.0000165 -0.0000874 -0.0000550 0.0002062 -0.0000183 -0.0006587 0.0000464 -0.0004573 -0.0002079 0.0000143
-0.0000309 -0.0002242 0.0000546 -0.0004505 -0.0000155 -0.0003773 -0.0000982 0.0000138 -0.0000160 -0.0001337 0.0000214 -0.0003601 0.0000374 -0.0004564 -0.0000412 -0.0002363 0.0000076 -0.0003436 0.0000487 -0.0002083 0.0001024 -0.0003457 0.0001075 -0.0002503 -0.0000680 -0.0001488 -0.0000152 -0.0007490 0.0000032 -0.0006774 -0.0000866 -0.0005885 0.0000632 -0.0004657 0.0002431 -0.0005733 -0.0000026 -0.0002373 -0.0004692 -0.0003764 0.0000526 -0.0002913 -0.0000487 -0.0002888 -0.0000235 -0.0004200 -0.0000250 -0.0001669 0.0001493 -0.0008617 -0.0001822 0.0002587 -0.0000626 0.0000179 -0.0001438 0.0002276 -0.0001376 0.0005824 -0.0000272 0.0000726 -0.0000942 0.0003031 0.0004426 -0.0007033 0.0000090 -0.0000330 0.0003658 -0.0003229 -0.0013693 0.0008379 0.0001291 0.0002199 0.0010861 -0.0018235 -0.0070791 0.0072918 0.0000581 -0.0001872 0.0002447 -0.0002112 -0.0040167 0.0059613 -0.0038957 0.0038876 -0.0000952 0.0002135 0.0013329 -0.0008049 -0.0000491 0.0006014 -0.0002228 0.0000096 -0.0007708 0.0050735 -0.0061324 0.0029937 -0.0002424 0.0004057 -0.0024827 0.0014551 -0.0001235 -0.0000764 -0.0000797 -0.0003014 -0.0000897 -0.0000396 -0.0044498 0.0026861 0.0077994 -0.0077548 -0.0003996 0.0004141 0.0001141 0.0001654 -0.0004626 0.0010364 -0.0000085 0.0000586 -0.0002689 0.0004579 0.0000245 0.0000811 -0.0013303 0.0016123 0.0008946 -0.0017875 -0.0013793 0.0017381 0.0000071 0.0000636 -0.0002109 0.0005145 0.0018553 0.0097397 -0.0000526 0.0001481 0.0017591 -0.0049710 0.0007807 -0.0014985 -0.0001955 0.0003396 0.0000698 0.0004145 0.0001293 -0.0001453 0.0000858 0.0001374 -0.0001623 -0.0002208 0.0001121 0.0002969 0.0002687 0.0003812 -0.0013864 0.0006206 -0.0001232 0.0000203 -0.0000047 -0.0002847 -0.0001036 0.0000968 -0.0003560 0.0005651 0.0000302 0.0000677 0.0001609 0.0001408 0.0001912 -0.0001363 0.0000212 0.0002840 -0.0000934 -0.0005209 -0.0006473 0.0008579 -0.0003316 0.0000481 0.0001011 -0.0001170 0.0001700 -0.0005182 -0.0003755 0.0010626 -0.0035922 0.0037563 0.0004926 -0.0000823 0.0000990 0.0001985 0.0000292 -0.0003341 -0.0021612 -0.0005267 -0.0001212 -0.0000098 -0.0000107 -0.0002280 0.0001024 -0.0002228 -0.0015487 0.0164593 -0.0000232 -0.0001537 0.0011247 -0.0005011 -0.0000374 0.0001512 -0.0000399 0.0004251 0.0000423 -0.0004237 -0.0000319 -0.0000324 -0.0000966 0.0003890
-0.0000470 0.0000377 0.0000365 -0.0001619 -0.0000141 -0.0001192 -0.0001009 0.0000567 -0.0000248 -0.0000691 0.0000058 -0.0002865 0.0000476 -0.0003692 -0.0000456 -0.0001502 -0.0000030 -0.0002407 0.0000974 -0.0002577 0.0000664 -0.0003818 0.0000563 -0.0001267 -0.0000220 0.0000128 -0.0000079 -0.0006221 0.0000117 -0.0005320 -0.0000805 -0.0004636 0.0000340 -0.0003418 0.0000745 -0.0004023 -0.0000077 -0.0001780 -0.0013825 0.0004366 0.0000340 -0.0002641 -0.0000433 -0.0002680 0.0000206 -0.0002072 -0.0000385 -0.0001234 -0.0001228 -0.0006042 -0.0001683 0.0002271 -0.0000622 0.0000087 -0.0001483 0.0001382 -0.0001534 0.0005025 -0.0000472 0.0000312 -0.0001516 0.0002995 0.0009095 -0.0007598 0.0000185 -0.0000783 0.0003197 -0.0004903 -0.0019354 0.0010812 0.0003271 0.0000382 0.0024968 -0.0059273 -0.0032753 -0.0072764 -0.0006202 0.0006312 0.0000660 -0.0000213 -0.0004125 0.0042755 -0.0011640 0.0017043 -0.0000612 0.0001470 -0.0023656 0.0020409 -0.0003707 0.0002449 -0.0000012 0.0000666 -0.0002700 0.0015707 -0.0003068 -0.0033714 -0.0002979 0.0004940 0.0001128 -0.0011332 -0.0006585 0.0002429 -0.0000045 -0.0004940 -0.0000707 -0.0001440 -0.0084917 0.0010818 0.0188838 -0.0313991 -0.0001861 0.0001812 0.0003448 -0.0001051 -0.0005765 0.0011412 -0.0000779 0.0000624 0.0000995 0.0000772 -0.0001272 0.0001607 -0.0001545 0.0008876 0.0001748 -0.0008562 -0.0016584 0.0016098 0.0000426 -0.0001166 -0.0002630 0.0004978 -0.0032933 0.0109363 -0.0000981 0.0001126 0.0013819 -0.0033898 -0.0004514 0.0001030 -0.0000727 0.0000852 -0.0004063 0.0006361 0.0000854 -0.0001075 0.0000593 0.0000087 0.0012770 -0.0008437 -0.0000296 0.0001945 -0.0000620 0.0005210 0.0006183 -0.0012425 -0.0001429 -0.0000859 0.0000463 -0.0003148 -0.0000589 -0.0001110 -0.0003994 0.0005834 -0.0000863 0.0000582 0.0000671 0.0002237 0.0004792 -0.0002782 -0.0000600 0.0003384 0.0000867 -0.0006587 -0.0003131 0.0004610 -0.0013185 0.0009776 -0.0001051 0.0001122 -0.0003157 -0.0000730 -0.0010187 0.0014653 -0.0039186 0.0069227 0.0003436 -0.0002000 0.0000628 0.0003094 0.0000156 -0.0003119 -0.0049345 0.0025850 -0.0004204 0.0002861 -0.0000758 0.0000081 -0.0010697 0.0011602 -0.0045413 0.0141629 0.0000664 0.0000633 0.0016906 -0.0001762 -0.0000705 0.0003522 0.0001225 0.0003662 0.0000302 -0.0000907 -0.0000966 0.0004341 -0.0002025 0.0005980
-0.0000656 0.0003855 0.0000465 0.0001808 -0.0000299 0.0002192 -0.0001072 0.0001495 -0.0000281 0.0000876 -0.0000017 -0.0000237 0.0000398 -0.0001958 -0.0000591 0.0001029 -0.0000525 0.0000157 0.0000779 0.0000104 -0.0000173 -0.0000509 -0.0000086 0.0002004 -0.0000478 0.0002368 -0.0000165 -0.0003843 -0.0000081 -0.0002959 -0.0000829 -0.0002283 0.0000263 -0.0000680 0.0000655 -0.0002113 -0.0000220 0.0000634 -0.0007164 0.0006846 0.0000317 0.0000123 -0.0001185 -0.0000007 -0.0001585 0.0001339 -0.0000576 0.0000162 -0.0005662 0.0002936 -0.0001685 0.0002459 -0.0000623 0.0000404 -0.0001890 0.0001554 -0.0001676 0.0004594 -0.0000486 0.0000660 -0.0001550 0.0003051 0.0007726 -0.0007173 0.0000052 0.0000535 0.0000661 -0.0002429 -0.0007403 0.0009266 -0.0000956 0.0002782 -0.0012894 -0.0027363 0.0051599 -0.0039675 -0.0004580 0.0005383 -0.0000685 -0.0000481 -0.0025069 0.0057954 0.0010525 -0.0010147 -0.0000587 0.0000978 0.0005690 0.0004078 -0.0003650 0.0004466 -0.0000888 0.0003349 0.0009154 0.0019188 0.0006650 -0.0017276 -0.0001651 0.0003754 0.0001539 -0.0006776 -0.0007740 0.0002821 -0.0001626 -0.0003888 -0.0001356 -0.0000055 0.0009464 -0.0170081 0.0131314 -0.0174123 0.0000865 0.0000522 0.0000202 0.0001374 -0.0018359 0.0019131 -0.0001072 0.0000482 0.0002211 -0.0000958 -0.0001657 0.0000700 -0.0000354 0.0006050 -0.0019517 0.0002525 -0.0006230 0.0006479 -0.0000470 -0.0000609 -0.0000959 0.0002095 -0.0097324 0.0147677 -0.0002667 0.0001793 0.0048685 -0.0067431 -0.0009123 0.0006743 -0.0001156 0.0000646 -0.0004405 0.0004486 0.0002410 -0.0002313 -0.0000774 0.0001062 0.0005430 -0.0011051 0.0000496 0.0001260 -0.0002900 0.0006653 0.0014592 -0.0024954 -0.0000863 -0.0001549 -0.0003557 0.0001481 -0.0000947 -0.0001307 -0.0003409 0.0014663 0.0001066 -0.0002439 -0.0000841 0.0003916 0.0004940 -0.0000767 -0.0000690 0.0002487 -0.0001898 -0.0005931 -0.0000765 0.0005868 -0.0006941 0.0006015 -0.0000649 -0.0000589 -0.0007056 -0.0001418 -0.0005345 0.0015863 -0.0054371 0.0082140 -0.0000460 -0.0002853 0.0000415 0.0002966 0.0002654 -0.0006468 -0.0029681 0.0007289 -0.0005832 0.0005887 -0.0000671 -0.0000988 -0.0005394 0.0007390 -0.0068525 0.0156232 0.0001737 -0.0000618 0.0009138 -0.0004464 -0.0000538 0.0003028 0.0000372 0.0002871 0.0000091 -0.0002381 -0.0000547 0.0002379 -0.0001026 0.0003138
-0.0000759 0.0003142 0.0000575 0.0000838 -0.0000675 0.0001695 -0.0001221 0.0001676 -0.0000314 0.0001272 -0.0000308 0.0000646 0.0000218 -0.0001594 -0.0000747 0.0001713 -0.0000180 0.0000182 0.0000355 0.0001770 -0.0001112 0.0002224 -0.0000215 0.0002995 -0.0000127 0.0002159 -0.0000105 -0.0002393 -0.0000075 -0.0001522 -0.0000770 -0.0000500 0.0001556 -0.0000881 0.0001427 -0.0001759 -0.0000358 0.0002669 -0.0004969 0.0007128 0.0000132 0.0002121 -0.0000945 0.0001371 -0.0001828 0.0002194 -0.0000659 0.0001477 -0.0003990 0.0003842 -0.0002018 0.0003143 -0.0000723 0.0001154 -0.0002240 0.0003125 -0.0001681 0.0005324 -0.0000831 0.0002766 -0.0001513 0.0004552 0.0002173 0.0001063 0.0000437 0.0001598 0.0001847 0.0000204 -0.0004662 0.0013757 0.0000131 0.0003962 -0.0054671 0.0050343 0.0065443 -0.0034219 0.0001172 0.0002491 -0.0000062 0.0002468 -0.0001513 0.0014803 -0.0014093 0.0009684 -0.0001113 0.0004201 0.0014087 -0.0010526 -0.0010922 0.0012803 0.0000999 0.0001230 -0.0031984 0.0072135 0.0036041 -0.0047451 -0.0002380 0.0006824 0.0011529 -0.0008304 -0.0007468 0.0001486 -0.0001847 -0.0003479 0.0000687 -0.0000075 0.0041310 -0.0016377 -0.0025149 0.0094234 0.0000791 -0.0000426 -0.0005707 0.0006039 -0.0010740 0.0010501 -0.0000873 -0.0000029 -0.0001228 0.0000997 -0.0000560 -0.0001332 -0.0003995 0.0005588 -0.0011402 0.0012924 -0.0001729 -0.0000401 -0.0003783 0.0001158 -0.0002878 0.0003468 -0.0071530 0.0027631 -0.0002027 -0.0001248 -0.0015497 0.0006784 -0.0001592 -0.0001244 -0.0000964 -0.0000425 -0.0000632 0.0000541 0.0001337 -0.0004711 -0.0001966 0.0001017 -0.0014294 0.0004258 0.0002080 -0.0002484 -0.0003923 0.0007591 0.0006456 -0.0013540 -0.0001326 -0.0001039 -0.0005822 0.0003621 -0.0001316 -0.0001866 -0.0002075 0.0013593 0.0002405 -0.0005003 -0.0000584 0.0002156 0.0004416 -0.0001030 -0.0001817 0.0003058 -0.0002080 -0.0005898 -0.0000425 0.0003512 0.0009760 -0.0012115 -0.0000257 -0.0001791 -0.0008513 0.0000212 0.0013845 -0.0015315 -0.0037989 0.0047094 0.0000764 -0.0004500 0.0000611 0.0002092 0.0000689 -0.0004890 -0.0019267 -0.0005167 -0.0002196 0.0004937 -0.0001048 -0.0001771 -0.0002643 0.0009894 -0.0084680 0.0137252 0.0000009 -0.0000228 0.0012339 -0.0018756 -0.0000461 0.0002054 -0.0002035 0.0003944 -0.0000368 -0.0003451 -0.0000554 -0.0000332 -0.0000834 0.0001824
-0.0000329 0.0000881 0.0000325 -0.0001078 -0.0000679 -0.0000119 -0.0001447 0.0001169 -0.0000420 0.0000544 -0.0000447 -0.0000797 0.0000218 -0.0002528 -0.0000698 0.0000179 -0.0000113 -0.0000858 0.0001241 -0.0000627 -0.0000294 -0.0000217 0.0000107 0.0000693 0.0000374 -0.0000337 -0.0000008 -0.0002923 -0.0000180 -0.0001439 -0.0000697 -0.0000867 0.0001215 -0.0001300 0.0000988 -0.0002476 -0.0000405 0.0001973 0.0000082 -0.0000379 0.0000171 0.0000013 -0.0000315 -0.0000088 -0.0003603 0.0001737 -0.0000687 0.0001404 0.0001286 -0.0002512 -0.0002078 0.0002887 -0.0000764 0.0001400 -0.0002481 0.0003025 -0.0001885 0.0005094 -0.0001051 0.0002830 -0.0001468 0.0004640 0.0004309 -0.0001883 0.0000523 0.0001240 0.0001501 -0.0000088 0.0005214 -0.0007253 0.0004810 0.0003198 0.0049643 -0.0074918 0.0000927 -0.0031559 0.0006075 -0.0000851 -0.0001476 0.0004449 0.0051495 -0.0054744 -0.0032072 0.0023974 -0.0001177 0.0006133 -0.0025356 0.0018332 -0.0004244 0.0009969 -0.0000279 0.0003838 -0.0040597 0.0040661 0.0065783 -0.0093237 -0.0004563 0.0010029 0.0017356 -0.0009753 -0.0002713 0.0001079 -0.0001240 -0.0003841 0.0000429 0.0001263 0.0030176 0.0021194 -0.0117105 0.0209319 -0.0004033 0.0001591 -0.0001119 0.0002576 0.0004788 -0.0000122 -0.0001182 0.0001168 -0.0002777 0.0004095 -0.0000834 0.0000728 -0.0002482 0.0000016 -0.0003990 0.0010316 -0.0006735 0.0006097 -0.0003059 0.0000856 -0.0002234 0.0003236 -0.0134349 0.0085618 -0.0000253 -0.0000916 -0.0021542 -0.0000330 -0.0001054 0.0003441 -0.0000785 0.0000559 0.0001175 0.0001855 -0.0000450 -0.0000127 -0.0001661 0.0002018 -0.0004872 -0.0004781 0.0004318 -0.0000228 -0.0004229 0.0007997 -0.0001825 0.0001720 -0.0002132 -0.0000085 -0.0002295 0.0001434 -0.0000436 -0.0002559 -0.0008232 0.0020927 0.0000293 -0.0000831 -0.0001397 0.0003479 0.0003872 0.0001875 -0.0002064 0.0002715 -0.0001964 -0.0005920 0.0001412 0.0000920 0.0004523 -0.0012561 -0.0001488 -0.0000886 -0.0002030 -0.0003623 0.0034563 -0.0035585 0.0010355 -0.0030994 0.0002360 -0.0004752 0.0001226 0.0000836 0.0001936 -0.0006615 -0.0012078 -0.0024070 0.0000207 0.0000999 -0.0001248 -0.0002659 -0.0005438 0.0013706 -0.0047636 -0.0000775 -0.0000234 -0.0001649 0.0007563 -0.0015155 0.0000071 0.0000604 -0.0002614 0.0003892 -0.0000783 -0.0004469 -0.0000744 -0.0002680 -0.0001884 0.0001560
-0.0000118 -0.0000747 0.0000316 -0.0003038 -0.0000390 -0.0002178 -0.0001623 0.0001043 -0.0000487 0.0000025 -0.0000434 -0.0001823 0.0000250 -0.0003683 -0.0000604 -0.0000668 -0.0000499 -0.0000815 0.0000744 -0.0001675 0.0000357 -0.0002189 0.0000314 -0.0000837 -0.0000196 -0.0000532 0.0000143 -0.0003028 0.0000082 -0.0001446 -0.0000641 -0.0000755 0.0001038 -0.0001626 0.0001111 -0.0003217 -0.0000274 0.0001623 0.0009711 -0.0012697 0.0000296 -0.0001732 -0.0000646 -0.0000421 0.0001246 -0.0003152 -0.0000715 0.0001196 0.0001712 -0.0002824 -0.0001889 0.0001960 -0.0000733 0.0001246 -0.0002608 0.0001011 -0.0002222 0.0003761 -0.0000970 0.0000584 -0.0001331 0.0002082 0.0003569 -0.0004910 -0.0000098 0.0000503 -0.0000606 -0.0000419 -0.0002285 -0.0009975 0.0005045 0.0003033 0.0121170 -0.0130516 0.0088007 -0.0219888 0.0008165 -0.0005323 -0.0000415 -0.0000126 0.0074590 -0.0082847 -0.0027007 0.0022083 -0.0001182 0.0003314 0.0013255 -0.0011748 0.0010443 -0.0006050 -0.0001330 0.0004229 0.0012588 -0.0046758 -0.0086140 0.0049403 0.0000190 0.0003540 0.0008902 -0.0000872 0.0003449 -0.0002794 -0.0001541 -0.0003603 -0.0001156 0.0001582 -0.0036413 0.0032223 -0.0114242 0.0166252 -0.0000234 -0.0000572 0.0004301 -0.0003639 0.0012663 -0.0013028 -0.0001273 0.0000584 -0.0002437 0.0003721 -0.0000667 0.0001504 -0.0008210 0.0000176 -0.0032004 0.0032808 -0.0001070 0.0010709 -0.0002533 0.0000252 -0.0001978 0.0003561 -0.0051684 0.0021941 0.0000492 -0.0000487 0.0049391 -0.0059465 -0.0002780 0.0005758 -0.0000530 0.0001287 0.0001203 0.0001456 -0.0000565 0.0004322 -0.0000019 0.0000322 0.0004365 -0.0008059 -0.0002164 0.0008511 -0.0000915 0.0004998 -0.0000054 -0.0005379 -0.0002155 -0.0000754 0.0000925 -0.0001526 -0.0000731 -0.0001697 -0.0010488 0.0012711 -0.0000240 -0.0001038 -0.0003328 0.0006241 0.0001105 0.0006000 -0.0001697 0.0003682 -0.0006320 -0.0002061 -0.0001803 0.0007076 -0.0004246 -0.0001866 -0.0001125 -0.0000265 -0.0000818 -0.0004854 0.0019219 0.0000476 -0.0011968 0.0015904 -0.0002961 0.0001212 0.0001330 0.0001247 0.0001485 -0.0006136 -0.0018007 -0.0021612 -0.0001701 0.0002530 -0.0001040 -0.0003484 -0.0010332 0.0012971 -0.0024499 0.0014184 0.0000245 -0.0003149 -0.0005647 -0.0004093 0.0000111 -0.0000448 -0.0001001 0.0001573 -0.0000124 -0.0007832 -0.0000426 -0.0005374 -0.0002271 0.0000968
-0.0000129 -0.0002357 0.0000425 -0.0004781 -0.0000573 -0.0003523 -0.0001562 0.0000617 -0.0000526 -0.0000370 -0.0000466 -0.0002490 0.0000031 -0.0004142 -0.0000555 -0.0001460 -0.0000610 -0.0001633 -0.0000328 -0.0001356 -0.0000239 -0.0002709 -0.0000064 -0.0001654 0.0000059 -0.0001282 0.0000118 -0.0003386 0.0000016 -0.0001196 -0.0000577 -0.0001228 0.0000736 -0.0001921 0.0001015 -0.0004086 -0.0000218 0.0001507 0.0007772 -0.0006424 0.0000206 -0.0003098 -0.0000892 -0.0001335 0.0004392 -0.0006237 -0.0000613 0.0000930 -0.0001441 0.0000166 -0.0001750 0.0001505 -0.0000738 0.0001327 -0.0002488 -0.0000313 -0.0002317 0.0003291 -0.0000777 -0.0001043 -0.0001514 0.0000890 -0.0001466 0.0000056 -0.0000078 -0.0001036 -0.0001080 -0.0002309 -0.0010321 0.0007504 0.0001077 0.0005359 0.0076342 -0.0027945 0.0110041 -0.0246715 0.0000026 -0.0001366 0.0001293 -0.0003449 0.0027395 -0.0034132 -0.0008960 0.0014075 -0.0001017 0.0000763 0.0025932 -0.0020522 0.0008006 -0.0003879 -0.0000854 0.0000600 -0.0010550 -0.0019207 0.0014136 -0.0026475 0.0003201 -0.0000452 0.0016106 -0.0014102 0.0003555 -0.0004455 -0.0003174 -0.0003671 -0.0000515 -0.0000998 -0.0027427 0.0042559 -0.0001393 0.0012404 0.0000820 -0.0001159 0.0000976 -0.0001261 0.0009874 -0.0015661 -0.0000874 -0.0002029 -0.0003934 0.0002701 0.0000509 0.0000010 -0.0005798 -0.0004100 0.0015051 -0.0010755 -0.0017921 0.0021471 -0.0002291 -0.0001882 -0.0001474 0.0001738 0.0046557 -0.0101656 0.0000336 -0.0003381 0.0035224 -0.0025886 -0.0001415 -0.0001251 -0.0000370 -0.0001559 0.0002292 -0.0000801 -0.0000055 -0.0000150 0.0001144 -0.0002862 0.0019019 -0.0012541 -0.0005718 0.0003358 0.0001578 0.0001577 0.0005794 -0.0013512 -0.0003043 -0.0001721 0.0000262 -0.0002359 -0.0001040 -0.0002823 -0.0006578 0.0001262 0.0000519 -0.0004872 -0.0002560 0.0005756 -0.0000735 0.0004986 -0.0001657 0.0003040 -0.0008126 -0.0001524 -0.0005984 0.0003810 0.0002150 -0.0004706 -0.0000420 -0.0001555 -0.0002677 -0.0006009 -0.0012843 0.0018875 -0.0038633 0.0067184 -0.0005196 0.0006624 0.0001269 0.0000574 0.0000986 -0.0007625 -0.0044933 0.0017349 -0.0003318 0.0004059 -0.0001108 -0.0003752 -0.0003518 0.0007224 -0.0003760 0.0013142 0.0000216 -0.0002624 0.0010322 -0.0012303 -0.0000145 -0.0000883 0.0000486 -0.0001162 0.0001042 -0.0007995 -0.0000388 -0.0003859 -0.0002993 0.0002304
-0.0000047 -0.0001249 0.0000486 -0.0003112 -0.0000412 -0.0002336 -0.0001437 0.0000315 -0.0000587 -0.0000235 -0.0000601 -0.0002703 0.0000080 -0.0004027 -0.0000560 -0.0001754 -0.0000433 -0.0002381 -0.0000325 -0.0001639 0.0000762 -0.0003710 0.0000486 -0.0002557 0.0000121 -0.0001501 -0.0000126 -0.0004879 -0.0000118 -0.0002052 -0.0000650 -0.0003014 -0.0000287 -0.0002381 0.0001414 -0.0006222 -0.0000260 0.0000551 -0.0001199 0.0000090 0.0000348 -0.0004644 -0.0001164 -0.0002319 -0.0000214 -0.0004363 -0.0000687 0.0000594 -0.0004368 0.0002529 -0.0001757 0.0001251 -0.0000766 0.0001397 -0.0002402 -0.0001571 -0.0002128 0.0002565 -0.0000369 -0.0002653 -0.0001440 -0.0000169 -0.0007253 0.0002423 0.0000074 -0.0002638 -0.0000721 -0.0004569 -0.0004656 -0.0001667 -0.0000150 0.0003962 -0.0015859 0.0024180 0.0047681 -0.0016348 -0.0003259 -0.0004252 0.0000177 -0.0004153 0.0006153 0.0009628 -0.0017189 0.0016907 -0.0000298 -0.0002568 -0.0036137 0.0029477 -0.0009197 0.0015087 -0.0001652 -0.0001210 -0.0098138 0.0092646 0.0045167 -0.0070398 0.0001856 -0.0002137 0.0001364 -0.0003349 0.0002939 -0.0005181 -0.0003115 -0.0006312 0.0000884 -0.0004302 0.0058553 -0.0128235 0.0025391 -0.0055624 -0.0001297 -0.0002420 -0.0002378 0.0002908 0.0003478 -0.0009098 -0.0000444 -0.0004005 -0.0002921 -0.0000611 0.0000591 0.0000980 -0.0003811 -0.0002485 0.0006466 -0.0023490 0.0002845 -0.0001425 -0.0002224 -0.0003715 0.0000899 -0.0001604 0.0075464 -0.0012748 0.0000867 -0.0006697 0.0015060 -0.0014183 -0.0000454 -0.0002022 -0.0000706 -0.0004863 0.0001340 -0.0004152 -0.0003423 -0.0002026 0.0000187 -0.0003909 0.0021247 -0.0017417 0.0000102 -0.0007488 0.0000810 0.0000646 0.0006192 -0.0014823 -0.0002568 -0.0003705 -0.0004700 -0.0000564 0.0000478 -0.0006448 -0.0002430 0.0004914 0.0000217 -0.0006842 0.0000734 0.0000277 0.0001270 -0.0000517 -0.0000092 -0.0001840 -0.0007865 -0.0006670 -0.0006506 -0.0000129 -0.0000594 -0.0004906 -0.0000746 -0.0003206 0.0000160 -0.0015367 -0.0013217 0.0004607 -0.0008910 0.0003781 0.0000845 -0.0001421 0.0001269 -0.0002140 -0.0000837 -0.0010385 -0.0036109 0.0020979 -0.0002534 -0.0001277 -0.0000614 -0.0006504 -0.0001661 0.0003779 0.0046914 -0.0163576 -0.0000267 -0.0003057 0.0004620 -0.0004665 0.0000094 -0.0002557 -0.0000009 -0.0002271 0.0001116 -0.0007754 -0.0000289 -0.0003506 -0.0001884 0.0001760
-0.0000259 0.0000087 0.0000698 -0.0002209 0.0000135 -0.0001971 -0.0001342 0.0000169 -0.0000596 -0.0000097 -0.0000481 -0.0002703 0.0000466 -0.0004148 -0.0000519 -0.0001692 -0.0000366 -0.0002382 0.0000063 -0.0001018 0.0001682 -0.0004213 0.0000465 -0.0001423 0.0001482 -0.0000883 -0.0000508 -0.0006434 -0.0000499 -0.0003212 -0.0000927 -0.0004413 0.0000198 -0.0002877 0.0001534 -0.0005445 -0.0000316 -0.0000001 -0.0006117 0.0001515 0.0000660 -0.0004429 -0.0000867 -0.0002373 -0.0001718 -0.0003571 -0.0000685 0.0000248 -0.0004101 0.0000253 -0.0002044 0.0001313 -0.0000823 0.0001377 -0.0002272 -0.0002488 -0.0002074 0.0002288 -0.0000074 -0.0003774 -0.0001225 -0.0001706 -0.0009846 0.0005013 0.0000143 -0.0002966 0.0001412 -0.0006821 -0.0015978 -0.0002414 -0.0002924 0.0005519 -0.0145509 0.0099368 0.0006027 0.0102588 0.0005215 -0.0013228 0.0002226 -0.0008939 0.0039481 -0.0048494 -0.0000612 0.0004139 -0.0000126 -0.0005935 -0.0017419 0.0018820 -0.0021129 0.0018237 -0.0000780 -0.0004746 -0.0132444 0.0127608 -0.0018839 -0.0046993 0.0000820 -0.0003115 -0.0007619 0.0003305 0.0001992 -0.0008711 -0.0003291 -0.0008030 0.0000668 -0.0007042 0.0056041 -0.0163780 -0.0088740 0.0112378 -0.0004685 -0.0000044 0.0000685 -0.0002025 0.0002976 -0.0005247 -0.0000498 -0.0005959 0.0000763 -0.0005779 0.0001692 -0.0000258 0.0000984 0.0001423 -0.0037349 0.0006967 0.0025427 -0.0019069 -0.0003315 -0.0003152 -0.0000933 0.0000995 0.0119889 -0.0073733 0.0002366 -0.0011479 -0.0003708 -0.0010241 -0.0003429 -0.0000103 -0.0000605 -0.0008051 -0.0003093 -0.0004231 0.0000244 -0.0006751 -0.0000817 -0.0005957 0.0000606 -0.0001639 0.0004918 -0.0013367 -0.0000793 0.0000713 0.0009274 -0.0025984 -0.0001607 -0.0006569 -0.0003348 -0.0004400 0.0001195 -0.0010049 -0.0000561 0.0004641 -0.0000948 -0.0008809 0.0001741 -0.0006713 -0.0000643 -0.0004364 -0.0000644 -0.0003548 -0.0007913 -0.0012260 -0.0000028 -0.0004206 -0.0007036 -0.0003396 -0.0001306 -0.0005381 -0.0004573 -0.0014722 0.0002092 -0.0010218 0.0024516 -0.0139811 -0.0004341 0.0000831 0.0001012 -0.0004553 -0.0002336 -0.0011740 -0.0017676 0.0000262 -0.0005694 0.0000628 0.0000699 -0.0011370 -0.0012287 0.0000108 0.0051300 -0.0261820 -0.0001097 -0.0005351 -0.0009726 -0.0008647 0.0000465 -0.0005104 -0.0001289 -0.0002924 0.0001377 -0.0012095 0.0000659 -0.0008375 0.0000686 -0.0005034
-0.0000062 -0.0002570 0.0000962 -0.0005193 0.0000278 -0.0004864 -0.0001463 -0.0000625 -0.0000539 -0.0001348 0.0000330 -0.0005011 0.0000894 -0.0005902 -0.0000499 -0.0003111 -0.0000536 -0.0003610 0.0000233 -0.0001319 0.0002275 -0.0005432 0.0000160 -0.0001902 0.0002145 -0.0001132 -0.0000997 -0.0008927 -0.0000810 -0.0005459 -0.0001331 -0.0006581 -0.0000134 -0.0003905 -0.0000484 -0.0003792 -0.0000436 -0.0000827 0.0005393 -0.0013777 0.0000655 -0.0004168 0.0000053 -0.0002985 -0.0001487 -0.0002735 -0.0000368 -0.0000426 -0.0004816 0.0000153 -0.0002315 0.0001954 -0.0000887 0.0001491 -0.0002073 -0.0001689 -0.0002130 0.0003341 0.0000423 -0.0003577 -0.0001441 -0.0000847 -0.0007729 0.0004330 0.0000226 -0.0003369 0.0002876 -0.0008111 -0.0025741 0.0011928 -0.0003846 0.0007483 0.0037380 -0.0051306 -0.0024886 0.0124336 0.0005732 -0.0013513 0.0003732 -0.0010579 -0.0031502 -0.0008469 0.0010882 -0.0002147 -0.0000380 -0.0006513 0.0016607 -0.0009379 -0.0004482 -0.0001367 -0.0000919 -0.0007902 -0.0073732 0.0044244 0.0033637 -0.0071510 -0.0000719 -0.0002190 -0.0003902 -0.0001359 0.0000249 -0.0010333 -0.0002151 -0.0009911 -0.0000818 -0.0006950 0.0065251 -0.0174597 -0.0021532 0.0039969 -0.0005385 0.0001680 0.0002608 -0.0004776 0.0008554 -0.0016266 -0.0000243 -0.0007246 0.0003354 -0.0009454 0.0003564 -0.0003035 -0.0004898 0.0001206 -0.0028798 -0.0020561 0.0006130 -0.0007005 -0.0001156 -0.0006143 -0.0004058 0.0002981 0.0083354 -0.0046645 0.0002653 -0.0013530 -0.0007304 0.0003425 -0.0000030 -0.0007741 -0.0000537 -0.0009791 -0.0007658 0.0000528 0.0001071 -0.0009464 0.0000515 -0.0008918 0.0004681 -0.0012893 0.0004499 -0.0014528 -0.0000086 -0.0001366 0.0006857 -0.0029844 -0.0001488 -0.0007829 -0.0001431 -0.0007617 0.0000982 -0.0012087 -0.0001840 0.0002914 0.0000385 -0.0011167 0.0002430 -0.0009375 -0.0000962 -0.0005188 -0.0001533 -0.0004286 -0.0006392 -0.0016129 0.0003058 -0.0013049 -0.0010178 0.0003350 -0.0001628 -0.0007194 -0.0007426 -0.0013564 0.0002612 -0.0031179 0.0064243 -0.0160045 -0.0008164 0.0003234 0.0000969 -0.0006875 -0.0000895 -0.0014906 -0.0026883 -0.0001082 -0.0004364 -0.0001064 0.0001364 -0.0014590 -0.0008442 -0.0010750 -0.0012948 -0.0028152 0.0000251 -0.0008999 0.0001308 -0.0018893 0.0001037 -0.0007162 -0.0000278 -0.0006341 0.0000729 -0.0014858 0.0001231 -0.0012242 -0.0000548 -0.0009262
0.0000188 -0.0006000 0.0000826 -0.0008033 0.0000520 -0.0008476 -0.0001493 -0.0001868 -0.0000538 -0.0003226 0.0000947 -0.0008509 0.0001037 -0.0008093 -0.0000453 -0.0005391 -0.0000676 -0.0005746 0.0000774 -0.0004321 0.0000764 -0.0004998 0.0001065 -0.0005409 0.0001644 -0.0003704 -0.0001288 -0.0012294 -0.0000706 -0.0008707 -0.0001707 -0.0009659 -0.0000223 -0.0006770 0.0001447 -0.0008745 -0.0000344 -0.0003127 0.0014120 -0.0033395 0.0000671 -0.0006273 0.0000320 -0.0004336 -0.0000879 -0.0006247 -0.0000285 -0.0001483 -0.0006756 0.0001876 -0.0002323 0.0002022 -0.0000997 0.0001294 -0.0002045 -0.0001239 -0.0002343 0.0004063 0.0001053 -0.0004471 -0.0001356 -0.0000877 -0.0004240 -0.0003678 0.0001729 -0.0006065 -0.0000063 -0.0007034 -0.0025829 0.0010818 -0.0000005 0.0002460 0.0134862 -0.0117200 0.0054725 0.0035360 -0.0003341 -0.0007201 -0.0000373 -0.0005799 -0.0053059 0.0034918 0.0019542 -0.0018361 -0.0000468 -0.0006648 -0.0005410 0.0004564 0.0008102 -0.0011108 -0.0000468 -0.0010440 0.0052361 -0.0075509 -0.0064535 0.0029758 -0.0003605 -0.0000592 0.0000834 -0.0007832 0.0007126 -0.0012894 -0.0000763 -0.0011163 -0.0000820 -0.0006346 0.0129032 -0.0242118 -0.0026778 -0.0088810 0.0004826 -0.0006986 0.0001104 -0.0001314 0.0012451 -0.0027574 0.0000262 -0.0006602 0.0001635 -0.0007805 0.0003348 -0.0000388 0.0002141 -0.0025441 -0.0009120 -0.0026986 0.0001626 0.0000384 -0.0001760 -0.0006840 -0.0002570 0.0001482 0.0040671 -0.0047974 0.0003379 -0.0013975 0.0004623 0.0009045 0.0001720 -0.0008025 0.0000289 -0.0010930 -0.0006948 0.0001057 -0.0004159 -0.0004611 0.0002181 -0.0010785 0.0016229 -0.0020176 -0.0001471 -0.0007533 -0.0000985 -0.0001149 -0.0008620 -0.0017819 -0.0001495 -0.0007963 -0.0000061 -0.0010465 0.0000544 -0.0012095 -0.0002629 -0.0006011 0.0000229 -0.0012418 0.0004522 -0.0010420 0.0002073 -0.0009431 0.0000442 -0.0008107 -0.0006783 -0.0017460 -0.0004489 -0.0008596 -0.0009490 0.0002151 -0.0000757 -0.0008407 -0.0001345 -0.0021100 0.0001593 -0.0022255 0.0063833 -0.0085460 0.0000450 -0.0006325 0.0000853 -0.0007697 0.0000480 -0.0018509 0.0003555 -0.0023185 -0.0000926 -0.0006023 0.0000744 -0.0015880 -0.0006202 -0.0008134 -0.0049791 0.0110209 0.0001094 -0.0010521 0.0013114 -0.0026656 0.0001120 -0.0008083 0.0002366 -0.0009662 0.0000263 -0.0015959 0.0001308 -0.0015034 -0.0003835 -0.0009371
0.0000406 -0.0008539 0.0000791 -0.0010091 0.0000839 -0.0011024 -0.0001424 -0.0002598 -0.0000568 -0.0004035 0.0000169 -0.0008858 0.0000849 -0.0008964 -0.0000376 -0.0006536 -0.0000306 -0.0007348 0.0000605 -0.0005659 0.0000177 -0.0005252 0.0001151 -0.0006852 0.0001407 -0.0004837 -0.0001379 -0.0013778 -0.0000437 -0.0010606 -0.0001909 -0.0010904 -0.0000037 -0.0008176 0.0002719 -0.0010840 -0.0000214 -0.0004644 -0.0001965 -0.0009396 0.0000652 -0.0008089 -0.0000141 -0.0005182 0.0000768 -0.0011397 -0.0000399 -0.0002659 -0.0003722 -0.0003379 -0.0002265 0.0001588 -0.0001137 0.0000774 -0.0002153 -0.0002298 -0.0002409 0.0003825 0.0001250 -0.0006565 -0.0000956 -0.0003113 -0.0001103 -0.0007765 0.0002591 -0.0008962 -0.0000029 -0.0010707 -0.0014244 -0.0001202 -0.0005450 0.0002822 0.0058824 -0.0038567 0.0027830 0.0093719 -0.0004856 -0.0007274 -0.0000068 -0.0009311 0.0016223 -0.0025213 0.0014931 -0.0033211 -0.0000260 -0.0008843 -0.0029379 0.0031280 0.0006361 -0.0008428 -0.0000029 -0.0012938 0.0000351 -0.0017688 -0.0086053 0.0058000 -0.0002403 -0.0001824 0.0011429 -0.0024410 0.0011023 -0.0014858 -0.0002272 -0.0009364 0.0000599 -0.0008825 0.0038405 -0.0014390 0.0028692 -0.0247904 0.0005490 -0.0007502 0.0000168 -0.0000058 0.0007769 -0.0021336 0.0000293 -0.0006207 -0.0000870 -0.0004947 0.0001935 0.0001648 0.0005253 -0.0019462 0.0011433 -0.0017365 -0.0001118 0.0005336 -0.0003919 -0.0003561 -0.0000848 0.0000615 0.0033772 -0.0124490 0.0003594 -0.0013181 -0.0002642 -0.0002187 -0.0001370 -0.0004091 0.0001350 -0.0011309 -0.0000875 -0.0001522 -0.0000450 -0.0006057 0.0000379 -0.0008114 0.0008196 -0.0009279 0.0002239 -0.0007672 0.0000845 -0.0002123 -0.0009284 -0.0019270 -0.0001727 -0.0007210 -0.0001348 -0.0010396 -0.0000132 -0.0009900 0.0007948 -0.0025152 0.0000790 -0.0014742 0.0004092 -0.0009483 0.0005545 -0.0010886 0.0000347 -0.0007633 -0.0004754 -0.0019937 -0.0007823 -0.0001067 -0.0009107 -0.0004469 0.0000258 -0.0008669 -0.0000449 -0.0018927 0.0008004 -0.0022199 0.0007285 -0.0017692 0.0002382 -0.0007345 0.0001085 -0.0006761 0.0004927 -0.0021418 0.0024027 -0.0037142 0.0002940 -0.0008655 0.0001430 -0.0016577 -0.0010277 -0.0001365 -0.0125169 0.0232230 0.0000124 -0.0009514 0.0022273 -0.0044154 0.0000932 -0.0007534 0.0002762 -0.0008831 0.0001145 -0.0016963 0.0001274 -0.0015630 -0.0005122 -0.0007536
0.0000627 -0.0009645 0.0001079 -0.0011378 0.0000900 -0.0012118 -0.0001454 -0.0002783 -0.0000617 -0.0003863 0.0000364 -0.0009554 0.0000943 -0.0009620 -0.0000323 -0.0006719 0.0000019 -0.0008098 0.0000388 -0.0006142 0.0001155 -0.0007420 0.0000805 -0.0007456 0.0001172 -0.0004468 -0.0001613 -0.0014032 -0.0000472 -0.0010945 -0.0002050 -0.0011596 -0.0000365 -0.0008681 0.0001553 -0.0010653 -0.0000285 -0.0005045 -0.0005311 -0.0003839 0.0000834 -0.0009299 -0.0000193 -0.0006541 0.0002866 -0.0014917 -0.0000574 -0.0003163 -0.0001500 -0.0006540 -0.0002309 0.0001615 -0.0001202 0.0000594 -0.0001966 -0.0002782 -0.0002220 0.0003894 0.0001450 -0.0007676 -0.0000918 -0.0003824 -0.0001077 -0.0006693 0.0001923 -0.0010051 0.0002572 -0.0014216 0.0008632 -0.0018077 -0.0001089 -0.0002118 -0.0099015 0.0070025 -0.0000478 0.0129065 0.0002258 -0.0016457 -0.0000671 -0.0009902 0.0014359 -0.0050784 -0.0011795 -0.0023143 -0.0000123 -0.0010051 0.0000140 -0.0015569 0.0011844 -0.0012983 -0.0000101 -0.0014674 -0.0123694 0.0108101 -0.0046555 -0.0010449 -0.0001535 -0.0002432 0.0015423 -0.0029441 0.0003632 -0.0012564 -0.0002597 -0.0009532 0.0001035 -0.0011456 0.0052798 -0.0094687 0.0088381 -0.0248431 -0.0001201 -0.0002866 0.0002196 -0.0002119 -0.0003081 -0.0014004 0.0000444 -0.0007234 0.0001523 -0.0008033 0.0000412 0.0001832 0.0000314 -0.0010773 0.0008005 -0.0028561 -0.0011795 0.0009901 -0.0004380 -0.0003609 -0.0000418 0.0000175 0.0053962 -0.0109138 0.0001864 -0.0011871 -0.0016225 0.0001771 0.0003928 -0.0012896 0.0000190 -0.0010627 0.0002316 -0.0004087 0.0001077 -0.0009707 -0.0000102 -0.0006572 -0.0006518 -0.0001127 0.0007403 -0.0013615 0.0001428 -0.0004399 0.0003278 -0.0033357 -0.0001132 -0.0007247 -0.0006089 -0.0004985 0.0001060 -0.0010703 0.0020205 -0.0037996 0.0003173 -0.0017704 0.0002944 -0.0008731 0.0004347 -0.0008271 -0.0000286 -0.0007194 -0.0005669 -0.0021155 -0.0004479 -0.0002989 -0.0004475 -0.0004774 0.0000062 -0.0008453 -0.0009640 -0.0012949 0.0013724 -0.0024453 0.0004032 -0.0004343 0.0003565 -0.0008024 0.0001499 -0.0006408 0.0003314 -0.0019211 0.0007515 -0.0043155 0.0002736 -0.0006394 0.0001350 -0.0014885 -0.0012682 -0.0001259 -0.0140543 0.0178227 -0.0000063 -0.0008065 0.0002888 -0.0023136 0.0000739 -0.0006101 0.0001246 -0.0006091 0.0001589 -0.0014394 0.0001266 -0.0012006 -0.0002439 -0.0005978
0.0000556 -0.0006696 0.0001387 -0.0008616 0.0001255 -0.0009581 -0.0001494 -0.0001734 -0.0000620 -0.0002066 0.0001355 -0.0009073 0.0001614 -0.0008739 -0.0000299 -0.0005106 -0.0000251 -0.0006667 0.0001019 -0.0005429 0.0000853 -0.0005840 0.0000734 -0.0005697 0.0001958 -0.0003560 -0.0001821 -0.0013040 -0.0000686 -0.0009860 -0.0002180 -0.0011513 -0.0000282 -0.0008181 0.0003042 -0.0011192 -0.0000347 -0.0004621 0.0001902 -0.0018288 0.0000817 -0.0008808 0.0000669 -0.0007514 0.0004698 -0.0016893 -0.0000554 -0.0002907 -0.0000877 -0.0007355 -0.0002276 0.0001801 -0.0001184 0.0000687 -0.0001898 -0.0002602 -0.0002249 0.0004348 0.0001483 -0.0007626 -0.0001083 -0.0003381 0.0003256 -0.0013520 0.0001904 -0.0010507 0.0001394 -0.0014632 -0.0009395 -0.0011215 0.0005581 -0.0007541 -0.0000201 0.0006564 0.0038731 -0.0017359 0.0008389 -0.0022620 -0.0001459 -0.0008647 -0.0011492 -0.0040939 0.0011456 -0.0030440 -0.0000302 -0.0010038 -0.0012752 -0.0015912 0.0003829 -0.0009198 -0.0001087 -0.0013366 0.0009241 -0.0000974 0.0034569 -0.0076923 -0.0000753 -0.0002295 -0.0004764 -0.0001737 0.0000808 -0.0010394 -0.0001662 -0.0011116 0.0000793 -0.0012667 0.0126380 -0.0208752 0.0014650 -0.0045993 -0.0002272 -0.0003915 0.0002899 -0.0002790 -0.0007191 -0.0010218 0.0000341 -0.0007373 0.0002350 -0.0009720 0.0000739 0.0001680 0.0003605 -0.0019116 0.0012274 -0.0023230 0.0000848 0.0000323 -0.0003111 -0.0004317 -0.0000542 0.0001390 0.0045080 -0.0114553 0.0002789 -0.0014943 0.0004762 -0.0012063 0.0003136 -0.0015347 -0.0000255 -0.0010932 0.0002486 -0.0005680 0.0001323 -0.0013913 0.0002167 -0.0010275 -0.0003832 -0.0003241 0.0008642 -0.0018089 0.0000152 -0.0004511 0.0005695 -0.0033442 -0.0000392 -0.0007411 -0.0003907 -0.0008132 0.0001541 -0.0012253 0.0020627 -0.0030882 0.0003703 -0.0018946 0.0002296 -0.0010275 -0.0005737 -0.0002611 -0.0000102 -0.0008608 -0.0004632 -0.0022690 -0.0007696 0.0001667 -0.0000449 -0.0011088 0.0000177 -0.0010054 -0.0011955 -0.0016204 -0.0007449 0.0021516 0.0014597 0.0027013 0.0005907 -0.0012889 0.0001783 -0.0007279 0.0000856 -0.0016928 -0.0009380 -0.0035441 -0.0002909 -0.0003758 0.0000506 -0.0014087 -0.0012944 -0.0000562 -0.0072903 0.0043129 0.0000289 -0.0007387 0.0009322 -0.0024901 0.0000456 -0.0005153 -0.0000501 -0.0004056 0.0001756 -0.0013312 0.0001903 -0.0010767 -0.0002916 -0.0003600
0.0000524 -0.0005138 0.0001488 -0.0007062 0.0001615 -0.0008368 -0.0001260 -0.0001184 -0.0000535 -0.0000934 0.0001339 -0.0007581 0.0001586 -0.0007467 -0.0000248 -0.0004073 -0.0000016 -0.0005773 0.0000963 -0.0004328 0.0000503 -0.0003434 0.0000782 -0.0004092 0.0002625 -0.0003470 -0.0001725 -0.0011452 -0.0000420 -0.0008674 -0.0002172 -0.0010082 -0.0000469 -0.0006404 0.0002405 -0.0009234 -0.0000244 -0.0003200 0.0003495 -0.0014965 0.0000937 -0.0006715 0.0000180 -0.0005895 0.0002598 -0.0010523 -0.0000440 -0.0001989 0.0001296 -0.0006925 -0.0002299 0.0002652 -0.0001239 0.0001197 -0.0001878 -0.0000888 -0.0002268 0.0005824 0.0001418 -0.0005604 -0.0001049 -0.0001012 0.0002219 -0.0011816 0.0001293 -0.0007083 0.0001637 -0.0013523 -0.0034584 0.0011757 -0.0000828 -0.0001629 0.0001078 0.0052611 -0.0028326 -0.0058470 0.0009939 -0.0018035 -0.0000504 -0.0006312 -0.0026572 -0.0013053 -0.0004319 -0.0006308 -0.0000461 -0.0007416 0.0007463 -0.0005957 -0.0006532 -0.0000791 -0.0000244 -0.0011152 0.0036090 -0.0044380 0.0004794 -0.0009962 0.0002110 -0.0005086 0.0000842 -0.0002188 -0.0001557 -0.0007096 -0.0002059 -0.0010858 0.0001960 -0.0012387 0.0111887 -0.0117382 -0.0031439 0.0038527 -0.0004416 -0.0004702 0.0002283 -0.0002585 -0.0004148 -0.0007938 0.0000413 -0.0006913 0.0002739 -0.0010263 0.0002207 0.0000164 -0.0006920 0.0002515 -0.0005583 -0.0000187 -0.0003489 0.0003076 -0.0001029 -0.0004071 -0.0001544 0.0004303 0.0028996 -0.0031303 0.0004926 -0.0017453 0.0002725 -0.0008192 0.0003144 -0.0012392 0.0000338 -0.0010795 0.0001345 -0.0003806 0.0006160 -0.0016869 0.0001483 -0.0009817 -0.0006154 -0.0009662 0.0010097 -0.0021910 -0.0000977 -0.0002669 -0.0007965 -0.0014028 -0.0001565 -0.0005157 -0.0000380 -0.0012154 0.0001815 -0.0012245 0.0000386 -0.0008132 0.0002005 -0.0015301 0.0001293 -0.0010083 -0.0007041 -0.0001033 -0.0001375 -0.0008696 -0.0003324 -0.0023346 -0.0002690 0.0002306 -0.0008974 -0.0010489 -0.0000191 -0.0009505 -0.0007504 -0.0020110 -0.0001279 0.0004285 -0.0024959 0.0050384 0.0003607 -0.0010707 0.0001696 -0.0006643 0.0000962 -0.0016879 0.0006664 -0.0045317 -0.0002043 -0.0005560 0.0000825 -0.0015053 -0.0000853 -0.0006537 0.0062579 -0.0034630 0.0000740 -0.0007575 0.0012036 -0.0012345 0.0000590 -0.0004851 -0.0001327 -0.0002592 0.0001728 -0.0013893 0.0001815 -0.0012312 -0.0004543 -0.0003622
0.0000844 -0.0007464 0.0001730 -0.0009614 0.0001758 -0.0010713 -0.0001246 -0.0001538 -0.0000493 -0.0001615 0.0001544 -0.0008409 0.0001171 -0.0007796 -0.0000100 -0.0004909 0.0000396 -0.0006170 0.0000460 -0.0004886 0.0001345 -0.0005257 0.0000424 -0.0005462 0.0002691 -0.0005368 -0.0001445 -0.0010603 -0.0000372 -0.0007816 -0.0001979 -0.0008981 -0.0000306 -0.0005699 0.0001705 -0.0007517 -0.0000184 -0.0002277 0.0000940 -0.0007771 0.0001234 -0.0006600 -0.0000654 -0.0004762 0.0000127 -0.0007479 -0.0000472 -0.0001778 -0.0001785 -0.0003003 -0.0002343 0.0003090 -0.0001255 0.0001359 -0.0001891 0.0000374 -0.0002332 0.0006678 0.0001557 -0.0004578 -0.0001012 0.0000638 0.0008314 -0.0015463 0.0001073 -0.0004790 0.0003000 -0.0013495 -0.0034731 0.0015875 0.0001173 -0.0000977 -0.0163070 0.0170936 -0.0046553 -0.0063495 0.0004135 -0.0009977 0.0001780 -0.0005602 -0.0022682 0.0005913 -0.0019348 0.0011750 -0.0000250 -0.0004422 0.0000055 0.0010161 -0.0001575 -0.0001663 0.0001396 -0.0008772 -0.0043030 -0.0001553 -0.0054149 0.0031775 -0.0000986 -0.0003875 0.0013357 -0.0015824 -0.0006418 0.0000116 -0.0002765 -0.0009241 0.0001854 -0.0009680 0.0140376 -0.0212443 -0.0078509 0.0181135 -0.0005085 -0.0002146 0.0001784 -0.0000962 -0.0008497 0.0006678 0.0000750 -0.0005433 0.0001853 -0.0007164 0.0001075 0.0003366 -0.0013249 0.0016574 -0.0051870 0.0027950 -0.0004340 0.0006669 -0.0002771 -0.0001528 -0.0003089 0.0007993 -0.0059613 0.0104837 0.0002949 -0.0011581 0.0003666 -0.0003701 0.0003731 -0.0011887 0.0000089 -0.0007749 -0.0002768 0.0003396 0.0004088 -0.0009042 0.0000632 -0.0005685 -0.0005273 -0.0006626 0.0009059 -0.0016579 -0.0000479 -0.0003357 -0.0009598 -0.0014150 -0.0002408 -0.0001933 -0.0000126 -0.0008954 0.0001689 -0.0008080 -0.0012566 -0.0005357 -0.0000523 -0.0008113 0.0002109 -0.0006744 0.0002337 -0.0006051 -0.0000509 -0.0008131 -0.0004196 -0.0019614 0.0005396 -0.0006966 -0.0002478 -0.0007809 -0.0000379 -0.0006618 -0.0010353 -0.0015392 -0.0000140 -0.0027299 0.0039594 -0.0052254 0.0006998 -0.0010421 0.0001564 -0.0004401 -0.0002179 -0.0013004 0.0015269 -0.0030836 0.0000717 -0.0002524 0.0000768 -0.0013202 0.0005507 -0.0015395 0.0029943 0.0017429 -0.0001271 -0.0005013 -0.0016315 0.0019902 0.0000698 -0.0003464 0.0001493 -0.0003314 0.0000886 -0.0011821 0.0001605 -0.0012282 -0.0000763 -0.0005836
0.0000845 -0.0008334 0.0001901 -0.0010573 0.0001597 -0.0011238 -0.0001487 -0.0001007 -0.0000508 -0.0001395 0.0001781 -0.0008691 0.0001469 -0.0007997 -0.0000034 -0.0004697 0.0000477 -0.0005384 0.0000501 -0.0005448 0.0002201 -0.0006475 0.0000418 -0.0006660 0.0001786 -0.0004418 -0.0001077 -0.0008506 -0.0000159 -0.0005929 -0.0001629 -0.0006997 -0.0000019 -0.0004809 0.0002067 -0.0007395 -0.0000137 -0.0001210 -0.0004790 -0.0003295 0.0000934 -0.0006918 0.0000564 -0.0005761 0.0000804 -0.0010367 -0.0000461 -0.0001721 -0.0005028 -0.0001270 -0.0002421 0.0002870 -0.0001188 0.0001140 -0.0002128 0.0000166 -0.0002587 0.0006430 0.0001248 -0.0004840 -0.0001460 0.0000809 0.0014972 -0.0017604 0.0000772 -0.0005501 0.0006404 -0.0018067 -0.0022741 0.0013121 0.0003192 -0.0000386 -0.0129225 0.0123221 -0.0129207 0.0043035 -0.0002798 -0.0007622 0.0005506 -0.0010164 0.0032979 -0.0006539 0.0014912 -0.0005943 -0.0000427 -0.0003408 -0.0029728 0.0028806 0.0000307 -0.0000054 0.0000569 -0.0006507 -0.0075356 -0.0002133 0.0071779 -0.0065069 0.0001363 -0.0006404 -0.0000216 0.0002761 -0.0006582 0.0001420 -0.0004033 -0.0005726 0.0000463 -0.0006019 0.0111501 -0.0153869 -0.0141902 0.0237691 -0.0001420 0.0000940 -0.0001277 0.0001728 -0.0001530 0.0003564 0.0000429 -0.0004058 0.0001040 -0.0005056 0.0001996 0.0004477 0.0001485 0.0003552 -0.0102690 0.0065788 0.0004257 0.0004655 -0.0004264 0.0001075 -0.0002550 0.0007920 -0.0198407 0.0229891 0.0002163 -0.0008535 0.0000056 0.0003495 -0.0002916 -0.0005122 -0.0000205 -0.0004475 -0.0003090 0.0006505 -0.0001698 -0.0002317 0.0002411 -0.0005510 -0.0002457 0.0008066 0.0004380 -0.0009591 0.0001623 -0.0006095 -0.0006343 -0.0013254 -0.0001584 -0.0000743 0.0000226 -0.0007656 -0.0000426 -0.0003025 -0.0008687 -0.0006977 -0.0000524 -0.0005999 0.0001499 -0.0003980 0.0008033 -0.0010193 0.0000621 -0.0005806 -0.0002597 -0.0014783 0.0008257 -0.0009345 0.0003956 -0.0008218 -0.0000385 -0.0004519 -0.0006542 -0.0015309 -0.0000575 -0.0029032 0.0072159 -0.0032616 0.0000275 -0.0003075 0.0001874 -0.0001996 0.0001809 -0.0014388 0.0007605 -0.0002614 -0.0000181 0.0000273 0.0001062 -0.0009491 -0.0000104 -0.0011074 -0.0098637 0.0092586 -0.0002319 -0.0001498 -0.0015935 0.0007978 0.0000612 -0.0000682 0.0003311 -0.0001642 0.0000353 -0.0007863 0.0002026 -0.0007674 -0.0000847 0.0000050
