-0.0000000 -0.0000000 -0.0000000 -0.0000000 -0.0000000 -0.0000000 -0.0000000 -0.0000000 -0.0000000 -0.0000000 -0.0000000 -0.0000000 -0.0000000 -0.0000000 -0.0000000 -0.0000000 -0.0000000 -0.0000000 -0.0000000 -0.0000000 -0.0000000 -0.0000000 -0.0000000 -0.0000000 -0.0000000 -0.0000000 -0.0000000 -0.0000000 -0.0000000 -0.0000000 -0.0000000 -0.0000000 -0.0000000 -0.0000000 -0.0000000 -0.0000000 -0.0000000 -0.0000000 -0.0000000 -0.0000000 -0.0000000 -0.0000000 -0.0000000 -0.0000000 -0.0000000 -0.0000000 -0.0000000 -0.0000000 -0.0000000 -0.0000000 -0.0000000 -0.0000000 -0.0000000 -0.0000000 -0.0000000 -0.0000000 -0.0000000 -0.0000000 -0.0000000 -0.0000000 -0.0000000 -0.0000000 -0.0000000 -0.0000000 -0.0000000 -0.0000000 -0.0000000 -0.0000000 -0.0000000 -0.0000000 -0.0000000 -0.0000000 -0.0000000 -0.0000000 -0.0000000 -0.0000000 -0.0000000 -0.0000000 -0.0000000 -0.0000000 -0.0000000 -0.0000000 -0.0000000 -0.0000000 -0.0000000 -0.0000000 -0.0000000 -0.0000000 -0.0000000 -0.0000000 -0.0000000 -0.0000000 -0.0000000 -0.0000000 -0.0000000 -0.0000000 -0.0000000 -0.0000000 -0.0000000 -0.0000000 -0.0000000 -0.0000000 -0.0000000 -0.0000000 -0.0000000 -0.0000000 -0.0000000 -0.0000000 -0.0000000 -0.0000000 -0.0000000 -0.0000000 -0.0000000 -0.0000000 -0.0000000 -0.0000000 -0.0000000 -0.0000000 -0.0000000 -0.0000000 -0.0000000 -0.0000000 -0.0000000 -0.0000000 -0.0000000 -0.0000000 -0.0000000 -0.0000000 -0.0000000 -0.0000000 -0.0000000 -0.0000000 -0.0000000 -0.0000000 -0.0000000 -0.0000000 -0.0000000 -0.0000000 -0.0000000 -0.0000000 -0.0000000 -0.0000000 -0.0000000 -0.0000000 -0.0000000 -0.0000000 -0.0000000 -0.0000000 -0.0000000 -0.0000000 -0.0000000 -0.0000000 -0.0000000 -0.0000000 -0.0000000 -0.0000000 -0.0000000 -0.0000000 -0.0000000 -0.0000000 -0.0000000 -0.0000000 -0.0000000 -0.0000000 -0.0000000 -0.0000000 -0.0000000 -0.0000000 -0.0000000 -0.0000000 -0.0000000 -0.0000000 -0.0000000 -0.0000000 -0.0000000 -0.0000000 -0.0000000 -0.0000000 -0.0000000 -0.0000000 -0.0000000 -0.0000000 -0.0000000 -0.0000000 -0.0000000 -0.0000000 -0.0000000 -0.0000000 -0.0000000 -0.0000000 -0.0000000 -0.0000000 -0.0000000 -0.0000000 -0.0000000 -0.0000000 -0.0000000 -0.0000000 -0.0000000 -0.0000000 -0.0000000 -0.0000000 -0.0000000 -0.0000000 -0.0000000 -0.0000000 -0.0000000 -0.0000000 -0.0000000 -0.0000000 -0.0000000 -0.0000000 -0.0000000 -0.0000000 -0.0000000 -0.0000000
-0.0000000 -0.0000000 -0.0000000 -0.0000000 -0.0000000 -0.0000000 -0.0000000 -0.0000000 -0.0000000 -0.0000000 -0.0000000 -0.0000000 -0.0000000 -0.0000000 -0.0000000 -0.0000000 -0.0000000 -0.0000000 -0.0000000 -0.0000000 -0.0000000 -0.0000000 -0.0000000 -0.0000000 -0.0000000 -0.0000000 -0.0000000 -0.0000000 -0.0000000 -0.0000000 -0.0000000 -0.0000000 -0.0000000 -0.0000000 -0.0000000 -0.0000000 -0.0000000 -0.0000000 -0.0000000 -0.0000000 -0.0000000 -0.0000000 -0.0000000 -0.0000000 -0.0000000 -0.0000000 -0.0000000 -0.0000000 -0.0000000 -0.0000000 -0.0000000 -0.0000000 -0.0000000 -0.0000000 -0.0000000 -0.0000000 -0.0000000 -0.0000000 -0.0000000 -0.0000000 -0.0000000 -0.0000000 -0.0000000 -0.0000000 -0.0000000 -0.0000000 -0.0000000 -0.0000000 -0.0000000 -0.0000000 -0.0000000 -0.0000000 -0.0000000 -0.0000000 -0.0000000 -0.0000000 -0.0000000 -0.0000000 -0.0000000 -0.0000000 -0.0000000 -0.0000000 -0.0000000 -0.0000000 -0.0000000 -0.0000000 -0.0000000 -0.0000000 -0.0000000 -0.0000000 -0.0000000 -0.0000000 -0.0000000 -0.0000000 -0.0000000 -0.0000000 -0.0000000 -0.0000000 -0.0000000 -0.0000000 -0.0000000 -0.0000000 -0.0000000 -0.0000000 -0.0000000 -0.0000000 -0.0000000 -0.0000000 -0.0000000 -0.0000000 -0.0000000 -0.0000000 -0.0000000 -0.0000000 -0.0000000 -0.0000000 -0.0000000 -0.0000000 -0.0000000 -0.0000000 -0.0000000 -0.0000000 -0.0000000 -0.0000000 -0.0000000 -0.0000000 -0.0000000 -0.0000000 -0.0000000 -0.0000000 -0.0000000 -0.0000000 -0.0000000 -0.0000000 -0.0000000 -0.0000000 -0.0000000 -0.0000000 -0.0000000 -0.0000000 -0.0000000 -0.0000000 -0.0000000 -0.0000000 -0.0000000 -0.0000000 -0.0000000 -0.0000000 -0.0000000 -0.0000000 -0.0000000 -0.0000000 -0.0000000 -0.0000000 -0.0000000 -0.0000000 -0.0000000 -0.0000000 -0.0000000 -0.0000000 -0.0000000 -0.0000000 -0.0000000 -0.0000000 -0.0000000 -0.0000000 -0.0000000 -0.0000000 -0.0000000 -0.0000000 -0.0000000 -0.0000000 -0.0000000 -0.0000000 -0.0000000 -0.0000000 -0.0000000 -0.0000000 -0.0000000 -0.0000000 -0.0000000 -0.0000000 -0.0000000 -0.0000000 -0.0000000 -0.0000000 -0.0000000 -0.0000000 -0.0000000 -0.0000000 -0.0000000 -0.0000000 -0.0000000 -0.0000000 -0.0000000 -0.0000000 -0.0000000 -0.0000000 -0.0000000 -0.0000000 -0.0000000 -0.0000000 -0.0000000 -0.0000000 -0.0000000 -0.0000000 -0.0000000 -0.0000000 -0.0000000 -0.0000000 -0.0000000 -0.0000000 -0.0000000 -0.0000000 -0.0000000 -0.0000000
-0.0000022 0.0000310 0.0000012 0.0000402 0.0000056 0.0000411 0.0000064 0.0000170 -0.0000021 0.0000135 0.0000066 0.0000530 -0.0000022 0.0000609 -0.0000028 0.0000430 0.0000011 0.0000485 0.0000176 0.0000169 -0.0000186 0.0000612 0.0000062 0.0000283 -0.0000081 0.0000111 0.0000009 0.0000715 0.0000048 0.0000735 0.0000020 0.0000839 0.0000076 0.0000919 0.0000119 0.0000332 0.0000085 0.0000456 -0.0010277 0.0008317 0.0000157 0.0000224 -0.0000520 -0.0000756 0.0000277 0.0000020 0.0000081 0.0000058 -0.0000547 -0.0000672 0.0000503 -0.0000101 0.0000014 0.0000046 -0.0000217 0.0000081 -0.0000143 0.0000087 -0.0000089 0.0000203 -0.0000153 0.0000019 -0.0000102 0.0000271 -0.0000038 0.0000877 0.0000000 0.0000059 0.0003607 -0.0002824 0.0000667 -0.0000669 -0.0001823 0.0001576 0.0027179 -0.0014351 0.0000332 0.0000063 -0.0000610 0.0001273 0.0008159 -0.0010376 -0.0000086 -0.0000597 0.0000078 0.0000812 0.0001394 0.0001764 -0.0001036 0.0001212 0.0000314 0.0001823 0.0012088 -0.0047378 0.0001289 0.0001625 0.0004939 -0.0002769 -0.0014552 0.0006978 0.0000054 0.0000500 -0.0022569 0.0032709 -0.0000805 0.0001790 0.0001367 -0.0004086 0.0000381 0.0001271 -0.0001312 -0.0001881 -0.0000322 -0.0000209 -0.0000113 0.0000819 -0.0000267 -0.0000219 -0.0000280 0.0000575 -0.0000223 -0.0000111 -0.0000768 -0.0001004 0.0000899 -0.0003374 -0.0013497 0.0008238 0.0042961 -0.0030754 0.0003357 -0.0010443 -0.0025812 0.0038441 0.0000541 -0.0000383 0.0015379 -0.0017456 -0.0003756 0.0001118 -0.0000323 0.0000316 0.0001165 -0.0000701 0.0000155 0.0001142 0.0000107 0.0000810 -0.0002710 0.0006707 0.0008810 -0.0008483 0.0015103 -0.0022064 -0.0005402 0.0008218 0.0000235 0.0000224 -0.0002894 0.0002956 0.0001298 -0.0001217 0.0001317 -0.0001847 0.0000231 0.0000694 0.0000667 -0.0000461 -0.0020650 0.0018815 0.0001912 -0.0001478 0.0000920 -0.0001326 0.0000725 0.0006608 0.0003987 -0.0003123 0.0000104 0.0000322 0.0000176 -0.0000522 0.0000504 -0.0001363 -0.0015000 -0.0023714 0.0000790 -0.0000493 -0.0000413 0.0000598 0.0000930 0.0000319 -0.0019079 0.0020982 -0.0008154 0.0008548 0.0000607 -0.0000473 0.0020617 -0.0021422 -0.0018425 0.0035830 -0.0000735 -0.0006173 0.0001051 -0.0001564 0.0000173 -0.0000417 -0.0000152 0.0000256 0.0001453 -0.0001765 -0.0000161 -0.0000055 -0.0002005 -0.0000538
0.0000196 -0.0000387 0.0000121 -0.0000079 0.0000175 -0.0000313 0.0000099 -0.0000378 -0.0000039 -0.0000764 0.0000102 -0.0000397 0.0000019 -0.0000094 -0.0000015 -0.0000470 0.0000069 0.0000060 0.0000232 -0.0000260 0.0000234 -0.0000413 0.0000287 -0.0000419 0.0000153 -0.0000043 -0.0000028 -0.0000006 0.0000159 -0.0000270 0.0000018 -0.0000181 0.0000193 -0.0000007 0.0000253 -0.0000228 0.0000062 -0.0000134 0.0001012 0.0002103 0.0000313 -0.0000156 0.0000077 -0.0000320 -0.0000629 0.0000548 -0.0000031 -0.0000730 0.0001348 -0.0001129 0.0000250 0.0000065 0.0000105 -0.0000158 -0.0000160 -0.0000046 -0.0000325 -0.0000279 -0.0000069 0.0000073 -0.0000316 -0.0000049 0.0000251 0.0000366 0.0000318 0.0000494 -0.0000319 0.0000761 0.0000344 0.0000564 -0.0001074 0.0000761 -0.0006053 0.0005835 -0.0012113 0.0031283 0.0000080 0.0000833 -0.0000614 0.0001476 0.0011767 -0.0011711 -0.0001982 0.0001321 -0.0000091 0.0001548 -0.0006040 0.0011058 0.0000985 -0.0000469 0.0000392 0.0002742 -0.0006425 -0.0009378 -0.0004331 0.0006238 0.0003484 -0.0002433 -0.0042018 0.0049215 -0.0000473 0.0002282 0.0006463 0.0026732 -0.0000517 0.0002362 0.0000146 -0.0002440 0.0000107 0.0000575 -0.0001292 -0.0000634 -0.0000506 -0.0000120 0.0002070 -0.0000463 -0.0000136 0.0000441 -0.0001028 0.0002194 -0.0000437 0.0000156 0.0001087 -0.0002186 0.0005006 -0.0002894 0.0011193 -0.0014743 -0.0003977 -0.0289995 0.0057530 -0.0049918 -0.0054786 0.0072836 0.0000767 0.0000244 0.0009122 -0.0011711 0.0000885 -0.0006145 -0.0000275 0.0001253 0.0001274 0.0000225 0.0001699 0.0000479 -0.0000200 0.0001484 -0.0011054 0.0018199 0.0010399 -0.0008354 0.0019336 -0.0021874 -0.0009070 0.0007204 0.0000493 0.0000653 -0.0016195 0.0016208 -0.0000240 0.0001874 -0.0000660 0.0000550 -0.0000352 0.0001735 0.0001203 -0.0001424 -0.0005508 0.0000276 0.0000014 0.0000967 -0.0005751 0.0006016 -0.0009807 0.0008913 0.0007938 -0.0004312 0.0000738 0.0000180 -0.0002028 0.0003978 0.0000682 -0.0000732 -0.0004896 0.0011806 0.0004359 -0.0001837 -0.0001141 0.0001478 -0.0002025 0.0002482 -0.0010016 0.0048597 -0.0002704 0.0003147 0.0000335 -0.0000209 -0.0017728 0.0008132 -0.0053168 0.0050067 -0.0003785 0.0009623 0.0002736 -0.0000104 -0.0000169 0.0000138 0.0000083 0.0000354 0.0000526 -0.0000502 0.0000128 0.0000188 -0.0000146 0.0002385
0.0000175 -0.0000153 0.0000114 0.0000035 0.0000216 -0.0000228 0.0000004 -0.0000209 0.0000137 -0.0000552 0.0000256 -0.0000546 -0.0000034 -0.0000059 0.0000003 -0.0000436 -0.0000062 -0.0000150 0.0000261 -0.0000530 0.0000331 -0.0000832 0.0000272 -0.0000517 0.0000156 0.0000051 0.0000087 0.0000043 0.0000080 -0.0000224 0.0000172 -0.0000533 0.0000138 -0.0000503 0.0000410 -0.0000418 0.0000154 -0.0000325 0.0006419 -0.0010582 0.0000285 -0.0000510 0.0001178 0.0000173 0.0000354 -0.0000649 -0.0000038 -0.0001207 0.0000661 0.0000096 0.0000224 -0.0000800 0.0000154 -0.0000960 0.0000153 -0.0000774 -0.0000436 -0.0001127 -0.0000178 -0.0000715 -0.0000360 -0.0000546 0.0000341 -0.0000271 0.0000496 0.0000372 -0.0000445 -0.0000410 -0.0001237 0.0003799 -0.0002115 0.0000667 0.0003217 -0.0001761 -0.0026991 0.0034397 0.0000548 -0.0000975 -0.0000655 -0.0000284 0.0009041 -0.0002651 -0.0000358 0.0000386 0.0000124 0.0000635 -0.0003365 0.0009812 0.0001703 -0.0001292 0.0000460 0.0001068 -0.0029650 0.0026076 -0.0003041 0.0002100 -0.0000236 0.0002304 -0.0015387 0.0012212 -0.0002379 0.0002724 0.0046040 -0.0026806 -0.0000234 0.0000772 0.0001680 -0.0002120 -0.0000265 -0.0001677 0.0001492 -0.0001897 -0.0000546 -0.0000433 0.0000818 0.0001205 0.0000026 0.0000393 -0.0001003 0.0001125 0.0000825 0.0000589 -0.0004100 0.0002131 0.0004742 -0.0004125 -0.0004108 -0.0000079 0.0069322 -0.0156581 0.0075435 -0.0065349 -0.0036940 0.0039561 0.0001595 -0.0001850 -0.0009600 0.0010544 -0.0000368 0.0001409 0.0000108 0.0000829 0.0000453 0.0000343 0.0003780 -0.0003746 0.0000683 -0.0000039 0.0000544 0.0008428 0.0008002 -0.0004942 0.0001672 0.0010335 -0.0012221 0.0013234 -0.0000153 0.0001186 -0.0014634 0.0013646 -0.0002083 0.0002338 0.0001667 0.0001845 -0.0000349 0.0001094 0.0002806 -0.0000839 -0.0042839 0.0045008 -0.0002386 0.0003195 -0.0007442 0.0008401 -0.0005426 -0.0011831 0.0001791 0.0002393 0.0000603 0.0000467 -0.0002434 0.0006807 0.0000825 0.0000985 -0.0024703 0.0067593 -0.0001358 0.0000546 0.0000852 -0.0000959 -0.0000659 0.0001487 -0.0002630 -0.0059869 -0.0009022 0.0008812 -0.0000057 0.0000169 -0.0025588 0.0014277 0.0006992 -0.0064190 0.0025191 -0.0018693 -0.0000733 -0.0000840 -0.0000382 0.0000610 0.0000225 0.0000032 -0.0002097 0.0002642 0.0000204 0.0000353 -0.0002681 0.0003576
0.0000115 0.0000041 0.0000159 0.0000034 0.0000338 -0.0000189 0.0000071 -0.0000116 0.0000389 -0.0000005 0.0000454 -0.0000658 -0.0000076 0.0000240 -0.0000003 -0.0000302 -0.0000182 -0.0000354 0.0000269 -0.0000544 0.0000074 -0.0000224 0.0000332 -0.0000386 0.0000304 -0.0000172 0.0000202 0.0000912 0.0000040 0.0000306 0.0000342 0.0000551 0.0000192 0.0000018 0.0000594 -0.0000217 0.0000193 0.0000267 -0.0006977 0.0000579 0.0000489 -0.0000373 -0.0000879 0.0002346 0.0000730 -0.0000799 0.0000007 0.0000394 -0.0002260 0.0002220 -0.0000111 -0.0000766 -0.0000227 -0.0000580 0.0000072 -0.0000786 -0.0000578 -0.0001245 -0.0000257 -0.0000376 -0.0000426 -0.0000502 -0.0000101 0.0000039 0.0000887 -0.0000039 -0.0000722 0.0001101 0.0000387 0.0002581 -0.0002435 0.0000442 0.0000538 -0.0001636 0.0057837 -0.0033246 0.0000726 -0.0000702 0.0000346 -0.0000992 -0.0006596 0.0005471 -0.0001997 0.0002235 0.0000171 0.0000475 -0.0001457 0.0006734 -0.0002749 0.0004058 0.0000540 0.0000733 0.0003412 -0.0017813 -0.0004740 0.0004543 -0.0000482 0.0005155 -0.0026713 0.0014962 -0.0000717 0.0001571 -0.0046700 0.0063613 0.0000340 -0.0000010 0.0000568 -0.0002253 -0.0000541 -0.0001913 -0.0001793 0.0001411 -0.0000651 -0.0000531 -0.0001236 0.0002512 0.0000100 0.0000946 -0.0000132 0.0000238 0.0000308 0.0000826 -0.0001699 0.0001675 0.0006891 -0.0006862 0.0017455 -0.0012136 0.0063939 -0.0041341 0.0073819 -0.0079423 -0.0012405 0.0017050 0.0001074 -0.0001461 -0.0024754 0.0023415 -0.0011550 0.0012035 0.0000277 0.0000325 0.0001363 -0.0000055 0.0002633 -0.0002658 -0.0000708 0.0001113 0.0015428 -0.0015490 0.0004951 -0.0006281 -0.0003563 0.0011825 0.0006922 -0.0004056 0.0000627 0.0000618 -0.0006737 0.0007520 -0.0000625 0.0001397 0.0004024 -0.0001115 0.0000149 0.0000098 0.0001965 0.0000476 -0.0053992 0.0069451 0.0002395 -0.0000696 -0.0004332 0.0002988 0.0009001 -0.0019047 0.0000641 0.0000271 -0.0000118 0.0000723 0.0003082 -0.0001970 -0.0000182 0.0001027 -0.0063719 0.0104080 -0.0006473 0.0004053 0.0000273 -0.0001443 0.0001440 -0.0000206 -0.0122090 0.0084124 -0.0005897 0.0002883 0.0000286 -0.0000598 0.0001884 -0.0006266 0.0017742 -0.0098331 0.0009514 -0.0012226 -0.0001196 -0.0002906 -0.0000108 -0.0000738 -0.0000105 -0.0000233 -0.0000886 0.0000259 -0.0000086 -0.0000608 -0.0004259 0.0005190
0.0000127 -0.0000643 0.0000230 -0.0000740 0.0000528 -0.0001249 0.0000197 -0.0000850 0.0000405 -0.0000642 0.0000430 -0.0001556 -0.0000059 -0.0000570 0.0000031 -0.0001159 -0.0000075 -0.0000606 0.0000473 -0.0000922 -0.0000039 -0.0000774 0.0000503 -0.0000835 0.0000389 0.0000468 0.0000174 -0.0000031 0.0000197 -0.0000826 0.0000336 -0.0000313 0.0000197 -0.0000626 0.0000577 -0.0000763 0.0000219 -0.0000547 -0.0008079 0.0008076 0.0000561 -0.0000753 -0.0000508 0.0001399 0.0000379 -0.0000384 0.0000056 0.0000177 -0.0000655 -0.0000220 0.0000284 -0.0001257 -0.0000295 -0.0000794 -0.0000049 -0.0001214 -0.0000692 -0.0001785 0.0000027 -0.0000472 -0.0000494 -0.0000785 -0.0000138 -0.0000712 0.0000942 -0.0000080 0.0000163 0.0000722 0.0001063 0.0000673 -0.0003209 0.0001183 -0.0001742 -0.0001501 0.0127324 -0.0094849 -0.0000086 0.0000297 0.0001961 -0.0001353 -0.0009346 0.0009594 -0.0001038 0.0001560 0.0000034 0.0000185 -0.0001564 0.0003345 -0.0001484 0.0002501 0.0001136 -0.0000257 0.0006242 0.0002839 0.0001862 -0.0000591 -0.0007507 0.0010283 0.0020147 -0.0007516 0.0001064 -0.0000969 -0.0051470 0.0023572 -0.0000923 0.0001566 -0.0002018 -0.0000642 -0.0000649 -0.0001687 -0.0002704 0.0001976 -0.0000714 -0.0000710 -0.0000617 0.0002061 -0.0000019 0.0001252 0.0000113 0.0000312 -0.0000619 0.0002178 -0.0001831 0.0001816 -0.0000003 -0.0000169 0.0016781 -0.0012223 0.0004523 0.0137777 0.0052452 -0.0131035 -0.0009323 0.0003426 -0.0000316 0.0000677 -0.0029130 0.0020178 -0.0018958 0.0022551 0.0000087 0.0001326 0.0000635 0.0001312 -0.0000634 0.0003284 0.0000057 0.0000408 -0.0000298 -0.0003477 -0.0002228 -0.0001948 -0.0006807 0.0010161 0.0003918 -0.0006776 0.0000752 0.0000729 -0.0001809 0.0004100 0.0005867 -0.0002582 0.0001856 0.0002026 0.0000017 0.0000356 0.0000762 0.0000546 -0.0011828 0.0008842 0.0004371 0.0000098 -0.0004247 0.0005693 0.0006777 -0.0008333 0.0005941 -0.0006623 -0.0000276 0.0000713 0.0001773 -0.0000589 0.0000709 -0.0000077 -0.0065856 0.0114590 -0.0008130 0.0006691 -0.0000462 -0.0000105 0.0000362 0.0001299 -0.0021095 0.0007475 -0.0003361 -0.0003757 0.0000892 -0.0000798 -0.0001074 -0.0001453 -0.0026728 0.0030979 -0.0020530 0.0015681 -0.0004653 0.0003716 0.0000140 -0.0000768 -0.0000794 0.0000818 0.0000244 -0.0001550 0.0000195 -0.0000485 -0.0007390 0.0008596
0.0000161 -0.0000443 0.0000286 -0.0000600 0.0000516 -0.0000876 0.0000141 -0.0000835 0.0000387 -0.0000157 0.0000098 -0.0000477 -0.0000090 -0.0000190 0.0000073 -0.0000732 -0.0000157 -0.0000193 0.0000489 -0.0000680 -0.0000004 -0.0000419 0.0000552 -0.0000691 0.0000472 0.0000713 0.0000172 0.0001019 0.0000090 0.0000023 0.0000370 0.0000739 0.0000061 0.0000342 0.0000518 -0.0000403 0.0000250 0.0000071 -0.0004445 0.0006437 0.0000440 -0.0000146 0.0000239 -0.0000165 0.0000392 -0.0000241 0.0000141 0.0000466 0.0001016 -0.0002955 0.0000217 -0.0001562 -0.0000276 -0.0000952 0.0000009 -0.0001303 -0.0000817 -0.0001916 0.0000222 -0.0000262 -0.0000459 -0.0000897 0.0000148 -0.0000769 0.0000540 0.0000767 0.0000708 0.0000406 0.0004255 -0.0003759 -0.0000855 0.0000062 0.0000568 -0.0003261 0.0035628 -0.0016448 -0.0000615 0.0001672 0.0001744 -0.0000845 0.0011315 -0.0006845 0.0001925 -0.0000368 0.0000313 -0.0000591 0.0001599 -0.0000985 0.0001547 -0.0001580 0.0000597 -0.0001004 0.0003018 0.0017882 0.0006862 -0.0007276 -0.0007665 0.0010296 0.0003409 0.0022774 0.0004647 -0.0004696 -0.0160518 0.0105987 -0.0000531 0.0000227 -0.0000039 -0.0003585 -0.0000506 -0.0000989 -0.0000511 -0.0001580 -0.0001054 -0.0000935 -0.0000417 0.0001228 -0.0000253 -0.0000120 0.0000304 0.0000160 0.0000220 0.0002233 0.0002043 -0.0002713 -0.0001625 -0.0002844 0.0005956 -0.0006767 -0.0059075 0.0226180 -0.0024850 0.0001161 0.0027802 -0.0019132 -0.0000359 0.0000612 0.0018679 -0.0026151 -0.0004385 0.0006157 0.0000273 0.0000854 -0.0000194 0.0001655 -0.0000319 0.0002450 0.0000718 -0.0000043 -0.0000950 0.0005806 -0.0006783 0.0006858 -0.0039665 0.0043269 -0.0013401 0.0005514 0.0001377 -0.0000460 -0.0001597 0.0008765 0.0004425 -0.0003668 -0.0003649 0.0004930 -0.0000159 0.0000160 0.0000808 -0.0000224 0.0009683 -0.0014403 -0.0000486 0.0001855 -0.0007395 0.0009762 0.0019554 -0.0024200 0.0008426 -0.0005636 0.0000265 0.0000205 -0.0000269 0.0003800 0.0000004 -0.0001023 -0.0132671 0.0110211 -0.0003482 0.0004413 0.0000229 -0.0000880 0.0003619 -0.0001005 0.0100919 -0.0166338 -0.0000826 -0.0001626 0.0000890 -0.0000626 -0.0019015 0.0017134 0.0040957 -0.0054336 -0.0029061 0.0021118 -0.0001211 0.0002073 0.0000132 -0.0000564 -0.0000487 0.0000685 0.0002740 -0.0003439 0.0000541 -0.0000659 -0.0003785 0.0001141
0.0000210 -0.0000239 0.0000377 -0.0000409 0.0000505 -0.0000378 -0.0000015 -0.0000593 0.0000335 0.0000514 0.0000314 0.0000173 -0.0000001 0.0000207 0.0000038 -0.0000183 -0.0000148 0.0000156 0.0000417 -0.0000416 0.0000194 0.0000170 0.0000481 -0.0000297 0.0000820 0.0000221 0.0000111 0.0002172 -0.0000263 0.0001414 0.0000367 0.0001754 0.0000026 0.0001600 0.0000532 0.0000201 0.0000204 0.0000908 0.0004705 -0.0003616 0.0000533 0.0000420 0.0000419 -0.0001633 0.0000084 0.0000019 0.0000191 0.0000867 -0.0001228 -0.0001175 0.0000011 -0.0001078 -0.0000321 -0.0000698 -0.0000279 -0.0000794 -0.0000922 -0.0001830 0.0000104 0.0000399 -0.0000467 -0.0000603 0.0000191 0.0000280 0.0000027 0.0000816 0.0000990 0.0000787 0.0003978 -0.0004508 0.0000672 0.0000067 -0.0002276 0.0001112 -0.0055239 0.0065809 -0.0000317 0.0002045 0.0000259 0.0001593 0.0013356 -0.0017945 0.0002708 -0.0000448 0.0000329 0.0000169 0.0003072 -0.0000020 0.0000934 0.0001102 -0.0000081 0.0000464 0.0050720 -0.0042079 0.0006185 -0.0006106 -0.0007009 0.0009898 -0.0104257 0.0111769 0.0002789 -0.0002514 -0.0012477 -0.0091933 0.0001300 -0.0001044 0.0001147 -0.0004860 -0.0000269 0.0000703 -0.0002940 -0.0002134 -0.0001250 -0.0001073 0.0000645 0.0000239 -0.0000507 -0.0000799 0.0000419 0.0000803 0.0001172 -0.0000671 0.0005705 -0.0001923 0.0004287 -0.0004900 0.0009560 -0.0005301 -0.0172540 0.0191091 -0.0068535 0.0054496 0.0025003 -0.0017235 -0.0000268 0.0002575 0.0026263 -0.0020401 0.0002852 -0.0000484 -0.0000107 0.0001491 -0.0000313 0.0002511 0.0003918 -0.0000996 -0.0000855 0.0002667 0.0002869 0.0007209 -0.0006459 0.0011311 -0.0032583 0.0043202 -0.0007275 0.0005730 0.0000916 0.0000083 -0.0006516 0.0008401 -0.0001185 -0.0000081 -0.0007921 0.0004558 0.0000601 -0.0000092 0.0000713 0.0000840 0.0008064 0.0002446 -0.0002141 0.0005295 0.0002546 0.0000680 0.0021333 -0.0027596 -0.0000674 0.0007224 0.0000544 0.0000828 0.0001011 0.0002594 0.0000760 0.0000197 -0.0313718 0.0262219 0.0005554 -0.0002604 0.0000472 -0.0000368 0.0007254 -0.0004872 0.0046999 -0.0068222 0.0008574 -0.0001600 0.0000343 0.0000314 -0.0019021 0.0012251 -0.0085772 0.0021485 -0.0005071 0.0006048 0.0000180 -0.0001458 0.0000018 0.0000150 0.0000399 -0.0000031 0.0001801 -0.0000435 0.0000544 -0.0000473 0.0003377 -0.0006362
0.0000223 0.0000237 0.0000318 -0.0000061 0.0000492 -0.0000087 -0.0000007 -0.0000566 0.0000103 0.0000627 0.0000190 0.0000223 -0.0000068 0.0000459 -0.0000024 0.0000169 -0.0000079 0.0000499 0.0000452 -0.0000636 0.0000099 0.0000482 0.0000498 -0.0000323 0.0000703 -0.0000507 0.0000025 0.0001990 -0.0000390 0.0001630 0.0000242 0.0000877 -0.0000179 0.0001792 0.0000426 0.0000224 0.0000173 0.0000258 0.0005393 -0.0004499 0.0000725 -0.0000208 -0.0000856 -0.0001536 -0.0000270 -0.0000601 0.0000209 0.0000013 -0.0002006 -0.0001019 0.0000215 -0.0002071 -0.0000181 -0.0001577 -0.0000262 -0.0001137 -0.0000972 -0.0002662 -0.0000229 -0.0000230 -0.0000487 -0.0000940 0.0001258 -0.0001145 0.0000131 0.0000332 0.0000074 -0.0000854 0.0002116 -0.0001795 -0.0002070 0.0001897 0.0001874 -0.0001727 -0.0013090 -0.0000525 0.0000252 0.0000226 0.0000301 0.0000559 0.0010161 -0.0009941 0.0001857 -0.0000267 0.0000425 0.0000858 0.0006142 0.0000002 0.0003215 -0.0002064 0.0000152 0.0000477 0.0040467 -0.0030866 -0.0002881 0.0001693 -0.0006588 0.0008851 -0.0035308 0.0022377 -0.0003002 0.0000952 0.0088791 -0.0179594 0.0001201 -0.0000982 0.0000674 -0.0003791 -0.0000234 0.0001400 -0.0002700 -0.0003590 -0.0001463 -0.0001721 -0.0000046 0.0000300 -0.0000590 -0.0002014 0.0000554 0.0000293 0.0000023 0.0000451 -0.0001097 0.0004823 0.0003155 0.0000549 0.0001165 0.0001665 -0.0026228 -0.0014375 0.0048510 -0.0071946 0.0001228 0.0020750 -0.0000024 0.0002489 0.0014594 -0.0008044 0.0006488 0.0003302 -0.0000952 0.0002421 -0.0000829 0.0002737 0.0004919 0.0000455 -0.0000610 0.0002077 0.0012311 -0.0004618 -0.0003514 0.0011871 0.0020348 -0.0005614 0.0002281 -0.0004513 -0.0001304 0.0002306 -0.0002149 0.0004028 -0.0003525 0.0001818 -0.0007314 0.0002824 0.0000571 -0.0000169 0.0001163 0.0000966 0.0038869 -0.0038470 0.0001233 0.0002502 0.0005520 -0.0001246 0.0004634 -0.0010100 -0.0006886 0.0011775 0.0000438 0.0001333 0.0002086 0.0000745 0.0001852 -0.0001385 -0.0086191 0.0073140 0.0003345 -0.0002659 0.0000193 -0.0000067 0.0004061 -0.0002058 -0.0022874 0.0015285 0.0005655 0.0002083 0.0000727 0.0000538 -0.0016081 0.0015207 -0.0021252 0.0033697 -0.0019114 0.0019556 -0.0000294 -0.0000874 -0.0000282 0.0000749 0.0000739 -0.0000259 -0.0000176 0.0001836 0.0000151 0.0000945 0.0004280 -0.0001274
0.0000256 0.0000528 0.0000272 0.0000614 0.0000353 0.0000618 -0.0000203 0.0000132 0.0000107 0.0001458 0.0000038 0.0001157 -0.0000326 0.0001410 -0.0000141 0.0001267 -0.0000217 0.0001396 0.0000557 -0.0000224 -0.0000188 0.0002112 0.0000475 0.0000173 -0.0000035 0.0000179 -0.0000014 0.0004051 -0.0000365 0.0003054 0.0000315 0.0002935 -0.0000536 0.0003700 0.0000471 0.0001048 0.0000125 0.0001515 0.0001728 0.0002476 0.0000633 0.0000971 0.0000402 -0.0001576 -0.0000231 0.0000376 0.0000276 0.0000950 -0.0000416 -0.0002662 0.0000144 -0.0001451 -0.0000175 -0.0001230 -0.0000260 -0.0000597 -0.0001034 -0.0002356 -0.0000612 0.0000527 -0.0000504 -0.0000341 0.0001230 -0.0000372 -0.0000141 0.0000647 -0.0000600 0.0000945 0.0001686 0.0001896 -0.0000363 0.0001557 0.0001685 -0.0001252 0.0030020 -0.0057561 -0.0000286 0.0002216 0.0001468 -0.0000372 0.0012913 -0.0005237 -0.0001411 0.0003290 0.0000514 0.0002761 0.0021984 -0.0012524 0.0005934 -0.0002574 0.0000111 0.0001679 0.0013376 -0.0016358 -0.0006015 0.0006680 -0.0010763 0.0011244 0.0058393 -0.0066064 -0.0006354 0.0004329 -0.0003951 0.0070454 -0.0000124 0.0001222 -0.0001614 -0.0003060 -0.0000320 0.0002719 -0.0003015 -0.0001681 -0.0001587 -0.0001829 -0.0002686 0.0003671 -0.0000979 -0.0002326 0.0000709 0.0001692 -0.0001580 0.0002349 -0.0002707 0.0005506 -0.0000115 0.0002831 0.0001077 -0.0000268 -0.0191753 0.0203598 0.0060921 -0.0088836 0.0040577 -0.0006677 0.0000187 0.0002900 -0.0023978 0.0024776 -0.0000285 0.0006153 -0.0000898 0.0003200 0.0000452 0.0002198 0.0001841 0.0005639 -0.0000122 0.0001923 0.0010923 -0.0008798 -0.0003280 0.0008515 0.0031015 -0.0026472 -0.0005912 0.0002761 -0.0000836 0.0002407 0.0005921 0.0001606 -0.0003608 0.0004597 -0.0003283 0.0002155 -0.0000478 0.0000960 -0.0000126 0.0002819 0.0026919 -0.0022851 -0.0001425 0.0002828 -0.0001361 0.0003922 0.0003576 0.0002118 -0.0004550 0.0009130 0.0000201 0.0001653 0.0000671 0.0002378 -0.0000785 -0.0001426 0.0101405 -0.0101088 0.0001086 -0.0001023 -0.0000141 -0.0000486 0.0001239 -0.0002452 -0.0077110 0.0076692 -0.0003021 0.0008315 0.0000437 0.0001090 -0.0013289 0.0005252 0.0046130 -0.0007885 -0.0025445 0.0023702 0.0002870 -0.0001540 -0.0000194 -0.0000322 0.0000514 -0.0000186 -0.0000063 0.0001194 -0.0000282 0.0001054 0.0001266 -0.0000673
0.0000275 0.0000024 0.0000274 0.0000441 0.0000374 0.0000193 -0.0000153 0.0000477 0.0000350 0.0002065 0.0000125 0.0001154 -0.0000440 0.0001118 -0.0000112 0.0001292 -0.0000200 0.0001896 0.0000666 -0.0000378 -0.0000331 0.0002147 0.0000476 0.0000196 0.0000711 -0.0000291 -0.0000026 0.0003952 -0.0000551 0.0002966 0.0000484 0.0004066 -0.0000808 0.0003585 0.0000461 0.0000972 -0.0000096 0.0001595 -0.0002385 0.0000450 0.0000632 0.0001048 0.0000386 -0.0001487 -0.0000727 0.0001111 0.0000333 0.0001879 -0.0001363 -0.0001975 0.0000083 -0.0000973 -0.0000205 -0.0000946 -0.0000339 -0.0000699 -0.0000858 -0.0002531 -0.0000318 0.0000396 -0.0000498 -0.0000364 0.0000722 0.0000779 0.0000751 -0.0000740 -0.0000121 0.0000865 0.0003176 -0.0001343 -0.0000800 0.0002567 -0.0002808 0.0002991 0.0052763 -0.0039722 -0.0000217 0.0002226 0.0001448 0.0000490 0.0016635 -0.0014221 0.0000709 0.0001279 0.0000710 0.0003401 0.0016798 -0.0011143 0.0003796 0.0000439 0.0000859 0.0001186 0.0036793 -0.0044095 -0.0002025 0.0009395 -0.0003736 0.0005532 0.0026376 0.0002385 -0.0002877 0.0003895 -0.0032427 0.0087487 -0.0000586 0.0002267 -0.0002783 -0.0002915 -0.0000184 0.0003360 -0.0001017 -0.0003846 -0.0001668 -0.0002093 -0.0000371 0.0000686 -0.0001314 -0.0002608 -0.0000234 0.0002666 -0.0001621 0.0002271 0.0000076 0.0002595 -0.0004010 0.0006031 0.0019653 -0.0012722 -0.0074945 -0.0001041 0.0030725 -0.0088334 0.0092979 -0.0087599 0.0000665 0.0002634 -0.0029158 0.0025946 0.0000071 0.0005028 -0.0000912 0.0003399 0.0000634 0.0002136 0.0003798 0.0003733 0.0000267 0.0002701 -0.0015438 0.0012323 0.0002504 0.0004165 0.0020448 -0.0017779 -0.0022829 0.0021785 0.0000505 0.0001777 -0.0007216 0.0007749 -0.0002828 0.0003944 0.0004865 -0.0001284 -0.0000707 0.0002237 -0.0000823 0.0002882 -0.0033058 0.0014697 -0.0001254 0.0003321 0.0005752 -0.0003465 -0.0001275 0.0003688 0.0000202 0.0003245 -0.0000295 0.0002549 0.0000484 0.0004331 -0.0000424 -0.0000479 0.0074441 -0.0020954 0.0004412 -0.0003559 0.0001701 -0.0001483 -0.0002980 0.0002549 -0.0090741 0.0052928 0.0002145 0.0003957 -0.0000791 0.0002218 -0.0016001 0.0006441 0.0046878 -0.0160212 -0.0005073 -0.0002253 0.0002416 -0.0003064 -0.0000011 -0.0000033 -0.0000141 0.0000526 -0.0000195 0.0002227 -0.0000098 0.0001123 0.0004442 -0.0004629
0.0000243 0.0000255 0.0000145 0.0000863 0.0000384 0.0000337 0.0000056 0.0000748 0.0000334 0.0002370 -0.0000293 0.0001708 -0.0000489 0.0001425 -0.0000213 0.0001491 -0.0000427 0.0002659 0.0000547 -0.0000043 -0.0000137 0.0002085 0.0000515 0.0000489 0.0000505 -0.0000072 -0.0000088 0.0003866 -0.0000718 0.0003546 0.0000305 0.0003933 -0.0001008 0.0004033 0.0000452 0.0001249 -0.0000319 0.0001884 -0.0004869 -0.0000709 0.0000714 0.0001116 -0.0001925 0.0000340 -0.0001002 0.0001799 0.0000216 0.0001961 -0.0001416 -0.0001234 -0.0000001 -0.0000276 -0.0000187 -0.0000924 0.0000191 -0.0000838 -0.0000913 -0.0002506 -0.0000162 0.0000569 -0.0000502 -0.0000548 0.0000178 0.0001513 -0.0000177 0.0000721 -0.0000837 0.0001261 0.0000944 -0.0001794 -0.0001036 0.0003610 -0.0000258 0.0004352 0.0057743 -0.0040478 -0.0000044 0.0001829 0.0000589 0.0001186 -0.0004669 0.0014723 0.0001423 -0.0000044 0.0000924 0.0003358 0.0003530 0.0003714 -0.0001842 0.0003720 0.0000831 0.0001053 0.0014351 0.0002560 -0.0011210 0.0012080 0.0004786 0.0001309 -0.0107221 0.0091221 -0.0000175 0.0000559 -0.0025936 -0.0082259 -0.0000823 0.0002517 -0.0002265 -0.0002280 0.0000039 0.0003571 -0.0001744 -0.0003682 -0.0002007 -0.0002547 -0.0001330 -0.0000937 -0.0001358 -0.0003457 0.0000113 0.0001145 -0.0001921 0.0003945 0.0003507 -0.0000752 -0.0005321 0.0007288 0.0014438 -0.0012072 0.0111666 -0.0190981 -0.0016951 -0.0028897 0.0104625 -0.0093088 -0.0000924 0.0002559 0.0025228 -0.0005750 -0.0018303 0.0021437 -0.0001040 0.0001893 0.0001046 0.0001158 0.0001832 0.0003177 0.0000037 0.0001160 -0.0010480 0.0002743 -0.0003048 0.0010275 0.0022912 -0.0029984 -0.0019585 0.0023372 -0.0000035 0.0002096 -0.0019340 0.0015045 -0.0002148 0.0001502 0.0000016 0.0000066 -0.0000450 0.0001445 -0.0000958 0.0001589 -0.0074105 0.0054826 0.0002780 0.0001442 0.0005407 -0.0008535 -0.0000185 -0.0005162 -0.0002867 0.0004647 0.0000203 0.0002221 -0.0000712 0.0004828 -0.0002441 0.0001621 0.0091211 -0.0099342 0.0001780 -0.0002431 0.0001650 -0.0001665 -0.0000252 0.0000632 -0.0045497 0.0099232 0.0011017 -0.0009148 -0.0000518 0.0001180 -0.0036507 0.0031501 0.0003454 -0.0168385 -0.0005934 -0.0004423 0.0000221 -0.0001264 0.0000199 -0.0000151 -0.0000565 0.0000419 -0.0000325 0.0001469 -0.0000195 0.0000849 0.0003965 -0.0000328
0.0000206 0.0000059 0.0000221 0.0000912 0.0000419 0.0000354 -0.0000008 0.0000991 0.0000247 0.0001913 -0.0000935 0.0002021 -0.0000441 0.0001369 -0.0000316 0.0001304 -0.0000604 0.0003007 0.0000582 0.0000266 0.0000117 0.0002311 0.0000716 0.0000343 0.0000213 0.0000890 -0.0000190 0.0003531 -0.0000527 0.0003683 0.0000064 0.0003432 -0.0000938 0.0004191 0.0000516 0.0001413 -0.0000411 0.0002247 0.0000559 -0.0005285 0.0000841 0.0001271 -0.0000700 -0.0000398 0.0000106 0.0001509 0.0000150 0.0002103 -0.0000507 -0.0001929 -0.0000103 0.0000582 -0.0000273 -0.0000768 0.0000349 -0.0000414 -0.0000995 -0.0002164 -0.0000209 0.0000976 -0.0000489 -0.0000623 0.0000263 0.0000321 -0.0000833 0.0001605 -0.0001469 0.0001447 -0.0001642 0.0000683 0.0000539 0.0003183 -0.0006514 0.0008701 0.0020663 -0.0003845 0.0000212 0.0002549 0.0000321 0.0001811 0.0001079 0.0009246 0.0001397 -0.0000770 0.0000829 0.0003543 -0.0000615 0.0007694 -0.0002576 0.0004676 0.0000302 0.0001522 -0.0021198 0.0028175 -0.0003927 -0.0001248 0.0007374 -0.0002898 -0.0071598 0.0045276 -0.0004751 0.0003045 -0.0097648 -0.0007773 -0.0000305 0.0002503 -0.0003499 -0.0000297 0.0000009 0.0004213 -0.0004884 0.0000618 -0.0002287 -0.0002552 -0.0003465 0.0003477 -0.0001161 -0.0003539 0.0001086 0.0000275 -0.0001214 0.0002858 0.0000912 0.0000034 -0.0002129 0.0005515 0.0000580 -0.0008559 0.0039694 0.0022436 -0.0120723 0.0096586 0.0083601 -0.0055358 -0.0002198 0.0004651 0.0019844 0.0004865 -0.0011408 0.0022827 -0.0000475 0.0002125 0.0000450 0.0001559 -0.0000330 0.0003499 -0.0001371 0.0001618 -0.0003892 -0.0003147 -0.0001575 0.0010677 0.0014048 -0.0025506 -0.0006954 0.0015254 -0.0000415 0.0002692 -0.0007447 0.0009156 0.0000963 0.0000214 -0.0005368 0.0004182 -0.0000565 0.0001645 0.0000771 0.0000187 -0.0074408 0.0070654 0.0001419 0.0002302 0.0000632 -0.0006519 0.0009016 -0.0009002 -0.0002334 0.0005049 0.0000187 0.0002413 -0.0002600 0.0007588 -0.0002215 0.0003146 0.0134122 -0.0180836 -0.0000730 0.0001782 -0.0001830 0.0001232 0.0000447 0.0001231 -0.0061262 0.0098081 0.0002000 -0.0002254 0.0000209 0.0000404 -0.0053173 0.0041309 0.0022659 -0.0173797 0.0015460 -0.0022836 0.0002902 0.0001420 0.0000134 0.0000459 -0.0000202 0.0000037 -0.0000146 0.0001472 0.0000290 0.0000444 0.0008386 -0.0004346
-0.0000018 0.0000403 0.0000244 0.0001113 0.0000503 0.0000598 -0.0000011 0.0001162 0.0000234 0.0001944 -0.0000495 0.0002031 -0.0000386 0.0001569 -0.0000366 0.0001560 -0.0000587 0.0003544 0.0000620 0.0000455 -0.0000139 0.0002916 0.0000808 0.0000483 0.0000580 0.0000372 -0.0000216 0.0003054 -0.0000386 0.0003869 -0.0000059 0.0003508 -0.0000832 0.0004143 0.0000571 0.0001373 -0.0000375 0.0002277 0.0006030 -0.0006970 0.0000848 0.0001059 -0.0001028 -0.0001697 0.0000472 0.0000933 0.0000126 0.0002062 -0.0001065 -0.0002426 -0.0000367 0.0000890 -0.0000166 -0.0001102 0.0000263 -0.0000455 -0.0000736 -0.0002226 0.0000052 0.0000261 -0.0000463 -0.0000961 -0.0000090 -0.0000264 0.0000197 -0.0000055 -0.0001207 0.0000703 -0.0000729 0.0001194 -0.0000063 0.0003661 -0.0007718 0.0005349 -0.0038040 0.0022210 0.0000342 0.0000948 0.0000786 0.0000029 0.0028425 -0.0031227 0.0002185 -0.0002399 0.0000740 0.0002488 -0.0004855 0.0007533 -0.0002283 0.0003594 -0.0000112 0.0000369 -0.0012090 0.0000724 0.0002942 -0.0005802 0.0003605 -0.0001200 0.0006957 -0.0010258 -0.0005773 0.0004177 -0.0079906 -0.0020489 0.0000331 0.0000807 -0.0002282 -0.0002729 -0.0000128 0.0004703 -0.0002266 -0.0001958 -0.0002240 -0.0002971 -0.0000659 0.0001531 -0.0001108 -0.0003919 0.0000101 0.0000478 0.0000245 0.0002472 0.0005425 -0.0003809 -0.0007647 0.0009320 0.0003334 -0.0014813 0.0007713 0.0055199 -0.0110353 0.0098021 0.0075115 -0.0061050 0.0000995 0.0000995 0.0012662 -0.0004412 -0.0010526 0.0017552 -0.0000498 0.0001900 -0.0001029 0.0002013 0.0000269 0.0001531 -0.0000817 0.0000576 0.0003721 0.0002425 -0.0006282 0.0011220 0.0000086 -0.0000605 -0.0005060 0.0009271 0.0000597 0.0001824 -0.0001832 0.0006431 0.0002788 -0.0001544 -0.0001540 0.0001694 -0.0000244 0.0001223 0.0003284 -0.0002587 -0.0036388 0.0037622 -0.0002870 0.0003738 -0.0004854 0.0003879 0.0024726 -0.0017492 -0.0002098 0.0001248 0.0000021 0.0001806 -0.0001229 0.0005856 0.0001205 -0.0001181 0.0063904 -0.0085717 0.0001954 -0.0000501 -0.0001878 0.0001283 0.0001031 0.0002655 -0.0120608 0.0124251 -0.0003792 0.0007353 0.0000141 0.0000430 -0.0014688 0.0007681 0.0022596 -0.0074036 0.0009660 -0.0018312 0.0004855 -0.0000018 -0.0000268 0.0000964 0.0000049 0.0000086 -0.0001002 0.0002241 0.0000754 -0.0000003 0.0006559 -0.0004397
0.0000058 0.0000613 0.0000259 0.0001305 0.0000751 0.0000685 -0.0000079 0.0001363 0.0000230 0.0001873 -0.0000222 0.0002264 -0.0000366 0.0001873 -0.0000451 0.0001779 -0.0000380 0.0003693 0.0000712 0.0000712 -0.0000305 0.0002923 0.0000855 0.0000675 0.0000794 0.0000278 -0.0000223 0.0003275 -0.0000212 0.0004062 -0.0000033 0.0004059 -0.0000814 0.0004826 0.0000508 0.0001659 -0.0000434 0.0002878 0.0015094 -0.0008365 0.0000767 0.0001543 -0.0000534 -0.0002583 0.0000011 0.0001543 0.0000066 0.0002471 -0.0001759 -0.0001883 -0.0000019 0.0001143 -0.0000173 -0.0000488 -0.0000334 0.0000588 -0.0000583 -0.0001753 0.0000309 0.0000687 -0.0000436 -0.0000658 0.0000560 0.0000360 0.0000442 0.0000063 0.0000360 0.0000687 -0.0003693 0.0006292 -0.0001076 0.0005086 -0.0007519 0.0005134 -0.0179823 0.0076491 0.0000042 0.0001067 0.0001137 -0.0000663 0.0016673 -0.0016050 0.0001301 -0.0001112 0.0000724 0.0002392 0.0000194 0.0005029 -0.0000925 0.0002564 -0.0000575 0.0001288 -0.0034991 0.0045710 -0.0004248 0.0002227 -0.0009977 0.0012359 -0.0006442 0.0012814 0.0001147 -0.0000918 -0.0111721 0.0006172 0.0000154 0.0001627 -0.0002555 -0.0003617 -0.0000101 0.0005915 -0.0001402 -0.0004529 -0.0002053 -0.0002847 0.0000277 0.0000159 -0.0001111 -0.0003262 0.0000494 0.0000330 -0.0001561 0.0004932 0.0003473 0.0000035 -0.0005728 0.0005003 -0.0010436 0.0006759 0.0123099 -0.0100845 -0.0226501 0.0163692 0.0080227 -0.0065168 0.0001674 -0.0000597 0.0000595 0.0012216 -0.0011035 0.0013689 -0.0000598 0.0001674 0.0000185 0.0000997 0.0000719 0.0001986 -0.0000523 0.0000164 -0.0000094 0.0005497 -0.0021801 0.0018426 0.0000704 0.0014859 -0.0004577 0.0005073 0.0000636 0.0002055 -0.0012064 0.0015436 0.0002421 -0.0000916 -0.0009438 0.0006423 -0.0000077 0.0000608 0.0002959 -0.0001476 0.0008527 -0.0004586 0.0000020 0.0000331 -0.0001823 0.0003773 -0.0007334 -0.0000083 -0.0004771 0.0001889 0.0000211 0.0001205 -0.0000889 0.0004708 0.0000250 -0.0003079 0.0076200 -0.0051041 0.0006079 -0.0003433 0.0000014 -0.0000754 -0.0002315 0.0003675 -0.0073307 0.0115841 -0.0001617 0.0003999 -0.0000168 0.0000203 -0.0001247 -0.0003321 -0.0015915 0.0059947 -0.0000365 -0.0006986 0.0005021 -0.0006166 -0.0000435 -0.0000090 0.0000214 -0.0000505 -0.0000820 -0.0000113 0.0000102 -0.0000801 0.0003393 -0.0002218
0.0000292 -0.0000136 0.0000392 0.0000570 0.0000863 -0.0000145 -0.0000020 0.0000772 0.0000193 0.0000703 -0.0000705 0.0001742 -0.0000092 0.0000498 -0.0000372 0.0000623 0.0000065 0.0002477 0.0001010 -0.0000002 0.0000166 0.0000841 0.0001023 -0.0000182 0.0001155 0.0000774 -0.0000222 0.0001410 -0.0000236 0.0002178 -0.0000052 0.0002448 -0.0000859 0.0003246 0.0000496 0.0000670 -0.0000646 0.0001571 0.0011933 -0.0007357 0.0000871 0.0001017 0.0000498 -0.0003259 0.0000276 0.0000470 0.0000079 0.0002011 -0.0002081 -0.0001451 0.0000466 0.0000205 -0.0000235 -0.0000589 -0.0000274 0.0000287 -0.0000443 -0.0001681 0.0000417 0.0000471 -0.0000419 -0.0000905 0.0001888 -0.0001336 0.0001085 -0.0000553 0.0000494 -0.0000467 -0.0004261 0.0006677 -0.0001420 0.0005497 -0.0013766 0.0011065 0.0027540 -0.0077509 0.0000746 0.0000570 0.0001857 -0.0001062 -0.0000411 0.0001790 0.0003022 -0.0003290 0.0000705 0.0002391 0.0007553 -0.0003599 -0.0001365 0.0001609 0.0000761 -0.0000753 -0.0015302 0.0024420 0.0002166 -0.0001418 -0.0016205 0.0016237 0.0004138 0.0015671 0.0003482 -0.0001922 -0.0196631 0.0123850 -0.0000384 0.0002701 -0.0004019 -0.0003149 0.0000172 0.0006370 -0.0003133 -0.0003383 -0.0002102 -0.0002792 -0.0001039 0.0001155 -0.0001083 -0.0002981 0.0001483 -0.0000420 -0.0000335 0.0003225 -0.0002601 0.0003380 0.0004676 -0.0001693 -0.0028200 0.0031611 0.0101487 -0.0065887 -0.0217202 0.0185734 0.0051182 -0.0063482 -0.0001090 0.0003449 -0.0010313 0.0011069 -0.0011581 0.0012090 -0.0000341 0.0002290 0.0000719 0.0000453 0.0002490 0.0000386 -0.0002397 0.0002473 -0.0018015 0.0004361 -0.0014212 0.0012137 -0.0014846 0.0010541 0.0000961 0.0003031 -0.0000072 0.0002897 -0.0004259 0.0002449 0.0001780 -0.0000350 -0.0012726 0.0008665 -0.0000467 0.0000442 0.0000742 0.0001376 0.0017242 -0.0000203 -0.0000258 0.0002868 -0.0003150 0.0005578 0.0003810 -0.0011337 0.0005052 -0.0004504 0.0000391 0.0001075 -0.0001456 0.0006403 -0.0001401 0.0000482 0.0037299 0.0010282 0.0002143 0.0000601 -0.0000030 -0.0000621 -0.0004585 0.0006232 -0.0068674 0.0026118 0.0001998 -0.0001289 -0.0000249 -0.0000001 0.0004395 -0.0000438 -0.0065515 0.0070773 0.0014860 -0.0023109 0.0005840 -0.0010194 -0.0000594 0.0000458 0.0000308 -0.0000799 0.0001081 -0.0000670 -0.0000005 -0.0000285 0.0008270 -0.0008475
0.0000039 0.0000380 0.0000486 0.0000598 0.0000708 0.0000212 -0.0000005 0.0000697 0.0000125 0.0000908 -0.0000726 0.0002342 0.0000053 0.0000604 -0.0000379 0.0000767 0.0000112 0.0002172 0.0001152 -0.0000171 0.0000370 0.0000573 0.0000904 0.0000086 0.0001188 0.0000499 -0.0000258 0.0001299 -0.0000524 0.0002329 -0.0000124 0.0002409 -0.0000892 0.0002889 0.0000522 0.0000534 -0.0000681 0.0001210 -0.0005959 0.0010307 0.0000905 0.0000663 -0.0000003 -0.0003536 0.0000990 -0.0000529 0.0000055 0.0001587 -0.0000952 -0.0002983 0.0000109 -0.0000105 -0.0000185 -0.0001438 0.0000267 -0.0000481 -0.0000226 -0.0001687 0.0000499 -0.0000177 -0.0000369 -0.0001103 0.0001272 -0.0002266 0.0001211 -0.0001208 -0.0000577 -0.0000620 0.0001165 -0.0000401 0.0000836 0.0003746 -0.0003681 0.0003520 0.0011549 -0.0041771 0.0001657 -0.0000830 0.0002118 -0.0001761 0.0003548 -0.0003844 0.0005737 -0.0006702 0.0000518 0.0001912 0.0009164 -0.0011871 -0.0005700 0.0003130 0.0001298 -0.0003135 0.0027683 -0.0025124 0.0018088 -0.0015371 -0.0012360 0.0010376 0.0023514 0.0001493 0.0001344 -0.0001708 -0.0425429 0.0402286 -0.0002261 0.0003190 -0.0004499 -0.0005674 0.0000499 0.0006021 -0.0002328 -0.0004633 -0.0002097 -0.0003373 0.0000223 -0.0001471 -0.0000895 -0.0004289 0.0000433 -0.0000603 0.0002756 0.0001895 0.0000536 -0.0002798 0.0001845 0.0001506 0.0002159 -0.0000528 -0.0106888 0.0129648 -0.0056086 0.0123791 0.0017669 -0.0042406 0.0000712 0.0000768 -0.0010199 0.0012896 -0.0045860 0.0034428 0.0000109 0.0000839 0.0000929 -0.0000436 0.0001640 -0.0002341 -0.0001196 0.0000393 -0.0024660 0.0007574 0.0002384 0.0000316 -0.0024860 0.0007214 -0.0002605 0.0008321 -0.0000621 0.0002573 0.0007213 -0.0011119 -0.0001936 0.0001605 -0.0003085 -0.0000217 -0.0000258 -0.0001126 -0.0001445 0.0000077 0.0043857 -0.0030400 -0.0001981 0.0002492 0.0000844 0.0001446 0.0028934 -0.0028218 0.0010237 -0.0010584 0.0000591 -0.0000679 -0.0000597 0.0005532 -0.0003650 0.0002280 -0.0114370 0.0103277 -0.0000107 -0.0002174 -0.0000698 -0.0000566 -0.0001083 0.0000484 -0.0066940 0.0050563 0.0006050 -0.0005124 0.0000297 -0.0001770 0.0009454 0.0002961 -0.0041530 0.0038097 0.0001151 -0.0003141 0.0006998 -0.0009648 -0.0000019 -0.0000680 -0.0000584 -0.0001088 0.0001666 -0.0001191 -0.0000365 -0.0000344 0.0002925 -0.0001166
-0.0000070 0.0000299 0.0000642 0.0000128 0.0000886 -0.0000088 -0.0000052 0.0000143 0.0000112 0.0000354 -0.0000607 0.0001752 0.0000169 0.0000157 -0.0000449 0.0000278 0.0000032 0.0001571 0.0001309 -0.0000411 0.0000452 0.0000107 0.0000921 -0.0000249 0.0001096 0.0000519 -0.0000284 0.0000820 -0.0000444 0.0001597 -0.0000215 0.0002010 -0.0000708 0.0002143 0.0000581 0.0000221 -0.0000726 0.0001021 -0.0002592 0.0008341 0.0000923 0.0000304 -0.0000665 -0.0002875 0.0000393 -0.0000176 0.0000008 0.0001467 -0.0000431 -0.0003664 0.0000041 -0.0000074 -0.0000272 -0.0001655 0.0000270 -0.0000365 -0.0000206 -0.0001419 0.0000426 0.0000100 -0.0000278 -0.0001049 0.0001474 -0.0001876 0.0001541 -0.0001311 0.0000057 -0.0000600 0.0002179 -0.0001836 0.0002662 0.0002135 0.0004639 -0.0001863 0.0032223 -0.0052453 0.0001750 -0.0000987 0.0000320 -0.0000220 0.0000944 0.0004754 0.0004563 -0.0007060 0.0000452 0.0001513 -0.0001692 -0.0006307 -0.0005793 0.0003293 0.0000462 -0.0003062 -0.0024920 0.0022716 0.0009290 -0.0012558 -0.0009734 0.0009838 -0.0006706 0.0038320 -0.0002048 -0.0000175 -0.0342960 0.0321191 -0.0002388 0.0002357 -0.0003659 -0.0006174 0.0000616 0.0006456 -0.0002363 -0.0005691 -0.0001879 -0.0003169 0.0001326 -0.0002532 -0.0000795 -0.0004161 0.0001543 -0.0001323 0.0001765 0.0002707 0.0001273 -0.0003026 0.0000219 0.0002172 -0.0001655 0.0000657 -0.0050735 0.0143544 0.0054721 0.0009548 -0.0005268 -0.0026882 0.0002041 -0.0000866 -0.0010145 0.0022521 -0.0019553 0.0014356 0.0000172 0.0000178 0.0000683 -0.0000100 0.0002440 -0.0002527 -0.0000223 -0.0000785 -0.0014707 0.0013154 0.0000559 -0.0003996 0.0005296 0.0003370 0.0005623 -0.0010766 -0.0000887 0.0001857 -0.0005396 0.0006652 -0.0000982 0.0000751 0.0004643 -0.0004862 -0.0000421 -0.0001752 0.0000382 -0.0003430 0.0059818 -0.0059867 -0.0001255 -0.0000586 0.0009486 -0.0010234 0.0009440 -0.0017776 0.0006852 -0.0008159 -0.0000166 -0.0000604 -0.0002574 0.0002882 -0.0004673 -0.0000996 0.0047532 -0.0033636 0.0002115 -0.0007379 -0.0000355 -0.0002586 0.0002827 -0.0006144 -0.0000937 -0.0035948 0.0001357 -0.0001952 0.0000858 -0.0003637 0.0005377 -0.0001703 -0.0005109 0.0068756 -0.0010219 0.0005894 0.0002192 -0.0007206 -0.0000019 -0.0002383 -0.0000318 -0.0002838 0.0001492 -0.0002884 -0.0000247 -0.0002579 0.0009016 -0.0007510
0.0000525 -0.0001232 0.0000760 -0.0001083 0.0001157 -0.0001429 0.0000122 -0.0001378 0.0000149 -0.0001201 0.0000017 -0.0000891 0.0000548 -0.0001946 -0.0000339 -0.0001551 0.0000288 0.0000207 0.0001540 -0.0001299 0.0001106 -0.0002206 0.0001130 -0.0001506 0.0002464 -0.0000191 -0.0000228 -0.0001757 -0.0000252 -0.0000908 -0.0000334 -0.0000294 -0.0000606 -0.0000652 0.0000757 -0.0001395 -0.0000699 -0.0000996 0.0007069 -0.0007434 0.0000860 -0.0000656 -0.0001339 -0.0002650 -0.0000275 -0.0000957 -0.0000075 0.0000771 -0.0000435 -0.0004258 -0.0000127 -0.0000499 -0.0000312 -0.0002360 -0.0000081 -0.0000615 -0.0000169 -0.0001558 0.0000561 -0.0000229 -0.0000173 -0.0001503 0.0001805 -0.0002791 0.0002091 -0.0002447 0.0001220 -0.0002569 0.0003617 -0.0004597 -0.0000564 0.0003873 -0.0000755 0.0002051 0.0059416 -0.0062439 0.0001602 -0.0001162 0.0000048 -0.0000415 -0.0006470 0.0002378 0.0001612 -0.0005969 0.0000509 0.0000207 0.0003803 -0.0009074 -0.0000971 -0.0003721 0.0000959 -0.0006026 -0.0004757 0.0001009 0.0001182 -0.0010319 0.0003183 0.0000821 -0.0011235 0.0032588 -0.0002672 0.0000509 -0.0205073 0.0063451 -0.0000239 -0.0000165 -0.0002222 -0.0006189 0.0000683 0.0006783 -0.0002748 -0.0006502 -0.0001718 -0.0002955 0.0000088 -0.0002311 -0.0000684 -0.0004122 0.0001489 -0.0001866 0.0001709 0.0000728 0.0004269 -0.0002247 0.0004198 -0.0005599 0.0029107 -0.0019340 0.0063097 0.0023257 0.0015528 -0.0014271 -0.0014477 -0.0009579 0.0001543 -0.0000305 0.0016974 -0.0014349 -0.0004215 -0.0002061 -0.0000051 0.0000851 0.0000175 -0.0000262 0.0003338 -0.0003853 0.0000352 -0.0002570 -0.0003535 0.0013674 -0.0005170 -0.0001504 0.0003786 -0.0000453 0.0020357 -0.0032152 0.0000482 0.0000019 -0.0000527 0.0002717 -0.0000157 -0.0000556 0.0004411 0.0000193 -0.0000814 -0.0002163 0.0001857 -0.0005046 0.0014917 -0.0019929 0.0000616 -0.0002823 0.0007322 -0.0006170 0.0006783 -0.0007100 0.0003307 -0.0003638 -0.0000735 -0.0000534 -0.0002554 -0.0003862 -0.0002444 -0.0001957 0.0101903 -0.0083209 -0.0000043 -0.0004121 0.0000062 -0.0003111 -0.0002864 -0.0000839 -0.0043206 -0.0030342 0.0000577 -0.0003638 0.0000332 -0.0003524 0.0010713 -0.0008814 -0.0010686 0.0079326 0.0019665 -0.0026837 0.0000120 -0.0004555 0.0000086 -0.0002168 0.0001012 -0.0004203 0.0002069 -0.0004103 -0.0000004 -0.0003438 0.0008580 -0.0011325
0.0000783 -0.0001324 0.0000855 -0.0001391 0.0001170 -0.0001275 0.0000136 -0.0001624 0.0000087 -0.0000857 0.0000376 -0.0001197 0.0000805 -0.0002161 -0.0000260 -0.0001592 0.0000467 -0.0000126 0.0001620 -0.0001241 0.0001748 -0.0003002 0.0001147 -0.0001511 0.0003283 -0.0001308 -0.0000261 -0.0001512 -0.0000325 -0.0000740 -0.0000358 -0.0000158 -0.0000557 -0.0000765 0.0000902 -0.0001656 -0.0000610 -0.0000850 -0.0009037 0.0006981 0.0000835 -0.0000502 -0.0003116 -0.0001385 0.0000056 -0.0000899 -0.0000147 0.0000857 -0.0001034 -0.0003433 -0.0000176 -0.0000491 -0.0000248 -0.0002673 0.0000392 -0.0001088 0.0000039 -0.0001131 0.0000610 -0.0000142 -0.0000078 -0.0001398 0.0002822 -0.0004841 0.0001680 -0.0002521 0.0001702 -0.0003912 0.0001493 -0.0001873 -0.0001884 0.0004492 -0.0001171 -0.0000124 -0.0007037 -0.0020656 0.0000580 -0.0000810 0.0001405 -0.0001889 0.0001595 -0.0011848 0.0001188 -0.0005636 0.0000200 -0.0000869 0.0003710 -0.0009590 0.0000788 -0.0008097 0.0001271 -0.0008576 0.0020982 -0.0010461 0.0008114 -0.0013002 0.0002762 -0.0000559 -0.0000798 0.0029418 0.0003672 -0.0003846 -0.0113119 0.0074749 0.0000172 -0.0001173 -0.0000177 -0.0008905 0.0000890 0.0006456 -0.0000759 -0.0009112 -0.0001647 -0.0003128 0.0000336 -0.0002550 -0.0000548 -0.0004963 0.0000771 -0.0002871 0.0002864 -0.0000263 0.0003457 -0.0002452 0.0005045 -0.0009209 0.0025522 -0.0017349 0.0114097 -0.0044572 -0.0122934 0.0133142 -0.0015575 0.0008043 0.0001675 -0.0002725 0.0016281 -0.0013086 0.0007788 -0.0013754 -0.0000021 -0.0000564 -0.0000146 -0.0001990 0.0005796 -0.0008848 0.0002199 -0.0006723 0.0012062 -0.0005224 0.0007110 -0.0006708 -0.0020841 -0.0000338 0.0009681 -0.0011782 -0.0000093 -0.0000349 0.0006720 -0.0003045 -0.0002430 -0.0000350 0.0001498 -0.0004100 -0.0000125 -0.0004595 0.0001575 -0.0005627 0.0000393 -0.0005052 0.0003703 -0.0008545 0.0001779 -0.0001778 -0.0010995 0.0013005 0.0003004 -0.0001290 -0.0000666 -0.0001986 0.0000093 -0.0007764 -0.0000005 -0.0004098 0.0055296 -0.0076866 -0.0001450 -0.0001775 0.0000566 -0.0003233 -0.0005837 0.0003987 0.0032053 -0.0000223 0.0004195 -0.0004774 0.0000147 -0.0003570 0.0009968 -0.0004037 0.0051952 -0.0141289 0.0048864 -0.0045180 0.0002697 -0.0005579 0.0000574 -0.0002803 0.0000573 -0.0003967 -0.0001213 -0.0000958 -0.0000083 -0.0003583 -0.0004136 0.0003139
0.0000629 -0.0001142 0.0001009 -0.0001665 0.0001343 -0.0001310 -0.0000023 -0.0001541 -0.0000048 -0.0000869 0.0000145 -0.0000609 0.0000991 -0.0002250 -0.0000224 -0.0001535 0.0000610 -0.0000344 0.0002092 -0.0001463 0.0001955 -0.0003089 0.0001346 -0.0001437 0.0003376 -0.0001374 -0.0000260 -0.0001299 -0.0000402 -0.0000536 -0.0000442 -0.0000398 -0.0000459 -0.0000412 0.0000864 -0.0001634 -0.0000597 -0.0000690 -0.0011339 0.0010532 0.0000728 -0.0000242 -0.0004215 -0.0000590 0.0000838 -0.0000976 -0.0000151 0.0000772 -0.0000606 -0.0003189 -0.0000402 0.0000240 -0.0000498 -0.0002246 0.0001317 -0.0001476 0.0000090 -0.0000298 0.0000544 0.0000493 0.0000007 -0.0000791 0.0003608 -0.0004854 0.0001587 -0.0001940 0.0001962 -0.0003693 -0.0001197 -0.0001018 0.0002075 0.0002092 0.0011535 -0.0010525 -0.0002646 -0.0022432 -0.0000521 -0.0000071 0.0001921 -0.0001821 0.0005038 -0.0003281 0.0002018 -0.0004343 0.0000211 -0.0000546 -0.0000016 -0.0003388 -0.0005096 -0.0002567 -0.0000564 -0.0007112 -0.0029514 0.0004814 0.0005350 -0.0010278 0.0000906 0.0000292 0.0016759 -0.0011478 0.0006686 -0.0004938 -0.0104183 0.0121248 -0.0000112 -0.0001744 -0.0002593 -0.0006407 0.0000951 0.0006977 -0.0000812 -0.0008282 -0.0001652 -0.0002384 0.0001590 -0.0003095 -0.0000529 -0.0004078 0.0002497 -0.0003741 0.0002528 -0.0000959 0.0003433 -0.0002888 0.0001547 -0.0004905 -0.0002519 0.0002565 0.0050890 0.0004880 -0.0068773 0.0056972 -0.0057566 0.0014747 0.0001082 -0.0001472 -0.0000488 0.0005278 0.0013431 -0.0007990 -0.0000142 -0.0000026 -0.0000214 -0.0001892 0.0004131 -0.0005885 0.0001137 -0.0004816 0.0016306 -0.0016568 0.0022944 -0.0021152 -0.0012198 0.0002732 -0.0002948 0.0001994 -0.0001022 0.0000630 -0.0003231 0.0006825 -0.0000729 -0.0002021 0.0003919 -0.0007175 -0.0000029 -0.0005020 0.0001750 -0.0005580 0.0011078 -0.0006466 0.0000040 -0.0003536 -0.0002632 0.0003903 -0.0009029 -0.0003329 0.0000621 0.0000220 -0.0000156 -0.0002010 0.0002790 -0.0007720 0.0003927 -0.0010193 -0.0000917 -0.0088595 0.0005962 -0.0005408 0.0001294 -0.0004395 0.0004382 -0.0003538 0.0099804 -0.0111084 -0.0002470 0.0003328 0.0000641 -0.0003722 0.0002540 -0.0007988 0.0025104 -0.0187970 0.0038695 -0.0032714 0.0006811 -0.0012985 0.0000591 -0.0003980 -0.0000289 -0.0003014 -0.0001726 -0.0001117 0.0000608 -0.0005002 -0.0001729 0.0000053
0.0000917 -0.0001642 0.0001207 -0.0002284 0.0001421 -0.0001777 -0.0000016 -0.0001803 0.0000025 -0.0001088 0.0000253 -0.0001219 0.0001203 -0.0003258 0.0000004 -0.0002204 0.0001077 -0.0001023 0.0002466 -0.0002375 0.0001957 -0.0003889 0.0001559 -0.0001920 0.0004253 -0.0002528 -0.0000210 -0.0002822 -0.0000233 -0.0001665 -0.0000463 -0.0001900 -0.0000483 -0.0001934 0.0000912 -0.0002600 -0.0000612 -0.0002074 0.0001931 -0.0003125 0.0000817 -0.0001343 -0.0003963 -0.0001363 0.0001605 -0.0002981 -0.0000166 0.0000164 0.0000289 -0.0005440 -0.0000287 -0.0000457 -0.0000678 -0.0002770 0.0000715 -0.0001157 0.0000160 -0.0000202 0.0000603 -0.0000139 0.0000060 -0.0000683 0.0003914 -0.0005197 0.0002314 -0.0003193 0.0002343 -0.0005705 0.0003532 -0.0010192 0.0002729 0.0002034 0.0015913 -0.0013293 -0.0028711 0.0005692 0.0001386 -0.0002027 0.0001505 -0.0001914 -0.0000272 -0.0002636 0.0002534 -0.0005410 0.0000434 -0.0000630 -0.0004266 0.0005076 -0.0004417 -0.0004001 -0.0000240 -0.0008470 -0.0088310 0.0039149 0.0010780 -0.0015535 0.0002027 -0.0001684 0.0068248 -0.0080920 0.0004142 -0.0002993 -0.0042848 -0.0024071 -0.0000062 -0.0002237 -0.0002629 -0.0005744 0.0000993 0.0007470 0.0000801 -0.0008867 -0.0001464 -0.0001849 0.0001839 -0.0003287 -0.0000389 -0.0003654 0.0001749 -0.0003690 0.0002682 -0.0002428 0.0001554 -0.0001278 -0.0001632 -0.0002143 0.0013011 -0.0011156 -0.0110018 0.0040202 0.0040783 -0.0127333 -0.0021141 0.0015247 0.0002928 -0.0002917 -0.0004460 0.0007622 -0.0007228 0.0014011 -0.0000174 0.0000637 0.0000723 -0.0002764 -0.0000930 0.0000194 0.0001500 -0.0003792 0.0013429 -0.0024590 0.0018394 -0.0017366 -0.0031762 0.0047406 -0.0004004 -0.0003119 0.0000465 -0.0001112 -0.0010736 0.0010933 0.0001736 -0.0002832 0.0004969 -0.0004537 -0.0000139 -0.0004351 0.0001093 -0.0005209 -0.0025896 0.0011379 -0.0003898 0.0002569 0.0004868 -0.0002343 -0.0001378 -0.0006926 0.0002424 -0.0004525 -0.0000557 -0.0001246 0.0000994 -0.0003057 0.0000290 -0.0006740 -0.0041761 -0.0020390 0.0005219 -0.0004051 0.0000380 -0.0003913 0.0006922 -0.0007716 -0.0007935 -0.0061287 -0.0004899 0.0007166 0.0000633 -0.0003156 0.0007586 -0.0007987 -0.0010568 -0.0001814 0.0016307 -0.0009471 0.0006342 -0.0011906 0.0000246 -0.0003173 0.0000642 -0.0003337 0.0000734 -0.0003226 0.0000755 -0.0004395 0.0001057 -0.0003622
0.0001019 -0.0001483 0.0001124 -0.0002087 0.0001267 -0.0001188 -0.0000187 -0.0001213 0.0000186 0.0000239 0.0000317 -0.0000663 0.0001446 -0.0002977 0.0000079 -0.0001508 0.0001209 -0.0000828 0.0002365 -0.0002131 0.0001853 -0.0002933 0.0001599 -0.0001675 0.0004142 -0.0003043 -0.0000075 -0.0001508 -0.0000197 -0.0000538 -0.0000319 -0.0000103 -0.0000570 -0.0000417 0.0000963 -0.0002071 -0.0000591 -0.0000722 -0.0000155 -0.0002806 0.0000838 -0.0000785 -0.0003097 -0.0002033 0.0001178 -0.0002315 -0.0000232 0.0001259 -0.0000691 -0.0004021 -0.0000473 0.0000137 -0.0000635 -0.0002398 0.0000035 -0.0000000 0.0000233 0.0000787 0.0000469 0.0000732 -0.0000013 0.0000368 0.0003814 -0.0004840 0.0002524 -0.0003169 0.0002300 -0.0004202 0.0003532 -0.0003921 -0.0000200 0.0004849 0.0005492 -0.0001383 -0.0006547 -0.0006522 0.0002633 -0.0002485 0.0001477 -0.0001591 0.0002195 -0.0004045 0.0002518 -0.0007109 0.0000582 -0.0000211 -0.0011460 0.0011999 -0.0001283 -0.0005247 0.0000456 -0.0008831 -0.0085835 0.0069514 0.0014412 -0.0016817 -0.0003737 0.0001443 0.0073267 -0.0070637 -0.0003272 0.0004877 -0.0021661 -0.0088285 -0.0001385 -0.0000738 0.0000295 -0.0009121 0.0001072 0.0008320 0.0001713 -0.0008546 -0.0001293 -0.0001418 0.0000084 -0.0000703 -0.0000190 -0.0003527 0.0002311 -0.0004056 0.0002573 -0.0001821 -0.0001821 0.0001980 0.0000348 -0.0001972 0.0006866 -0.0002337 -0.0106099 0.0099894 0.0025485 -0.0092955 0.0051675 -0.0054880 0.0004910 -0.0005448 -0.0039093 0.0034307 -0.0005641 0.0008784 -0.0000281 -0.0000615 0.0000626 -0.0003252 -0.0000231 -0.0001809 0.0002513 -0.0004821 0.0002261 -0.0019925 0.0002404 0.0001500 -0.0027855 0.0040476 0.0007007 -0.0018021 0.0000219 -0.0001582 -0.0015301 0.0013223 0.0002608 -0.0003226 0.0002616 -0.0004627 0.0000265 -0.0005073 0.0000883 -0.0004819 -0.0026055 0.0012648 -0.0004006 0.0000645 0.0008874 -0.0010950 0.0008413 -0.0009759 0.0004225 -0.0007444 -0.0000160 -0.0001238 -0.0002920 0.0002350 -0.0001182 -0.0006332 -0.0034845 0.0019208 0.0001103 -0.0003680 -0.0000328 -0.0002978 0.0001516 -0.0004144 -0.0019618 0.0011846 0.0004209 -0.0002605 0.0000738 -0.0002963 0.0024183 -0.0019479 0.0015663 0.0006314 -0.0005168 0.0007861 -0.0001219 -0.0003025 -0.0000207 -0.0002535 0.0001024 -0.0003029 -0.0000939 -0.0000001 0.0000441 -0.0003831 -0.0004545 0.0001075
0.0000936 -0.0001843 0.0001031 -0.0002132 0.0001339 -0.0001020 -0.0000315 -0.0000841 0.0000211 0.0000551 0.0000228 -0.0000905 0.0001597 -0.0003027 0.0000234 -0.0001573 0.0001098 -0.0000668 0.0002584 -0.0002319 0.0002009 -0.0002587 0.0001656 -0.0001802 0.0004503 -0.0003441 -0.0000016 -0.0001505 -0.0000166 -0.0000476 -0.0000300 0.0000193 -0.0000800 0.0000027 0.0000929 -0.0001765 -0.0000535 -0.0000451 -0.0019164 0.0017683 0.0000663 -0.0000665 -0.0002566 -0.0002192 0.0001175 -0.0001343 -0.0000267 0.0001556 -0.0001011 -0.0002134 -0.0000865 0.0000965 -0.0000530 -0.0002293 0.0000322 0.0000401 0.0000125 0.0001212 0.0000547 0.0000987 0.0000104 0.0001218 0.0004420 -0.0004932 0.0003103 -0.0003709 0.0002968 -0.0004058 0.0002109 -0.0000661 -0.0001382 0.0005780 -0.0002428 0.0006942 -0.0020322 0.0011890 0.0002231 -0.0001836 0.0001939 -0.0002764 0.0021390 -0.0018744 0.0000631 -0.0006083 0.0000786 0.0000516 -0.0000816 0.0003861 -0.0002462 -0.0004032 -0.0000332 -0.0007388 -0.0004764 0.0002631 0.0003999 -0.0006373 0.0000342 -0.0003349 -0.0081210 0.0061374 -0.0006854 0.0007367 -0.0213652 0.0144477 -0.0001217 -0.0001341 -0.0002850 -0.0005305 0.0001261 0.0008903 0.0000135 -0.0004835 -0.0001143 -0.0001296 -0.0001015 0.0001047 0.0000078 -0.0002585 0.0002934 -0.0002851 0.0003093 -0.0002883 -0.0002507 0.0004790 0.0002158 -0.0004979 -0.0004451 0.0008679 -0.0055436 0.0085529 0.0020021 0.0017201 0.0000222 -0.0037692 0.0004529 -0.0005498 -0.0022733 0.0004909 0.0006542 -0.0000706 -0.0000460 -0.0000338 0.0000940 -0.0003183 0.0000447 -0.0003574 0.0001995 -0.0004041 -0.0021313 0.0005475 -0.0010688 0.0007507 0.0001212 -0.0016119 0.0011400 -0.0013469 0.0000441 -0.0001780 -0.0000672 0.0002984 0.0004679 -0.0005093 -0.0000973 -0.0001088 0.0000763 -0.0004464 -0.0000015 -0.0002973 -0.0017770 0.0026989 -0.0003992 -0.0000052 -0.0000128 -0.0005813 0.0009570 -0.0027340 -0.0002879 -0.0002109 0.0001357 -0.0001159 0.0003733 -0.0003135 0.0001867 -0.0005667 -0.0033785 -0.0011458 0.0001283 -0.0005548 0.0000357 -0.0002748 -0.0002453 0.0001423 0.0061018 -0.0083028 0.0012908 -0.0008937 0.0000982 -0.0002414 0.0008536 -0.0014966 -0.0012044 0.0046959 -0.0034912 0.0021329 -0.0001191 0.0001015 0.0000546 -0.0002641 0.0000337 -0.0001273 -0.0000569 0.0000460 0.0001079 -0.0003306 0.0000700 -0.0003472
0.0000685 -0.0001781 0.0001093 -0.0002040 0.0001491 -0.0000216 -0.0000313 -0.0000495 0.0000257 0.0001022 0.0000173 -0.0001485 0.0001647 -0.0002474 0.0000370 -0.0001037 0.0001008 -0.0000338 0.0002696 -0.0002298 0.0002020 -0.0001977 0.0001823 -0.0001681 0.0004733 -0.0004081 -0.0000039 -0.0000958 -0.0000173 0.0000637 -0.0000389 0.0000860 -0.0001052 0.0000671 0.0000901 -0.0000856 -0.0000499 0.0000295 -0.0016384 0.0021137 0.0000641 -0.0000708 -0.0002416 -0.0001765 0.0001701 -0.0000653 -0.0000301 0.0001808 -0.0002339 -0.0000865 -0.0000916 0.0001374 -0.0000484 -0.0002047 0.0000459 0.0001030 -0.0000004 0.0001432 0.0000432 0.0001058 0.0000303 0.0001886 0.0005704 -0.0004861 0.0003359 -0.0003359 0.0002374 -0.0003273 0.0002181 -0.0003434 -0.0001933 0.0006077 0.0001053 0.0003506 0.0059460 -0.0045998 0.0001624 -0.0001217 0.0002027 -0.0003395 0.0028319 -0.0017895 0.0002126 -0.0007121 0.0000835 0.0001030 0.0001097 0.0002074 -0.0003110 -0.0007158 -0.0000509 -0.0007122 -0.0017341 0.0003584 0.0006098 -0.0004474 0.0004718 -0.0007137 -0.0067373 0.0072197 -0.0000746 -0.0000112 -0.0120501 0.0128812 -0.0000251 -0.0002619 -0.0005073 -0.0002583 0.0001400 0.0009222 0.0000903 -0.0004530 -0.0001130 -0.0001576 0.0001309 -0.0002272 0.0000161 -0.0001798 0.0002287 -0.0002003 0.0003255 -0.0002646 -0.0001337 0.0002081 0.0002684 -0.0006292 -0.0002813 -0.0000679 -0.0102485 0.0146643 0.0055434 -0.0045712 -0.0024204 0.0020331 0.0004476 -0.0005452 0.0016310 -0.0027424 0.0010269 -0.0008487 -0.0000070 -0.0000819 0.0000892 -0.0002854 0.0000301 -0.0003607 0.0001369 -0.0002699 -0.0017857 0.0002987 -0.0015666 0.0003396 0.0002178 -0.0017355 0.0013339 -0.0009412 0.0000824 -0.0003305 0.0015099 -0.0009286 0.0002483 -0.0003756 -0.0008366 0.0005416 0.0000513 -0.0003228 -0.0001425 0.0000671 -0.0037135 0.0030409 -0.0001517 0.0000879 -0.0000283 -0.0003199 -0.0008953 -0.0011399 -0.0001269 -0.0003428 0.0000658 0.0000554 0.0006593 -0.0007663 0.0000693 -0.0001100 0.0059597 -0.0139336 0.0002106 -0.0002389 -0.0000397 -0.0000431 -0.0001599 0.0001917 0.0076492 -0.0114290 0.0005668 -0.0001374 0.0000706 -0.0000600 0.0000367 -0.0006950 -0.0017577 0.0034514 -0.0010093 0.0004691 -0.0002308 0.0006453 0.0000947 -0.0001446 0.0000851 -0.0000538 0.0001751 -0.0002159 0.0001370 -0.0002145 0.0001219 0.0001582
0.0000432 -0.0001651 0.0001186 -0.0001799 0.0001667 0.0000297 -0.0000168 -0.0000468 0.0000258 0.0001364 -0.0000168 -0.0001552 0.0001705 -0.0001873 0.0000482 -0.0000399 0.0000911 0.0000058 0.0002627 -0.0001946 0.0002123 -0.0001553 0.0001899 -0.0001237 0.0004336 -0.0003667 -0.0000028 -0.0000358 -0.0000227 0.0002019 -0.0000521 0.0001636 -0.0001408 0.0001890 0.0000828 -0.0000008 -0.0000523 0.0001312 -0.0009148 0.0012817 0.0000572 -0.0000490 -0.0001880 -0.0002423 0.0001261 0.0000376 -0.0000363 0.0002141 -0.0002834 -0.0000447 -0.0000501 0.0001068 -0.0000524 -0.0001534 0.0000469 0.0001217 -0.0000153 0.0002010 0.0000276 0.0001375 0.0000428 0.0002502 0.0005425 -0.0003062 0.0002098 -0.0001035 0.0001762 -0.0002218 0.0003835 -0.0002865 -0.0000369 0.0005882 0.0011356 -0.0003403 0.0027075 -0.0004067 0.0001376 -0.0000516 0.0000689 -0.0000690 0.0014592 -0.0001053 0.0003672 -0.0006761 0.0001075 0.0001912 -0.0007293 0.0011472 -0.0000843 -0.0007949 -0.0000868 -0.0005923 -0.0092490 0.0066179 0.0007835 -0.0007390 0.0003719 -0.0008742 0.0053678 -0.0017765 0.0000257 0.0000172 0.0061238 -0.0083440 0.0001001 -0.0002850 -0.0000913 -0.0007137 0.0001274 0.0009953 0.0002552 -0.0005199 -0.0001390 -0.0001287 0.0001783 -0.0002297 0.0000175 -0.0000763 0.0001881 -0.0001329 0.0002736 -0.0002387 0.0007150 -0.0005685 0.0003403 -0.0004000 0.0020255 -0.0015935 -0.0124062 0.0174674 0.0074347 -0.0087429 0.0006199 0.0047611 0.0004519 -0.0004330 -0.0008215 0.0004559 0.0001676 -0.0004037 0.0000293 -0.0000490 0.0000050 -0.0001742 -0.0001221 -0.0002712 0.0001553 -0.0001609 -0.0029872 0.0023563 -0.0004610 -0.0001241 -0.0015672 0.0016693 -0.0000563 0.0003473 -0.0000089 -0.0002092 0.0016110 -0.0013033 0.0000492 -0.0000548 -0.0005997 0.0006234 -0.0000118 -0.0001501 0.0001226 -0.0000046 0.0008139 -0.0008287 0.0001437 0.0000550 0.0005756 -0.0005783 0.0003254 -0.0003210 0.0001512 -0.0002916 -0.0000186 0.0001958 -0.0004309 0.0004200 0.0001508 -0.0000919 0.0043950 -0.0072166 0.0004043 0.0002377 0.0000080 0.0001593 0.0001066 0.0001430 -0.0030275 0.0020624 0.0003452 0.0000027 0.0000678 0.0000901 0.0035257 -0.0028644 -0.0029324 0.0008549 0.0003436 -0.0003465 -0.0004996 0.0007659 0.0000518 0.0000617 0.0001283 0.0000466 0.0001491 -0.0000248 0.0000961 -0.0000806 -0.0003096 0.0003837
0.0000383 -0.0001354 0.0001263 -0.0001404 0.0001753 0.0000659 -0.0000138 -0.0000067 0.0000272 0.0001524 -0.0000819 -0.0001085 0.0001590 -0.0001418 0.0000564 0.0000001 0.0000842 0.0000316 0.0002724 -0.0002097 0.0002284 -0.0002003 0.0001710 -0.0000931 0.0004348 -0.0004048 -0.0000169 -0.0000868 -0.0000165 0.0002180 -0.0000622 0.0001271 -0.0001751 0.0001925 0.0000839 -0.0000114 -0.0000609 0.0001290 -0.0010004 0.0007626 0.0000596 -0.0001307 -0.0001173 -0.0004303 0.0000058 0.0001558 -0.0000354 0.0001581 -0.0000144 -0.0003375 0.0000327 -0.0000197 -0.0000308 -0.0001965 0.0000464 0.0000907 -0.0000280 0.0001614 0.0000245 0.0000762 0.0000507 0.0002550 0.0004914 -0.0003199 0.0001784 -0.0000992 0.0001664 -0.0003465 0.0003226 -0.0005391 0.0001181 0.0004977 0.0007022 -0.0001250 -0.0068595 0.0075916 0.0001265 -0.0001085 0.0001378 -0.0001691 0.0001109 -0.0007293 0.0002548 -0.0005072 0.0001129 0.0002421 0.0003768 0.0003724 0.0000388 -0.0006996 -0.0000849 -0.0005113 -0.0045418 0.0028716 0.0005463 -0.0006731 0.0007780 -0.0008142 -0.0000781 0.0003171 0.0000107 0.0001664 0.0032392 -0.0089901 0.0001191 -0.0002380 -0.0001484 -0.0005785 0.0001297 0.0009927 0.0000428 -0.0004123 -0.0001433 -0.0001391 -0.0000062 -0.0000362 0.0000233 -0.0000307 0.0000156 0.0000912 0.0003041 -0.0003419 0.0009114 -0.0008384 0.0004197 -0.0007623 0.0023995 -0.0018846 -0.0079847 0.0135013 0.0108118 -0.0010324 -0.0100301 0.0121587 0.0003843 -0.0004017 -0.0017182 0.0000644 -0.0007037 0.0008482 0.0000486 0.0000488 -0.0000331 -0.0001110 -0.0000136 -0.0001481 0.0001647 -0.0000327 -0.0036530 0.0027259 -0.0001005 -0.0001102 0.0007527 -0.0012840 -0.0006743 0.0004255 0.0000040 -0.0001166 0.0005527 -0.0004042 0.0001001 0.0002981 0.0002206 0.0000265 -0.0000048 0.0000162 0.0001554 0.0001375 0.0002726 0.0008983 0.0001792 0.0000973 -0.0003445 0.0000582 0.0008440 -0.0000037 0.0000465 -0.0000949 0.0000528 0.0001993 -0.0004620 0.0007485 0.0000731 0.0002479 -0.0072122 0.0112516 0.0001043 0.0003724 0.0001505 0.0001030 0.0007952 -0.0001703 -0.0027521 -0.0029598 0.0009457 -0.0001830 0.0000307 0.0001834 0.0030841 -0.0024800 -0.0025500 0.0033416 0.0003721 -0.0001215 0.0000302 0.0001599 0.0000721 0.0001488 0.0000665 0.0001355 0.0000119 0.0003353 0.0001080 0.0000221 -0.0001632 0.0001821
0.0000243 -0.0000705 0.0001317 -0.0000846 0.0001850 0.0001095 -0.0000258 0.0000701 0.0000245 0.0002382 -0.0000694 -0.0000465 0.0001438 -0.0000415 0.0000444 0.0001024 0.0000664 0.0000857 0.0002765 -0.0001795 0.0002119 -0.0001248 0.0001615 -0.0000500 0.0004266 -0.0003991 -0.0000203 0.0000536 -0.0000180 0.0003522 -0.0000637 0.0002664 -0.0001767 0.0003440 0.0000872 0.0000581 -0.0000649 0.0002683 0.0002936 -0.0003888 0.0000781 -0.0000932 -0.0001022 -0.0003726 -0.0000387 0.0002911 -0.0000334 0.0002004 0.0000831 -0.0003887 0.0000112 0.0000687 -0.0000273 -0.0001132 0.0000005 0.0001859 -0.0000400 0.0001923 0.0000036 0.0001534 0.0000352 0.0003218 0.0004328 -0.0002794 0.0001631 -0.0000358 0.0000681 -0.0001149 0.0000869 -0.0004000 0.0001040 0.0005487 0.0003557 0.0002366 -0.0060131 0.0050613 0.0000468 0.0000382 0.0001926 -0.0001877 -0.0013447 0.0005058 0.0002134 -0.0003227 0.0001138 0.0003594 0.0011015 0.0000285 -0.0001277 -0.0001838 -0.0000310 -0.0003295 -0.0019257 0.0024112 0.0010097 -0.0009319 0.0005910 -0.0004685 -0.0042232 0.0013545 0.0001122 0.0001224 -0.0059962 0.0088513 0.0001136 -0.0001098 -0.0003704 -0.0003216 0.0001321 0.0010493 0.0001003 -0.0004452 -0.0001442 -0.0001242 0.0000720 -0.0000443 0.0000176 0.0000543 -0.0000149 0.0002361 0.0003236 -0.0001987 0.0003121 -0.0002332 0.0008024 -0.0011142 0.0014329 -0.0013445 -0.0137224 0.0162709 0.0137780 -0.0090345 -0.0107911 0.0066418 0.0002499 -0.0002677 0.0004310 -0.0018941 -0.0008368 0.0009194 0.0000574 0.0000718 -0.0000314 0.0000280 0.0002477 -0.0001649 0.0000481 0.0001394 -0.0017222 0.0008172 -0.0006344 0.0000265 0.0030740 -0.0049011 -0.0015904 0.0004448 0.0000096 -0.0000311 0.0004455 -0.0001819 0.0000994 0.0004486 0.0000556 0.0000516 -0.0000049 0.0001330 -0.0001854 0.0005711 -0.0036065 0.0011495 0.0003120 -0.0001364 0.0000648 -0.0000274 0.0012408 -0.0010621 -0.0003530 -0.0001125 0.0000143 0.0003308 -0.0002343 0.0003070 -0.0001483 0.0002177 -0.0091855 0.0109911 -0.0004042 0.0007305 0.0001629 0.0001644 0.0006502 -0.0002643 0.0090539 -0.0268651 0.0011146 -0.0005259 0.0000514 0.0001855 0.0010520 -0.0012218 -0.0022143 0.0030934 0.0002972 0.0003602 -0.0000834 0.0003226 0.0000679 0.0001014 0.0000567 0.0000988 0.0000994 0.0002677 0.0000975 -0.0000994 -0.0002145 0.0006189
0.0000385 -0.0001332 0.0001456 -0.0001407 0.0001985 0.0000113 -0.0000232 0.0000412 0.0000264 0.0001894 -0.0000412 -0.0001462 0.0001315 -0.0000796 0.0000483 0.0000473 0.0000737 0.0000589 0.0002666 -0.0001785 0.0002186 -0.0001787 0.0001478 -0.0000966 0.0003949 -0.0002818 -0.0000216 -0.0000144 -0.0000067 0.0002792 -0.0000699 0.0002085 -0.0001694 0.0002633 0.0000870 0.0000149 -0.0000690 0.0002410 0.0004594 -0.0003065 0.0000959 -0.0001304 -0.0002712 -0.0001702 0.0000777 0.0001619 -0.0000381 0.0001470 -0.0000060 -0.0002356 -0.0000229 0.0001325 -0.0000036 -0.0000916 0.0000022 0.0001660 -0.0000624 0.0001712 0.0000058 0.0001426 0.0000378 0.0003027 0.0004750 -0.0003374 0.0001579 -0.0000262 0.0000879 -0.0002486 -0.0001596 0.0002068 -0.0001599 0.0007608 -0.0003525 0.0007684 0.0001847 -0.0000596 0.0000002 0.0001482 0.0002557 -0.0001498 -0.0001028 -0.0002902 0.0002454 -0.0002121 0.0001565 0.0003905 0.0007359 0.0004396 -0.0000850 -0.0001409 -0.0000165 -0.0002466 0.0017361 -0.0009799 0.0006493 -0.0005676 -0.0005902 -0.0000528 -0.0008585 -0.0038787 0.0001887 0.0000058 0.0027199 0.0012239 0.0000557 -0.0000193 -0.0002242 -0.0005172 0.0001640 0.0011211 0.0003151 -0.0003895 -0.0001708 -0.0001196 0.0002412 -0.0002161 0.0000223 0.0001049 -0.0000750 0.0003211 0.0002357 -0.0000995 0.0000644 0.0001905 0.0012336 -0.0009978 -0.0002089 -0.0002417 0.0143066 -0.0202198 0.0080733 -0.0089188 0.0035141 -0.0024677 0.0002851 -0.0002713 -0.0004957 0.0005858 0.0005053 -0.0002330 -0.0000203 0.0002298 0.0000028 0.0001089 0.0002137 -0.0003128 0.0000942 0.0001493 0.0009826 -0.0014947 -0.0005354 0.0001968 0.0004065 -0.0009255 -0.0022727 0.0013627 0.0001221 -0.0000226 0.0007527 -0.0002020 0.0000621 0.0002796 0.0000734 0.0000146 -0.0000227 0.0002596 -0.0001803 0.0005614 -0.0016874 -0.0025968 0.0003590 -0.0001612 0.0011445 -0.0005861 0.0011362 -0.0003608 0.0000188 -0.0003288 0.0000110 0.0003727 -0.0003735 0.0005025 0.0000536 -0.0000387 0.0051014 -0.0051490 -0.0003629 0.0007922 0.0000552 0.0004226 -0.0004535 0.0006374 0.0042804 -0.0122359 0.0010389 -0.0007441 0.0001255 0.0001001 0.0019245 -0.0015794 -0.0056912 0.0028329 -0.0006932 0.0003872 0.0003243 0.0000846 0.0000318 0.0001498 0.0000590 0.0001199 -0.0000134 0.0003944 0.0000844 -0.0000913 -0.0002973 0.0004868
0.0000536 -0.0001062 0.0001453 -0.0001084 0.0001834 0.0000282 -0.0000272 0.0000678 0.0000291 0.0002038 -0.0000895 0.0000117 0.0001164 -0.0000178 0.0000339 0.0000958 0.0000650 0.0001095 0.0002449 -0.0001393 0.0001685 -0.0001367 0.0001415 -0.0000661 0.0003537 -0.0001957 -0.0000234 0.0001199 -0.0000182 0.0003245 -0.0000680 0.0003011 -0.0001500 0.0003490 0.0000753 0.0000350 -0.0000642 0.0002966 -0.0008109 0.0007046 0.0001125 -0.0000454 -0.0002702 -0.0001420 0.0000290 0.0001377 -0.0000462 0.0001873 -0.0001373 -0.0001149 -0.0000404 0.0002077 0.0000039 -0.0000739 0.0000164 0.0001555 -0.0000864 0.0001444 -0.0000042 0.0001913 0.0000124 0.0002416 0.0005088 -0.0003032 0.0001831 -0.0000586 0.0000685 -0.0002103 -0.0000622 0.0001998 -0.0001181 0.0007133 -0.0011630 0.0014734 0.0106561 -0.0073314 -0.0000498 0.0001912 0.0003310 -0.0002270 0.0002824 -0.0013103 0.0002996 -0.0002256 0.0001609 0.0003610 -0.0005861 0.0014870 0.0002131 -0.0004871 0.0000152 -0.0002557 0.0051789 -0.0042137 0.0008329 -0.0007618 -0.0005375 0.0000428 -0.0076148 0.0046181 -0.0000735 0.0001540 -0.0044804 0.0084909 -0.0000532 0.0001075 -0.0002721 -0.0004672 0.0001479 0.0010829 0.0001764 -0.0004630 -0.0001942 -0.0001554 0.0000807 -0.0001871 0.0000259 0.0000305 0.0000354 0.0000729 0.0001525 -0.0000158 0.0004377 0.0000468 0.0007966 -0.0004035 -0.0016717 0.0005186 0.0278745 -0.0506199 -0.0044680 0.0075324 -0.0015933 0.0048562 0.0004590 -0.0005500 -0.0019599 0.0023438 0.0005532 -0.0002732 -0.0000270 0.0001791 -0.0000425 0.0001124 0.0001800 -0.0002172 0.0000508 0.0001857 0.0010383 -0.0017144 -0.0004362 0.0001875 0.0009523 -0.0006883 -0.0009936 -0.0001459 0.0001668 -0.0000980 -0.0001314 0.0007250 -0.0001628 0.0005032 0.0004035 0.0000617 0.0000517 0.0001816 -0.0000185 0.0003703 -0.0002482 -0.0020438 0.0002946 -0.0001748 0.0009122 -0.0004603 0.0000834 0.0013120 0.0004678 -0.0001074 0.0000786 0.0003059 -0.0001351 0.0003384 -0.0000440 0.0001758 0.0005835 0.0004061 0.0001534 0.0003400 -0.0000318 0.0004818 -0.0000977 0.0004911 -0.0009807 -0.0003261 0.0005510 -0.0002664 0.0001144 0.0000046 0.0024431 -0.0017328 0.0038792 -0.0071400 -0.0028209 0.0025019 0.0006543 -0.0002835 0.0000290 0.0001187 0.0000546 0.0000712 -0.0000721 0.0003619 0.0001134 -0.0001331 -0.0003370 0.0005457
0.0000426 -0.0000818 0.0001518 -0.0001047 0.0001814 -0.0000168 -0.0000209 0.0000676 0.0000267 0.0001758 -0.0000621 0.0000867 0.0001241 -0.0000422 0.0000241 0.0000687 0.0000621 0.0001186 0.0002347 -0.0001204 0.0001709 -0.0001984 0.0001441 -0.0000573 0.0003015 -0.0000604 -0.0000179 0.0001278 -0.0000019 0.0002379 -0.0000559 0.0002954 -0.0001104 0.0003460 0.0000843 0.0000043 -0.0000638 0.0002793 -0.0010804 0.0006275 0.0001313 0.0000157 -0.0002531 -0.0001293 -0.0000060 0.0000734 -0.0000413 0.0002391 -0.0002451 -0.0000634 -0.0000099 0.0001570 -0.0000309 -0.0000426 -0.0000255 0.0001876 -0.0001062 0.0001558 0.0000001 0.0002205 -0.0000331 0.0001731 0.0003648 -0.0001888 0.0002143 -0.0000379 0.0001000 -0.0001635 0.0002645 -0.0000934 0.0000174 0.0007071 -0.0008071 0.0011721 0.0090447 -0.0085774 -0.0000255 0.0001592 0.0001675 -0.0000952 -0.0003677 -0.0001185 0.0003540 -0.0004427 0.0001350 0.0004021 -0.0012615 0.0018098 0.0006691 -0.0008200 0.0000613 -0.0001189 0.0036388 -0.0022075 0.0015359 -0.0010566 0.0000090 -0.0002377 -0.0057721 0.0071138 -0.0001152 0.0001594 -0.0126941 0.0055351 0.0000056 0.0001569 -0.0001992 -0.0004558 0.0001123 0.0010233 -0.0000349 -0.0003543 -0.0001998 -0.0001478 -0.0000138 0.0000319 0.0000028 0.0000665 0.0000685 0.0000658 0.0001740 -0.0000816 0.0001372 0.0004559 0.0001988 0.0003789 -0.0020996 0.0017287 0.0070328 -0.0058990 -0.0050503 0.0028139 -0.0077691 0.0087544 0.0004548 -0.0004910 -0.0016419 0.0026166 0.0010198 -0.0010948 0.0000572 0.0001642 0.0000211 0.0000539 0.0001138 0.0000995 0.0001071 0.0001415 0.0012696 -0.0003402 0.0004524 -0.0001918 0.0036972 -0.0038997 -0.0009471 0.0005415 0.0001997 -0.0000866 -0.0001193 0.0004550 -0.0000808 0.0005344 0.0000708 0.0004262 0.0000971 0.0001524 -0.0000101 0.0002651 -0.0021097 0.0005894 0.0002273 0.0000655 0.0002707 0.0002447 -0.0001277 0.0013218 -0.0001208 0.0008130 -0.0000254 0.0004243 -0.0002816 0.0006079 -0.0001044 0.0002954 -0.0087247 0.0045648 0.0000533 0.0003747 -0.0000035 0.0004052 0.0008021 -0.0000674 0.0067228 -0.0125540 0.0004235 -0.0000695 0.0000814 0.0000224 -0.0000113 0.0006158 0.0090085 -0.0092210 -0.0017976 0.0023436 0.0002525 0.0002213 0.0000322 0.0001274 -0.0000009 0.0000735 0.0000008 0.0003095 0.0001140 -0.0001901 -0.0010631 0.0013004
0.0000697 -0.0000777 0.0001630 -0.0001233 0.0001946 -0.0000354 0.0000055 0.0000308 0.0000307 0.0001213 -0.0000275 0.0000161 0.0001357 -0.0000970 0.0000295 0.0000248 0.0000792 0.0000500 0.0002283 -0.0001459 0.0001870 -0.0003091 0.0001283 -0.0000815 0.0002539 -0.0000623 -0.0000220 -0.0000158 0.0000337 0.0001016 -0.0000462 0.0001901 -0.0000607 0.0001754 0.0001195 -0.0000601 -0.0000698 0.0002123 -0.0004485 0.0000021 0.0001505 -0.0001015 -0.0002850 -0.0001080 0.0000154 -0.0000112 -0.0000284 0.0001465 -0.0001811 -0.0002012 0.0000063 0.0000586 -0.0000323 -0.0001011 -0.0000177 0.0001194 -0.0001239 0.0001065 0.0000295 0.0001041 -0.0000361 0.0001079 0.0003716 -0.0003581 0.0002716 -0.0001153 0.0001278 -0.0003773 0.0004517 -0.0001602 -0.0000533 0.0008710 -0.0002514 0.0006500 0.0111914 -0.0129434 0.0000263 -0.0000295 0.0001289 -0.0001373 0.0004689 -0.0005533 0.0002329 -0.0002491 0.0001176 0.0004042 0.0006358 -0.0005598 0.0005447 -0.0007793 0.0001318 -0.0001352 0.0013182 -0.0009622 0.0016843 -0.0010900 0.0004825 -0.0005813 0.0015569 -0.0016280 0.0000930 0.0000841 0.0049975 -0.0221054 0.0001261 0.0000709 -0.0003074 -0.0004025 0.0001127 0.0010403 -0.0002179 -0.0000183 -0.0001858 -0.0001729 0.0000725 -0.0000520 -0.0000123 0.0000816 -0.0000335 0.0001132 0.0001719 -0.0001473 -0.0002095 0.0004956 -0.0007189 0.0010715 0.0004214 -0.0000241 0.0030088 0.0036998 -0.0086070 0.0005598 -0.0006287 0.0025235 0.0001442 -0.0001358 -0.0029150 0.0032382 0.0007593 -0.0005627 0.0000824 0.0002185 0.0000652 -0.0000066 0.0000540 0.0002047 0.0001035 0.0000457 0.0003529 0.0012305 0.0016924 -0.0009782 0.0019648 -0.0025024 0.0009708 -0.0008379 0.0002242 -0.0001052 -0.0004289 0.0007009 0.0003422 0.0000389 0.0002322 0.0000147 0.0001120 0.0001557 -0.0001217 0.0003352 0.0002640 -0.0009082 0.0000629 0.0004725 -0.0008590 0.0013109 -0.0004262 0.0018522 -0.0002801 0.0006298 -0.0000492 0.0004099 -0.0003408 0.0008806 0.0001806 0.0001052 -0.0113140 0.0069114 -0.0000024 0.0001950 -0.0000044 0.0003948 -0.0000026 0.0006588 0.0083822 -0.0146953 0.0005183 0.0000358 0.0000840 0.0000082 0.0018065 -0.0001064 -0.0038566 0.0019904 -0.0002431 0.0006513 0.0000346 0.0005756 0.0000796 0.0000700 -0.0000666 0.0001424 -0.0001512 0.0004427 0.0001183 -0.0001769 -0.0010057 0.0011008
0.0000888 -0.0000801 0.0001744 -0.0001327 0.0002036 0.0000279 0.0000081 0.0000379 0.0000277 0.0001311 -0.0000470 0.0000639 0.0001378 -0.0000609 0.0000279 0.0000726 0.0000745 0.0000190 0.0002194 -0.0001323 0.0001827 -0.0002671 0.0001549 -0.0000867 0.0003062 -0.0001324 -0.0000250 0.0000217 0.0000386 0.0001889 -0.0000324 0.0002655 -0.0000249 0.0002137 0.0001606 -0.0000164 -0.0000725 0.0003297 -0.0007438 0.0000978 0.0001361 -0.0000857 -0.0003952 -0.0000897 -0.0000085 0.0001118 -0.0000229 0.0001745 -0.0001028 -0.0002101 -0.0000187 0.0001507 -0.0000382 -0.0000446 -0.0000342 0.0001547 -0.0001440 0.0001110 0.0000599 0.0001358 -0.0000419 0.0001477 0.0004492 -0.0004147 0.0002936 -0.0001344 0.0000611 -0.0002758 0.0000208 0.0003164 -0.0003147 0.0011273 0.0004183 0.0003818 0.0027046 -0.0036391 0.0001072 -0.0000405 0.0001488 -0.0001123 -0.0006687 -0.0002683 0.0001401 -0.0000486 0.0001062 0.0004690 0.0016380 -0.0009850 0.0001767 -0.0002025 0.0002085 -0.0001589 -0.0003267 0.0017667 0.0017563 -0.0010764 0.0006031 -0.0005439 0.0002622 0.0004107 0.0002376 0.0001371 -0.0031765 0.0014114 0.0003647 -0.0000838 -0.0004999 -0.0002700 0.0000957 0.0011046 -0.0002865 -0.0000551 -0.0001972 -0.0001494 0.0001125 0.0000112 -0.0000131 0.0001201 0.0000322 -0.0000060 0.0000923 -0.0000089 0.0000080 0.0002114 -0.0009958 0.0011888 0.0000652 0.0000391 -0.0044909 -0.0010387 0.0040886 -0.0150883 -0.0020838 0.0043373 0.0000723 -0.0000585 0.0009439 -0.0011760 -0.0006317 0.0011289 0.0000575 0.0001650 0.0000444 -0.0000300 0.0000630 0.0002423 -0.0000878 0.0001704 0.0015458 0.0000379 0.0015855 -0.0010175 -0.0003021 -0.0000442 0.0022974 -0.0023746 0.0001046 -0.0000799 -0.0014519 0.0012241 0.0006056 -0.0002661 0.0008632 -0.0001979 0.0000984 0.0001342 0.0000322 0.0002113 0.0023415 -0.0022112 0.0000306 0.0003494 0.0000879 0.0004707 -0.0009147 0.0014890 0.0002033 -0.0002857 -0.0000237 0.0003064 -0.0001811 0.0004253 0.0002558 -0.0001343 -0.0106623 0.0129256 0.0001448 0.0002232 0.0000778 0.0002734 0.0001296 -0.0000241 -0.0059880 0.0044484 0.0002448 -0.0000280 0.0000577 -0.0000096 0.0019942 -0.0010479 -0.0167502 0.0103005 0.0006216 0.0007467 0.0000692 0.0001950 0.0000891 -0.0000625 -0.0000047 0.0000107 -0.0001187 0.0001284 0.0001384 -0.0003117 -0.0005942 0.0006373
0.0000902 -0.0001723 0.0001778 -0.0001972 0.0002174 -0.0000156 0.0000031 0.0000133 0.0000231 0.0000875 -0.0000303 -0.0000042 0.0001516 -0.0001350 0.0000332 0.0000291 0.0000791 -0.0000565 0.0002144 -0.0001529 0.0002399 -0.0003556 0.0001561 -0.0001086 0.0003216 -0.0001010 -0.0000179 -0.0000760 0.0000531 0.0001285 -0.0000179 0.0001978 -0.0000065 0.0001295 0.0001894 -0.0000487 -0.0000659 0.0003035 0.0001658 -0.0007270 0.0001228 -0.0000955 -0.0004267 -0.0002018 0.0000036 0.0001538 -0.0000191 0.0001777 -0.0000208 -0.0003384 -0.0000307 0.0001582 -0.0000456 -0.0000177 -0.0000069 0.0001146 -0.0001674 0.0001080 0.0000644 0.0001499 -0.0000595 0.0001381 0.0004069 -0.0003951 0.0002510 -0.0001362 0.0001033 -0.0003018 -0.0003920 0.0006109 -0.0003275 0.0011771 0.0005296 0.0004087 -0.0120177 0.0113328 0.0001595 -0.0000358 0.0001439 -0.0001024 -0.0015440 0.0005953 0.0002531 -0.0001515 0.0001079 0.0005260 0.0005614 -0.0000927 0.0002073 -0.0000117 0.0002046 -0.0000863 0.0017694 -0.0003296 0.0006226 0.0003544 0.0000704 -0.0001166 -0.0000709 0.0012509 0.0002355 0.0001985 0.0080294 -0.0119657 0.0003046 -0.0000360 -0.0006479 -0.0000710 0.0000767 0.0010869 -0.0002417 -0.0002962 -0.0002096 -0.0001224 0.0001499 0.0001467 -0.0000351 0.0001791 0.0001236 0.0000111 0.0000824 -0.0000432 -0.0002226 0.0005362 0.0003082 -0.0001457 -0.0012513 0.0016035 -0.0077934 -0.0041629 0.0112800 -0.0318647 -0.0057363 0.0060445 0.0002256 -0.0000711 0.0032271 -0.0012680 0.0010227 -0.0006711 0.0000664 0.0002639 -0.0000001 0.0000259 0.0002710 -0.0001148 0.0000024 0.0001434 0.0031608 -0.0021630 -0.0003685 0.0006314 -0.0042336 0.0034181 0.0011682 -0.0006417 0.0001022 -0.0000805 -0.0006238 0.0003420 0.0004488 0.0000002 0.0004813 0.0001113 0.0000383 0.0001799 0.0001017 0.0001451 0.0050013 -0.0033271 0.0004454 -0.0000349 0.0001871 0.0005059 0.0015670 -0.0016732 0.0000074 0.0000615 -0.0000437 0.0002908 -0.0000512 0.0001201 -0.0000495 0.0001949 0.0019362 0.0044372 -0.0001197 0.0006290 -0.0000480 0.0003260 0.0002528 0.0002438 -0.0195644 0.0216347 0.0000630 -0.0004458 0.0000203 0.0000510 -0.0022988 0.0020948 -0.0118321 0.0092329 -0.0012329 0.0022177 0.0002664 0.0000970 0.0000278 -0.0000054 0.0000515 -0.0000637 -0.0001771 0.0001665 0.0001189 -0.0002898 0.0001443 -0.0003380
0.0001030 -0.0001388 0.0001838 -0.0001610 0.0002117 0.0000015 0.0000175 0.0000295 0.0000236 0.0001536 -0.0000400 0.0001205 0.0001532 -0.0000982 0.0000185 0.0001019 0.0000738 0.0000034 0.0002066 -0.0001236 0.0002355 -0.0002753 0.0001539 -0.0000519 0.0002776 -0.0001436 -0.0000044 0.0000950 0.0000643 0.0001896 -0.0000101 0.0002941 0.0000131 0.0002245 0.0001962 -0.0000311 -0.0000590 0.0003335 0.0003185 -0.0000941 0.0001385 -0.0000338 -0.0003280 -0.0002537 -0.0000029 0.0001497 -0.0000122 0.0001577 -0.0000133 -0.0003708 0.0000077 0.0001266 -0.0000509 -0.0000387 0.0000551 0.0000257 -0.0001805 0.0001078 0.0000759 0.0000890 -0.0000819 0.0000889 0.0004655 -0.0004826 0.0002065 -0.0001755 0.0001223 -0.0004191 0.0001872 0.0000703 -0.0001127 0.0009189 -0.0001697 0.0008736 -0.0049475 0.0062239 -0.0000241 0.0000105 0.0000566 -0.0000825 -0.0001269 0.0000991 0.0002521 -0.0000524 0.0001408 0.0004646 -0.0000861 0.0000998 0.0002022 0.0000525 0.0001326 -0.0000384 0.0017753 0.0001564 0.0008401 0.0002454 0.0000419 0.0001839 0.0064466 -0.0029670 0.0000893 0.0002343 0.0116351 -0.0134300 0.0000778 0.0000613 -0.0005270 -0.0001240 0.0000561 0.0009888 -0.0002860 -0.0002776 -0.0002083 -0.0001588 -0.0000335 0.0001307 -0.0000537 0.0000799 0.0000855 -0.0000972 0.0002479 -0.0001558 0.0001607 0.0000038 0.0004592 -0.0007255 0.0003531 0.0005080 -0.0190182 0.0164429 0.0004466 -0.0070213 -0.0127888 0.0120919 0.0003789 -0.0002397 0.0012675 0.0012410 0.0016514 -0.0011775 0.0000483 0.0002459 0.0000491 -0.0000497 0.0001893 -0.0000977 0.0001469 -0.0001231 0.0029117 -0.0029577 -0.0013800 0.0009747 -0.0032658 0.0025122 -0.0009371 0.0004250 0.0000715 -0.0000862 0.0000290 -0.0003346 -0.0001288 0.0004524 0.0002992 -0.0002028 0.0000288 0.0000683 0.0000199 0.0000828 0.0052070 -0.0045203 0.0007276 -0.0005885 -0.0004009 0.0007840 0.0012080 -0.0008876 -0.0001442 0.0005816 0.0000005 0.0001437 0.0001611 -0.0000233 -0.0001158 0.0002459 0.0028336 -0.0002868 -0.0001033 0.0004353 -0.0001000 0.0002637 -0.0001868 0.0009402 -0.0178472 0.0172985 0.0008761 -0.0007349 0.0000611 -0.0000420 -0.0010669 0.0012551 -0.0122447 0.0058396 -0.0014862 0.0017330 0.0003052 -0.0000702 -0.0000270 -0.0000244 0.0000120 -0.0000836 -0.0003154 0.0002863 0.0000807 -0.0003050 0.0005056 -0.0004151
0.0001422 -0.0001569 0.0002048 -0.0001701 0.0002145 -0.0000491 0.0000206 0.0000273 0.0000296 0.0001551 -0.0000204 0.0001741 0.0001637 -0.0001328 0.0000123 0.0000655 0.0000923 0.0000159 0.0002189 -0.0001298 0.0002136 -0.0002149 0.0001419 -0.0000144 0.0002827 -0.0001495 -0.0000014 0.0001535 0.0000665 0.0001644 -0.0000058 0.0003110 0.0000565 0.0002384 0.0001986 -0.0000758 -0.0000603 0.0002951 -0.0002167 0.0004676 0.0001418 0.0000411 -0.0003305 -0.0001760 -0.0000026 0.0000810 -0.0000056 0.0001567 -0.0001109 -0.0002783 -0.0000027 0.0001644 -0.0000670 0.0000149 -0.0000008 0.0000682 -0.0001874 0.0001358 0.0000989 0.0000787 -0.0000879 0.0000737 0.0004710 -0.0005112 0.0002188 -0.0002127 0.0001002 -0.0003384 0.0006171 -0.0004270 -0.0000441 0.0008309 -0.0001705 0.0006618 -0.0126089 0.0110135 0.0000355 -0.0000267 0.0000483 0.0000128 0.0004121 -0.0000132 0.0002144 -0.0001194 0.0001321 0.0004707 0.0007676 0.0002782 0.0003627 -0.0002361 0.0001286 -0.0000339 -0.0014431 0.0037296 0.0015669 -0.0010067 0.0002858 0.0001110 0.0010614 0.0017898 0.0000287 0.0002115 0.0093267 -0.0082751 0.0001104 0.0001107 -0.0001203 -0.0006194 0.0000332 0.0010017 -0.0003432 -0.0000874 -0.0002082 -0.0001347 -0.0003301 0.0004097 -0.0000518 0.0000729 0.0000114 -0.0000658 0.0000725 -0.0000513 0.0002962 -0.0002893 0.0001682 -0.0001821 0.0013217 -0.0005309 -0.0070767 0.0054285 0.0017468 -0.0043936 -0.0081147 0.0084922 0.0003279 -0.0001812 -0.0027277 0.0023107 0.0009626 0.0003479 -0.0000260 0.0003599 0.0001061 -0.0000827 -0.0000805 0.0004706 0.0001879 -0.0001140 0.0003803 -0.0008702 -0.0005653 0.0000601 0.0009269 -0.0001399 -0.0019708 0.0014818 0.0000435 -0.0000523 0.0000836 -0.0007023 -0.0002162 0.0004309 0.0003772 0.0000994 0.0000039 0.0000569 0.0000189 -0.0000854 0.0032953 -0.0055925 0.0003632 -0.0003318 0.0004072 -0.0001459 -0.0002743 0.0011703 0.0000850 0.0003991 -0.0000114 0.0001688 0.0004418 -0.0002126 0.0000295 -0.0000670 -0.0092369 0.0094428 0.0000883 -0.0000523 0.0000010 0.0001279 0.0000081 0.0003636 -0.0038846 -0.0084350 0.0011859 -0.0011118 0.0000259 -0.0000519 0.0011490 -0.0012176 0.0088707 -0.0305030 0.0018110 -0.0011020 0.0000585 -0.0004721 -0.0000246 -0.0001287 0.0000433 -0.0001575 -0.0002832 0.0002986 0.0001415 -0.0004985 0.0002552 -0.0003156
0.0001863 -0.0002450 0.0002016 -0.0002158 0.0002317 -0.0001422 0.0000195 -0.0000344 0.0000412 0.0000893 -0.0000028 0.0000656 0.0001848 -0.0002621 0.0000334 -0.0000707 0.0001322 -0.0000866 0.0002327 -0.0002120 0.0002352 -0.0003754 0.0001220 -0.0000625 0.0003262 -0.0002185 0.0000054 -0.0000579 0.0000715 -0.0000304 0.0000043 0.0001222 0.0000872 0.0000101 0.0002241 -0.0002313 -0.0000638 0.0001047 0.0005769 -0.0003697 0.0001521 -0.0000444 -0.0001945 -0.0003248 0.0000863 -0.0001173 -0.0000002 0.0000864 -0.0000590 -0.0004215 -0.0000211 0.0000590 -0.0000711 -0.0000334 -0.0000341 0.0000245 -0.0001908 0.0001093 0.0001237 -0.0000206 -0.0000904 0.0000254 0.0003613 -0.0005065 0.0001629 -0.0002424 0.0001365 -0.0004001 0.0007040 -0.0007038 0.0000718 0.0008095 0.0001131 0.0003165 -0.0087901 0.0089187 0.0002177 -0.0001998 0.0001445 -0.0001452 0.0001676 -0.0006212 0.0002460 -0.0002928 0.0001109 0.0004666 0.0000301 0.0010105 0.0002711 -0.0004364 0.0001951 -0.0001728 0.0004237 0.0015177 0.0015039 -0.0015002 -0.0001203 0.0001429 -0.0073448 0.0044395 -0.0000014 0.0001946 0.0088752 -0.0083397 0.0002552 0.0000077 -0.0001300 -0.0007565 0.0000380 0.0010576 0.0000097 -0.0003359 -0.0002087 -0.0001536 -0.0001565 0.0001572 -0.0000587 0.0000788 -0.0000407 0.0000026 0.0000867 -0.0001502 0.0000527 0.0000141 0.0003149 -0.0001824 0.0016575 -0.0013934 0.0061346 -0.0102508 0.0025739 -0.0015974 -0.0046996 0.0028269 0.0002664 -0.0001620 -0.0023512 0.0005079 -0.0018526 0.0025491 -0.0000612 0.0003763 0.0000435 -0.0001023 0.0001470 0.0001048 0.0000496 -0.0000770 -0.0026606 0.0021585 -0.0009573 0.0005391 0.0006265 0.0004349 -0.0007646 0.0010411 0.0000620 -0.0001502 0.0002288 -0.0007400 0.0001408 -0.0000549 0.0002483 0.0002305 0.0000143 0.0000337 0.0001072 -0.0000476 0.0039985 -0.0042508 0.0000836 0.0001695 0.0005207 -0.0005176 0.0019604 -0.0003166 0.0003722 0.0001307 -0.0000480 0.0002103 0.0001801 -0.0001378 -0.0002378 -0.0000447 -0.0065865 0.0084380 -0.0000034 -0.0000798 0.0000231 0.0001096 -0.0004438 0.0005444 0.0052976 -0.0047900 0.0008819 -0.0006247 0.0000223 -0.0000865 0.0011169 -0.0015147 0.0127965 -0.0256836 0.0006707 -0.0006445 -0.0001549 -0.0000620 0.0000135 -0.0001897 0.0001280 -0.0002648 -0.0003402 0.0003376 0.0001402 -0.0005117 0.0000682 -0.0000367
0.0001735 -0.0002451 0.0001917 -0.0002107 0.0002445 -0.0001424 0.0000315 -0.0000918 0.0000507 0.0000988 -0.0000049 0.0000275 0.0002037 -0.0002682 0.0000500 -0.0001000 0.0001520 -0.0001370 0.0002287 -0.0002051 0.0002664 -0.0003574 0.0001431 -0.0000786 0.0003130 -0.0002391 0.0000144 -0.0000498 0.0000694 0.0000180 0.0000131 0.0001428 0.0001186 0.0000095 0.0002614 -0.0002377 -0.0000505 0.0001197 0.0012379 -0.0009157 0.0001610 -0.0000459 -0.0001753 -0.0003957 0.0001724 -0.0001153 -0.0000041 0.0001041 -0.0001067 -0.0003339 -0.0000603 0.0000818 -0.0000815 -0.0000501 -0.0000065 0.0000120 -0.0002055 0.0001212 0.0001445 -0.0000206 -0.0000929 0.0000660 0.0003502 -0.0004491 0.0001689 -0.0002335 0.0002042 -0.0004356 -0.0000641 0.0001399 -0.0002425 0.0011200 0.0000166 0.0007097 -0.0006372 0.0024725 0.0001597 -0.0001671 0.0002261 -0.0002007 -0.0010109 0.0009619 0.0003050 -0.0003791 0.0001167 0.0004694 0.0000369 0.0009475 0.0001975 -0.0003050 0.0001861 -0.0001620 0.0017340 0.0002079 0.0012704 -0.0012052 0.0002472 -0.0002247 -0.0055757 0.0048143 0.0003018 -0.0001428 0.0012817 -0.0005263 0.0003073 -0.0000920 -0.0002673 -0.0007224 0.0000416 0.0010870 0.0000454 -0.0004118 -0.0002209 -0.0001726 0.0001118 -0.0001331 -0.0000676 0.0000461 -0.0000403 -0.0000767 0.0002582 -0.0003536 0.0001077 -0.0001034 0.0003912 -0.0003532 0.0016218 -0.0015340 -0.0002362 -0.0028640 0.0061216 -0.0041072 0.0017385 -0.0018011 0.0004782 -0.0003766 0.0004676 -0.0012701 -0.0012675 0.0012535 -0.0000905 0.0001998 -0.0000527 -0.0001029 0.0002736 -0.0001963 -0.0000282 -0.0000758 -0.0029470 0.0014694 -0.0019468 0.0013474 -0.0005607 0.0011064 -0.0004217 0.0010150 0.0000117 -0.0001972 -0.0000641 -0.0002956 -0.0002195 0.0001605 -0.0004718 0.0003462 0.0001049 -0.0001924 0.0004431 -0.0003880 0.0010963 -0.0011648 0.0000361 -0.0000190 0.0002683 -0.0003603 0.0001115 0.0010341 0.0006436 -0.0000175 -0.0000769 0.0000724 -0.0002921 0.0002311 -0.0004245 -0.0002234 -0.0024208 0.0041368 0.0000816 -0.0001234 -0.0000534 0.0000405 -0.0001805 0.0000965 -0.0035911 0.0144145 0.0012071 -0.0007700 0.0000659 -0.0002166 0.0012639 -0.0011806 -0.0001475 -0.0006443 0.0007919 -0.0009127 -0.0001241 -0.0000648 0.0000471 -0.0003246 0.0001054 -0.0003389 -0.0004948 0.0001943 0.0001259 -0.0005921 0.0008193 -0.0006817
0.0001559 -0.0002842 0.0002155 -0.0002683 0.0002534 -0.0001828 0.0000326 -0.0001558 0.0000485 0.0000676 0.0000168 -0.0000692 0.0002191 -0.0003113 0.0000670 -0.0001802 0.0001807 -0.0002273 0.0002278 -0.0002020 0.0002748 -0.0003424 0.0001446 -0.0000995 0.0003544 -0.0002907 0.0000215 -0.0001335 0.0000831 -0.0000103 0.0000168 0.0000892 0.0001649 -0.0000448 0.0002935 -0.0002817 -0.0000349 0.0001000 0.0007407 -0.0005501 0.0001540 -0.0000591 -0.0001572 -0.0004035 0.0001995 -0.0001211 -0.0000034 0.0001116 -0.0002525 -0.0001212 -0.0000731 0.0000901 -0.0000944 -0.0000530 0.0000027 0.0000207 -0.0002286 0.0001319 0.0001481 0.0000042 -0.0000884 0.0000935 0.0003663 -0.0004687 0.0002158 -0.0003186 0.0001890 -0.0004163 -0.0000756 0.0000353 -0.0003355 0.0012455 -0.0002925 0.0011152 0.0019823 -0.0035670 0.0000643 -0.0001105 0.0002048 -0.0001620 -0.0026842 0.0019765 0.0001029 -0.0002466 0.0000993 0.0004436 0.0015054 -0.0005747 0.0003054 -0.0003279 0.0001265 -0.0001849 0.0007869 -0.0013577 0.0014109 -0.0011215 0.0000818 -0.0001913 -0.0015679 0.0022357 0.0001331 0.0001044 -0.0017318 0.0053013 0.0001923 -0.0001174 -0.0005302 -0.0004119 0.0000245 0.0010840 -0.0000883 -0.0002910 -0.0002247 -0.0001476 0.0001220 0.0000173 -0.0000623 0.0000793 0.0000528 -0.0001193 0.0002232 -0.0005186 0.0000701 -0.0001186 0.0007793 -0.0006352 0.0013053 -0.0003946 -0.0019263 0.0014346 0.0035992 -0.0062753 0.0074008 -0.0053969 0.0005075 -0.0002810 0.0012638 -0.0000554 -0.0011250 0.0008385 -0.0000394 0.0002031 -0.0000305 -0.0001246 0.0001128 -0.0001203 0.0001350 -0.0000974 -0.0016916 -0.0000929 -0.0011266 0.0010291 -0.0002067 0.0010626 0.0005684 -0.0000063 0.0001292 -0.0003174 0.0000798 0.0000807 -0.0003737 0.0003822 -0.0007139 0.0005517 0.0001443 -0.0002864 0.0003321 -0.0005260 -0.0018931 0.0017303 0.0000027 -0.0001648 0.0000393 0.0000543 -0.0006696 0.0012354 0.0007252 -0.0002349 -0.0000876 0.0000812 -0.0000987 0.0001336 -0.0002623 -0.0000673 -0.0078233 0.0091125 0.0002018 -0.0001635 0.0000150 0.0000725 0.0000335 -0.0000817 0.0038792 -0.0016136 0.0007308 -0.0005219 0.0000984 -0.0002147 0.0018935 -0.0010751 -0.0009655 -0.0006487 0.0041108 -0.0034071 0.0002204 -0.0001951 0.0000909 -0.0003070 0.0000962 -0.0002867 -0.0000515 -0.0001117 0.0002118 -0.0006087 0.0005720 -0.0010386
0.0001745 -0.0002921 0.0002320 -0.0002683 0.0002485 -0.0001249 0.0000182 -0.0001218 0.0000470 0.0001147 0.0000002 -0.0000709 0.0002268 -0.0002613 0.0000786 -0.0001140 0.0001733 -0.0002340 0.0002227 -0.0001729 0.0002674 -0.0002812 0.0001167 -0.0000433 0.0003597 -0.0003330 0.0000178 -0.0001459 0.0001191 0.0000472 0.0000213 0.0000949 0.0001852 -0.0000553 0.0003262 -0.0002739 -0.0000157 0.0001263 -0.0005886 0.0002573 0.0001284 -0.0000899 -0.0000674 -0.0004621 0.0001451 -0.0000927 -0.0000039 0.0000779 -0.0000758 -0.0002490 -0.0000321 0.0000087 -0.0000933 -0.0001057 0.0000364 -0.0000169 -0.0002354 0.0001288 0.0001550 -0.0000432 -0.0000873 0.0000870 0.0002326 -0.0003672 0.0002077 -0.0003419 0.0002517 -0.0005979 0.0004830 -0.0006474 -0.0001891 0.0011194 -0.0007547 0.0012602 -0.0015450 0.0016157 0.0001002 -0.0001932 0.0000314 -0.0000775 -0.0031105 0.0018747 -0.0000191 -0.0001781 0.0000662 0.0003669 0.0010771 -0.0001879 0.0004431 -0.0005407 0.0001764 -0.0003621 -0.0049116 0.0030826 0.0017915 -0.0017866 -0.0004401 0.0000409 0.0020607 0.0007959 -0.0002933 0.0003813 0.0076047 -0.0009196 0.0001666 -0.0001990 -0.0005295 -0.0002810 0.0000082 0.0010692 -0.0001242 -0.0002873 -0.0002311 -0.0001391 0.0000737 -0.0000610 -0.0000557 0.0000464 0.0000189 -0.0001053 0.0001336 -0.0004292 0.0002147 0.0000848 0.0008844 -0.0006460 0.0005140 0.0007663 0.0110430 -0.0089875 -0.0025313 0.0017882 0.0043823 -0.0035354 0.0002402 -0.0001912 0.0017197 -0.0001788 -0.0038092 0.0031505 -0.0000491 0.0001372 0.0000246 -0.0002753 0.0002071 -0.0003946 0.0002083 -0.0002848 0.0002522 -0.0005706 0.0002012 -0.0004602 -0.0001064 -0.0005600 0.0020335 -0.0016699 0.0001927 -0.0004360 -0.0003944 0.0004743 -0.0002434 0.0000543 0.0005101 -0.0010767 0.0001484 -0.0002890 0.0000897 -0.0004596 -0.0011140 0.0031387 0.0002261 -0.0002222 -0.0000225 -0.0001591 0.0021443 -0.0015912 0.0010346 -0.0009338 -0.0000619 0.0000254 0.0001867 -0.0001953 -0.0000847 0.0001378 -0.0064378 0.0051654 0.0002091 0.0000570 0.0001175 0.0000197 -0.0004741 0.0006108 0.0158711 -0.0260378 0.0002988 -0.0000343 0.0000727 -0.0001669 0.0026467 -0.0023298 0.0084821 -0.0089119 0.0011396 -0.0007811 0.0006668 -0.0006642 0.0001272 -0.0002287 0.0001077 -0.0002693 0.0001759 -0.0002320 0.0002096 -0.0005313 -0.0001040 -0.0001262
0.0001923 -0.0002790 0.0002389 -0.0002495 0.0002629 -0.0000924 0.0000197 -0.0000814 0.0000579 0.0001647 0.0000050 -0.0000531 0.0002438 -0.0002295 0.0000911 -0.0000532 0.0001738 -0.0002322 0.0002421 -0.0001559 0.0002512 -0.0002060 0.0001156 0.0000011 0.0003454 -0.0003152 0.0000163 -0.0000406 0.0001172 0.0001614 0.0000222 0.0001988 0.0002061 0.0000213 0.0003309 -0.0002121 -0.0000114 0.0002325 -0.0018292 0.0008912 0.0001204 -0.0000511 -0.0001122 -0.0003415 0.0000701 0.0000590 -0.0000093 0.0001292 -0.0000305 -0.0003346 -0.0000890 0.0001048 -0.0000953 -0.0000510 0.0000249 0.0000339 -0.0002434 0.0001929 0.0001575 0.0000142 -0.0000940 0.0001523 0.0001350 -0.0002093 0.0002597 -0.0003474 0.0004231 -0.0006327 0.0001932 -0.0002935 -0.0002705 0.0012226 -0.0006340 0.0011625 0.0014706 0.0007207 0.0002276 -0.0002064 0.0000405 -0.0000294 -0.0013745 0.0009801 0.0000491 -0.0000860 0.0000669 0.0003749 -0.0012565 0.0018225 0.0002212 -0.0003881 0.0002325 -0.0003843 -0.0055344 0.0063946 0.0005142 -0.0006853 -0.0000840 -0.0000933 -0.0014523 0.0034028 -0.0003084 0.0004396 0.0094050 0.0020283 0.0001434 -0.0001287 -0.0003757 -0.0004981 -0.0000128 0.0011199 -0.0000961 -0.0004121 -0.0002438 -0.0000621 0.0001265 0.0000089 -0.0000700 0.0001131 -0.0000825 0.0000696 0.0000164 -0.0003233 0.0001982 0.0002315 0.0002223 0.0002105 0.0010373 -0.0003399 0.0160319 -0.0275098 0.0073772 -0.0127627 0.0013552 -0.0011268 0.0000236 0.0001989 0.0004975 -0.0011715 -0.0017152 0.0012743 -0.0000254 0.0001296 0.0000239 -0.0002273 0.0001355 -0.0000642 0.0002263 -0.0002549 -0.0002694 0.0004702 -0.0003246 -0.0001926 -0.0014892 0.0013383 0.0019220 -0.0013756 0.0002009 -0.0003516 -0.0005901 0.0005480 -0.0001931 -0.0000796 0.0004875 -0.0008682 0.0001867 -0.0002824 0.0003236 -0.0006760 0.0028841 0.0001388 0.0001887 -0.0000845 0.0001976 -0.0003929 0.0030650 -0.0023799 0.0008084 -0.0007817 -0.0000758 0.0000104 0.0002063 -0.0002444 0.0001241 -0.0001928 0.0035165 -0.0053983 0.0003607 -0.0000219 0.0001057 0.0000707 -0.0004989 0.0009345 -0.0064303 0.0038122 0.0000749 -0.0000247 0.0001116 -0.0002412 0.0003989 -0.0003287 0.0106080 -0.0168861 0.0006759 -0.0000553 0.0002959 -0.0003992 0.0001398 -0.0002794 0.0000913 -0.0002788 0.0000674 -0.0002183 0.0001544 -0.0005954 -0.0006511 0.0002215
0.0001975 -0.0003050 0.0002531 -0.0002939 0.0002762 -0.0001588 0.0000300 -0.0001160 0.0000760 0.0000917 0.0000231 -0.0001735 0.0002512 -0.0003103 0.0001211 -0.0001417 0.0002074 -0.0003304 0.0002601 -0.0002173 0.0002590 -0.0003292 0.0001260 -0.0000728 0.0003995 -0.0004482 0.0000149 -0.0001250 0.0001190 0.0000530 0.0000182 0.0001104 0.0002066 -0.0000765 0.0003308 -0.0002859 -0.0000102 0.0001389 -0.0010731 0.0006228 0.0001140 -0.0000902 -0.0002473 -0.0002651 0.0000232 0.0000793 -0.0000118 0.0001108 -0.0001418 -0.0003468 -0.0000519 0.0000434 -0.0000969 -0.0000631 0.0000174 0.0000470 -0.0002568 0.0002086 0.0001618 -0.0000090 -0.0001105 0.0001727 0.0002052 -0.0002761 0.0002292 -0.0003593 0.0004170 -0.0006604 0.0002014 -0.0004466 -0.0002325 0.0011855 -0.0007892 0.0014763 -0.0003279 0.0015683 0.0002796 -0.0003540 0.0000891 -0.0001178 -0.0000273 -0.0000427 0.0002800 -0.0001582 0.0000798 0.0003693 -0.0007245 0.0011239 -0.0001241 -0.0002268 0.0002074 -0.0003696 -0.0070031 0.0091581 -0.0001141 0.0003243 -0.0004598 -0.0000119 0.0038808 -0.0036370 0.0000749 0.0003199 -0.0042395 0.0159435 0.0000571 -0.0000620 -0.0000954 -0.0007458 -0.0000047 0.0011226 0.0000731 -0.0004399 -0.0002551 -0.0000222 0.0002775 0.0000237 -0.0000723 0.0001466 -0.0000922 0.0001802 0.0002326 -0.0005666 0.0003182 -0.0000413 0.0000948 -0.0000081 0.0037778 -0.0029937 -0.0086627 0.0092027 0.0069430 -0.0172155 -0.0049137 0.0014902 0.0001212 0.0001898 0.0004777 -0.0007724 0.0005386 -0.0010204 -0.0000076 0.0002265 0.0000054 -0.0001463 0.0001229 0.0000516 0.0000672 -0.0000371 0.0018822 -0.0009200 0.0005540 0.0000803 -0.0050071 0.0054636 0.0006544 -0.0009224 0.0000974 -0.0001582 -0.0000897 -0.0002011 0.0001531 -0.0001556 0.0007323 -0.0005323 0.0001328 -0.0001854 0.0003258 -0.0005545 0.0036154 -0.0030861 0.0002295 -0.0001102 -0.0000218 0.0000170 0.0027321 -0.0024513 0.0002206 -0.0001437 -0.0000799 0.0000335 0.0004305 -0.0004794 0.0002880 -0.0001718 0.0017534 0.0053066 0.0005454 -0.0000528 0.0000376 0.0002854 -0.0001619 0.0005167 -0.0244555 0.0231551 -0.0002226 0.0001558 0.0001244 -0.0002224 -0.0025824 0.0034065 0.0098023 -0.0266941 0.0011379 -0.0002040 0.0000531 0.0001131 0.0001151 -0.0001939 0.0000084 -0.0001236 0.0000856 -0.0001979 0.0001541 -0.0004828 -0.0011753 0.0008269
0.0001738 -0.0002567 0.0002517 -0.0002646 0.0002774 -0.0000716 0.0000222 -0.0000608 0.0000775 0.0001290 0.0000367 -0.0002629 0.0002566 -0.0002378 0.0001365 -0.0000446 0.0001912 -0.0003668 0.0002359 -0.0001708 0.0002791 -0.0002540 0.0001048 -0.0000226 0.0002794 -0.0003571 0.0000009 -0.0000424 0.0001250 0.0001993 0.0000207 0.0002287 0.0001961 0.0000108 0.0003298 -0.0001822 0.0000067 0.0002405 0.0005152 -0.0002425 0.0000784 -0.0000253 -0.0003974 -0.0001534 0.0000085 0.0002235 -0.0000225 0.0001667 -0.0000650 -0.0003337 0.0000043 0.0000875 -0.0001014 -0.0000270 0.0000268 0.0001376 -0.0002708 0.0002253 0.0001319 0.0000475 -0.0001176 0.0002351 0.0003723 -0.0003415 0.0001093 -0.0002280 0.0003262 -0.0005699 0.0003175 -0.0005989 -0.0003440 0.0012793 -0.0001699 0.0013611 -0.0076486 0.0093415 0.0002549 -0.0004095 0.0000518 -0.0001254 -0.0020396 0.0019291 0.0001190 -0.0000007 0.0000660 0.0003910 0.0007572 0.0002715 -0.0000828 -0.0005883 0.0002234 -0.0003501 -0.0050306 0.0063526 0.0001315 0.0001220 -0.0002115 -0.0003048 0.0085889 -0.0087398 0.0004779 -0.0000763 -0.0102179 0.0149582 0.0001226 -0.0001642 0.0001580 -0.0008839 0.0000060 0.0011312 -0.0001436 -0.0000439 -0.0002535 -0.0000440 0.0002037 -0.0000141 -0.0000794 0.0000845 0.0000234 0.0000239 0.0002600 -0.0004887 -0.0000752 -0.0000678 0.0000876 0.0000341 0.0033149 -0.0022194 -0.0022961 0.0115822 -0.0087588 0.0041518 -0.0031882 0.0011417 0.0001740 -0.0001960 0.0007153 0.0002278 0.0002646 -0.0001199 -0.0000872 0.0001814 -0.0000293 -0.0001797 -0.0000304 -0.0000896 -0.0000340 0.0000030 0.0024475 -0.0016842 0.0021098 -0.0007075 -0.0017950 0.0018530 0.0018643 -0.0015350 0.0000290 -0.0001106 0.0000470 -0.0004646 0.0006375 -0.0004456 0.0009404 -0.0011511 0.0000759 -0.0001555 0.0002762 -0.0005118 0.0014945 -0.0037228 0.0001315 -0.0001978 0.0002988 -0.0002963 0.0005595 0.0001521 -0.0003092 0.0001993 -0.0000452 -0.0000451 0.0001827 -0.0003578 -0.0001128 0.0001789 -0.0024346 0.0057771 0.0004750 0.0000015 0.0000680 0.0002144 -0.0001023 -0.0002539 -0.0180295 0.0166809 -0.0001121 -0.0002163 0.0000569 -0.0001901 -0.0014691 0.0023702 0.0073982 -0.0174186 -0.0002383 0.0000572 0.0002242 -0.0003995 0.0001532 -0.0001575 -0.0000383 -0.0000693 0.0000528 -0.0001371 0.0001828 -0.0004556 0.0000149 -0.0002581
0.0001734 -0.0002772 0.0002617 -0.0002806 0.0002930 -0.0000574 0.0000337 -0.0000541 0.0000758 0.0001094 -0.0000007 -0.0003057 0.0002775 -0.0002535 0.0001536 -0.0000337 0.0001809 -0.0004285 0.0002372 -0.0001636 0.0002577 -0.0001982 0.0001148 -0.0000155 0.0002682 -0.0003525 -0.0000042 -0.0000995 0.0001253 0.0002216 0.0000183 0.0002415 0.0001866 0.0000208 0.0003393 -0.0001580 0.0000117 0.0002774 0.0002255 0.0002226 0.0000621 -0.0000209 -0.0003318 -0.0000903 0.0001232 0.0001563 -0.0000300 0.0001873 0.0000613 -0.0003275 -0.0000413 0.0001695 -0.0000993 -0.0000218 0.0000597 0.0001674 -0.0002806 0.0002142 0.0001267 0.0000571 -0.0001041 0.0002466 0.0005125 -0.0004315 0.0000599 -0.0001849 0.0002837 -0.0004202 0.0002425 -0.0003401 -0.0004442 0.0013872 -0.0001415 0.0011816 -0.0043810 0.0053047 0.0002586 -0.0003181 0.0000720 -0.0000552 -0.0007916 0.0007004 -0.0000748 0.0000367 0.0000645 0.0004407 -0.0003492 0.0016036 -0.0003578 -0.0003782 0.0002291 -0.0002959 0.0006832 -0.0020173 0.0008418 -0.0005357 0.0004308 -0.0008247 0.0046806 -0.0056828 0.0006208 -0.0001280 -0.0028721 0.0028549 0.0001834 -0.0001957 -0.0000869 -0.0006407 -0.0000154 0.0011946 -0.0001390 0.0000567 -0.0002649 -0.0000133 -0.0002528 0.0003734 -0.0000997 0.0001386 0.0000046 0.0001040 0.0000618 -0.0002851 -0.0002733 0.0001185 0.0007280 -0.0007248 0.0012618 -0.0000644 0.0064394 0.0035998 -0.0129526 0.0127043 -0.0009023 0.0021063 0.0001130 -0.0000285 0.0000069 0.0011870 -0.0006600 0.0011068 -0.0001085 0.0002787 -0.0000039 -0.0001183 -0.0003269 0.0001548 0.0000670 -0.0000918 0.0015136 -0.0021159 0.0010745 -0.0004014 0.0015051 -0.0005675 0.0026185 -0.0025694 -0.0000044 -0.0000250 0.0000197 -0.0002443 0.0005978 -0.0004344 0.0004355 -0.0008325 0.0001457 -0.0001463 0.0000923 -0.0002850 -0.0002072 -0.0001915 0.0000883 -0.0001587 0.0002349 -0.0004715 -0.0015372 0.0025889 -0.0003492 0.0003239 -0.0000745 0.0000430 -0.0005286 0.0003792 -0.0003311 0.0002307 0.0052801 -0.0114668 0.0001160 0.0000714 0.0001439 0.0002467 -0.0000715 -0.0002184 -0.0113112 0.0203110 0.0004440 -0.0004249 0.0000253 -0.0001444 -0.0026811 0.0024640 0.0089449 -0.0153135 -0.0002052 0.0000498 0.0002268 -0.0001943 0.0001036 0.0000205 0.0000831 -0.0001040 -0.0002217 0.0001686 0.0002138 -0.0004450 0.0012039 -0.0012097
0.0002163 -0.0002986 0.0002728 -0.0002793 0.0002930 -0.0000726 0.0000314 -0.0001090 0.0000641 0.0000166 0.0000067 -0.0002558 0.0003037 -0.0003097 0.0001613 -0.0001077 0.0002012 -0.0004543 0.0002425 -0.0002017 0.0002041 -0.0002246 0.0001417 -0.0000590 0.0002693 -0.0004304 0.0000113 -0.0002054 0.0001370 0.0000786 -0.0000030 0.0000161 0.0001829 -0.0000513 0.0003425 -0.0002439 0.0000270 0.0001091 0.0001396 -0.0001033 0.0000445 -0.0000711 -0.0002227 -0.0001850 0.0001169 0.0000268 -0.0000331 0.0000189 0.0002058 -0.0004579 -0.0000641 0.0000743 -0.0000888 -0.0001364 0.0000392 0.0000921 -0.0002924 0.0001525 0.0001525 -0.0000688 -0.0001056 0.0001762 0.0004765 -0.0004948 0.0000429 -0.0001879 0.0003269 -0.0005778 -0.0001129 0.0003453 -0.0002483 0.0012177 -0.0004554 0.0011444 0.0024653 -0.0000056 0.0002365 -0.0004027 0.0001328 -0.0001079 0.0003723 -0.0009594 0.0003497 -0.0003895 0.0000661 0.0004256 -0.0003048 0.0015848 -0.0000967 -0.0005100 0.0002153 -0.0002840 -0.0017879 0.0008796 0.0012703 -0.0014262 0.0003853 -0.0008818 0.0026898 -0.0015269 0.0006925 -0.0001691 -0.0042210 -0.0022088 0.0001614 -0.0001311 -0.0004092 -0.0001815 -0.0000437 0.0011514 0.0001879 -0.0002739 -0.0002790 -0.0000010 -0.0003145 0.0002857 -0.0001060 0.0001294 -0.0001126 0.0002818 0.0001074 -0.0003844 0.0002976 -0.0001312 -0.0002053 -0.0005506 0.0013797 -0.0003991 0.0028989 0.0031358 -0.0010984 -0.0017711 -0.0019425 0.0027010 0.0003256 -0.0000471 -0.0026722 0.0034101 -0.0001738 0.0004745 -0.0001254 0.0003636 -0.0000285 -0.0000187 -0.0003889 0.0004442 0.0002038 -0.0002362 0.0021938 -0.0035926 0.0000440 -0.0003612 -0.0003341 -0.0004344 0.0011397 -0.0018735 -0.0000050 0.0000816 0.0004908 -0.0003376 0.0004355 -0.0003318 0.0008702 -0.0009892 0.0001961 -0.0001144 -0.0001241 -0.0000698 -0.0001794 0.0004660 0.0003918 -0.0002131 0.0000015 -0.0003728 -0.0004378 -0.0004990 0.0005489 -0.0005783 -0.0000994 0.0001096 -0.0002926 0.0001062 -0.0000777 0.0002501 0.0019705 -0.0030075 0.0002902 0.0000524 0.0000630 0.0003707 -0.0000312 0.0003524 -0.0133258 0.0205980 0.0002992 -0.0004255 0.0000021 -0.0000334 -0.0038914 0.0030787 0.0034132 -0.0041216 0.0017693 -0.0011870 0.0001964 0.0001860 0.0000539 0.0001365 0.0001550 -0.0001248 -0.0003039 0.0003088 0.0001963 -0.0002846 0.0009520 -0.0005264
0.0002105 -0.0002379 0.0002879 -0.0002683 0.0002759 -0.0000821 0.0000100 -0.0000756 0.0000627 0.0000289 0.0000569 -0.0000639 0.0003063 -0.0002739 0.0001368 -0.0001278 0.0002246 -0.0003347 0.0002377 -0.0001738 0.0002051 -0.0002209 0.0001286 -0.0000194 0.0002658 -0.0004347 0.0000353 -0.0000708 0.0001183 0.0001144 -0.0000097 0.0000763 0.0001727 0.0001027 0.0002995 -0.0001933 0.0000384 0.0001403 -0.0004146 0.0000419 0.0000362 0.0000347 -0.0002905 -0.0001379 -0.0000142 0.0001311 -0.0000269 0.0000306 0.0000694 -0.0003606 -0.0000400 0.0000877 -0.0001017 -0.0000794 0.0000116 0.0000644 -0.0002893 0.0002028 0.0001503 0.0000012 -0.0001287 0.0001836 0.0003029 -0.0003134 0.0000745 -0.0001866 0.0003512 -0.0004867 0.0006066 -0.0004961 -0.0000553 0.0009686 0.0003090 0.0005417 -0.0008248 0.0028959 0.0001768 -0.0003343 0.0001349 -0.0000418 0.0018024 -0.0028558 0.0005942 -0.0005497 0.0000574 0.0004605 0.0008219 0.0003667 0.0002814 -0.0006136 0.0002250 -0.0000983 -0.0024111 0.0015288 0.0011325 -0.0009509 -0.0000342 -0.0003150 0.0052883 -0.0039376 0.0006562 -0.0002160 -0.0046378 0.0013974 0.0001095 0.0000722 -0.0001628 -0.0002633 -0.0000773 0.0011213 -0.0000823 -0.0002800 -0.0002654 0.0000162 -0.0001929 0.0001749 -0.0001103 0.0001281 -0.0001403 0.0003025 0.0000614 -0.0003662 -0.0006481 0.0007483 -0.0009023 0.0004741 -0.0006212 0.0004915 0.0093772 -0.0116687 -0.0021322 -0.0042877 0.0015452 -0.0011787 0.0003568 -0.0001112 -0.0009465 0.0019397 -0.0008880 0.0011885 -0.0001575 0.0003464 -0.0000072 0.0000041 -0.0004101 0.0004245 0.0000582 -0.0000841 0.0005109 -0.0012845 0.0013130 -0.0013741 0.0024132 -0.0035759 -0.0014767 0.0005379 -0.0000129 0.0001230 -0.0006188 0.0007402 0.0004873 -0.0004773 0.0011144 -0.0012207 0.0001664 -0.0000598 -0.0000962 -0.0000703 -0.0012638 0.0011506 0.0003158 -0.0002044 0.0004364 -0.0004094 0.0000638 -0.0005737 0.0004846 -0.0004312 -0.0001036 0.0001051 0.0002510 -0.0008762 0.0001285 0.0000812 0.0053623 -0.0069153 0.0002375 0.0000741 0.0000215 0.0003633 -0.0001629 0.0003584 -0.0040700 -0.0013340 -0.0002174 0.0001143 0.0001126 -0.0000398 -0.0011836 0.0004244 -0.0018467 0.0035461 0.0012424 -0.0011879 -0.0000149 0.0005081 0.0000756 0.0001016 0.0001407 -0.0001499 -0.0000031 -0.0000332 0.0001272 -0.0002111 -0.0001601 0.0001425
0.0002003 -0.0002498 0.0003044 -0.0003235 0.0002606 -0.0001542 0.0000106 -0.0000570 0.0000769 -0.0000033 0.0000763 0.0000314 0.0002999 -0.0003092 0.0001224 -0.0002150 0.0002334 -0.0002478 0.0002192 -0.0001697 0.0002243 -0.0002826 0.0000893 0.0000047 0.0002724 -0.0004014 0.0000495 -0.0001153 0.0000965 0.0000982 -0.0000029 0.0001536 0.0001413 0.0001496 0.0002749 -0.0001999 0.0000324 0.0001580 -0.0007586 0.0006257 0.0000518 0.0000665 -0.0002836 -0.0001320 -0.0000907 0.0001632 -0.0000162 0.0001122 -0.0001931 -0.0002037 -0.0000200 0.0000758 -0.0001228 -0.0000237 0.0000644 -0.0000159 -0.0002870 0.0002395 0.0001512 0.0000386 -0.0001316 0.0001720 0.0002246 -0.0002270 0.0000759 -0.0001899 0.0002669 -0.0003794 0.0007101 -0.0008238 -0.0000272 0.0008861 0.0000387 0.0006107 0.0001615 0.0019437 0.0000420 -0.0001602 0.0000496 0.0001145 0.0002995 -0.0008280 0.0005414 -0.0005663 0.0000477 0.0005105 0.0014026 -0.0006414 0.0002102 -0.0004755 0.0002131 0.0000792 -0.0016334 0.0007658 0.0006265 -0.0004454 0.0005483 -0.0006114 0.0065706 -0.0061878 0.0002571 0.0000315 -0.0028682 0.0031939 0.0000859 0.0001646 -0.0000861 -0.0004718 -0.0001114 0.0011462 -0.0002122 -0.0001072 -0.0002694 0.0000702 -0.0003956 0.0005672 -0.0001276 0.0002063 -0.0000429 0.0001957 -0.0001007 -0.0002883 -0.0008825 0.0010351 0.0001112 -0.0000700 -0.0016538 0.0015132 0.0192674 -0.0259436 -0.0008828 0.0000906 0.0011796 -0.0024657 0.0001307 0.0001638 0.0012069 0.0003712 0.0005474 -0.0002008 -0.0002072 0.0004773 -0.0000458 0.0001646 -0.0001523 0.0001896 0.0001485 -0.0000797 0.0002279 0.0004732 0.0007585 -0.0006770 0.0009641 -0.0009384 -0.0012737 -0.0000075 -0.0001150 0.0002754 -0.0017345 0.0014566 -0.0000918 0.0002973 0.0010010 -0.0010905 0.0001207 0.0000634 -0.0000792 0.0001980 -0.0012398 0.0019573 0.0001800 -0.0002523 0.0004392 -0.0005879 -0.0030444 0.0029363 -0.0000237 0.0002617 -0.0000289 0.0001310 0.0003347 -0.0008558 0.0000558 0.0002938 0.0076885 -0.0122389 0.0002750 -0.0000756 0.0001110 0.0004017 -0.0003291 0.0005756 -0.0091920 0.0110810 -0.0000606 0.0003759 0.0001233 0.0000479 -0.0000965 -0.0000498 0.0065616 -0.0087849 -0.0023689 0.0019403 0.0005275 0.0000917 0.0000324 0.0002799 0.0001122 -0.0000034 0.0000192 0.0000790 0.0000871 -0.0000339 0.0001692 -0.0003590
0.0002033 -0.0001914 0.0003029 -0.0002731 0.0002409 -0.0000747 0.0000260 -0.0000381 0.0000773 0.0000117 0.0000441 0.0001755 0.0002988 -0.0002455 0.0001142 -0.0001745 0.0002214 -0.0001992 0.0001837 -0.0001308 0.0002004 -0.0001991 0.0000669 0.0000781 0.0001120 -0.0003136 0.0000476 -0.0000646 0.0000883 0.0001825 -0.0000081 0.0002246 0.0001145 0.0002285 0.0002590 -0.0001404 0.0000233 0.0002087 0.0005624 -0.0007747 0.0000406 0.0000954 -0.0002697 -0.0001240 -0.0000545 0.0000575 -0.0000150 0.0001033 -0.0002767 -0.0001848 -0.0000252 0.0000306 -0.0001192 -0.0000740 0.0000242 -0.0000046 -0.0003041 0.0002250 0.0001490 -0.0000146 -0.0001356 0.0001491 0.0002139 -0.0002793 -0.0000527 -0.0001166 0.0002651 -0.0004387 0.0000618 -0.0001939 0.0000872 0.0008694 -0.0006982 0.0011705 -0.0000539 0.0034769 0.0000806 -0.0002912 -0.0000253 0.0000693 -0.0000598 0.0007840 0.0003720 -0.0004300 0.0000692 0.0004790 0.0017936 -0.0008979 0.0002663 -0.0005313 0.0002658 -0.0000489 -0.0001179 -0.0009942 0.0000867 -0.0005408 0.0017408 -0.0017059 0.0074544 -0.0057746 -0.0001517 0.0002399 -0.0052095 0.0035978 0.0000618 0.0001067 -0.0002542 -0.0003217 -0.0000944 0.0010827 -0.0003143 0.0000230 -0.0002813 0.0000758 -0.0001575 0.0002447 -0.0001387 0.0001824 -0.0000610 0.0001361 -0.0000699 -0.0003182 -0.0002029 0.0000079 0.0007804 -0.0005244 0.0023376 -0.0013238 0.0084452 -0.0026301 0.0043968 0.0035194 -0.0016349 0.0020350 0.0001980 0.0001350 0.0016346 -0.0012740 0.0017688 -0.0016393 -0.0002676 0.0005025 -0.0001147 0.0002525 0.0000994 0.0000691 0.0003126 -0.0002022 0.0006431 0.0004198 -0.0011219 0.0008694 -0.0026821 0.0029697 -0.0002317 -0.0009336 -0.0000020 0.0002230 -0.0007366 0.0007172 -0.0004784 0.0007606 0.0009470 -0.0008580 0.0000976 0.0000439 0.0000747 0.0000397 -0.0026467 0.0036367 0.0002422 -0.0004716 0.0006734 -0.0006563 -0.0009402 0.0008285 0.0005292 -0.0001806 0.0000302 0.0001250 -0.0000731 -0.0000047 -0.0001823 0.0004335 -0.0013298 0.0000789 0.0004179 -0.0001007 0.0001470 0.0002805 -0.0000726 0.0005318 -0.0007297 0.0062439 0.0003793 -0.0002146 0.0000994 0.0000766 -0.0008182 0.0014189 0.0126094 -0.0211625 -0.0017994 0.0020234 0.0010073 -0.0003889 0.0000444 0.0002537 0.0001481 0.0000158 0.0000285 0.0001864 0.0000442 0.0000539 0.0002893 -0.0005336
0.0001946 -0.0001713 0.0003006 -0.0002617 0.0002321 -0.0000454 0.0000326 -0.0000392 0.0000827 -0.0000175 0.0000051 0.0001914 0.0003060 -0.0002321 0.0001070 -0.0001998 0.0002088 -0.0001829 0.0001939 -0.0001367 0.0001883 -0.0001470 0.0000499 0.0001169 0.0001411 -0.0003614 0.0000450 -0.0000076 0.0000847 0.0002394 -0.0000160 0.0003178 0.0000890 0.0003226 0.0002287 -0.0000530 0.0000144 0.0002755 0.0005763 -0.0011134 0.0000406 0.0001411 -0.0003039 -0.0000456 -0.0000534 0.0000794 -0.0000209 0.0001469 -0.0002246 -0.0001320 -0.0000610 0.0001030 -0.0001241 -0.0000380 -0.0000074 0.0000483 -0.0003200 0.0002384 0.0001460 0.0000431 -0.0001410 0.0001456 0.0002361 -0.0001949 -0.0000539 -0.0001248 0.0002054 -0.0002707 -0.0002148 0.0002234 0.0000110 0.0009868 -0.0005190 0.0012949 -0.0170753 0.0155319 0.0002147 -0.0003591 0.0000107 0.0000382 0.0009800 -0.0002063 0.0001782 -0.0001014 0.0000758 0.0005315 0.0003984 0.0005409 0.0001726 -0.0002101 0.0002533 0.0000744 0.0002675 0.0010710 0.0004999 -0.0004464 0.0007246 -0.0010340 0.0059490 -0.0044425 0.0001331 0.0002327 -0.0173841 0.0223554 0.0001467 0.0001600 -0.0002219 -0.0002516 -0.0000805 0.0011058 -0.0005699 0.0001688 -0.0002759 0.0000976 -0.0001213 0.0002498 -0.0001313 0.0002444 -0.0001932 0.0003812 -0.0002847 -0.0001045 -0.0002392 0.0001097 0.0014524 -0.0007199 0.0038167 -0.0025837 -0.0083437 0.0185202 0.0044346 0.0061550 0.0018259 -0.0011208 0.0002467 0.0002992 0.0012026 -0.0019198 0.0016592 -0.0017351 -0.0002397 0.0005959 -0.0000828 0.0003243 -0.0000376 0.0000539 0.0001629 -0.0000293 -0.0007420 0.0012360 -0.0007251 0.0005854 -0.0015067 0.0012752 -0.0014914 0.0012332 -0.0000362 0.0002769 -0.0008006 0.0004897 -0.0001815 0.0005345 -0.0000701 0.0002610 0.0001663 -0.0000303 0.0001330 -0.0001208 -0.0029210 0.0025704 0.0002666 -0.0002930 0.0001620 0.0002919 -0.0020688 0.0012391 0.0007252 -0.0004512 0.0000217 0.0001961 -0.0004636 0.0003250 0.0003336 -0.0003171 0.0065205 -0.0137031 -0.0000572 0.0004257 0.0001043 0.0002580 0.0003647 0.0004377 0.0015752 -0.0044825 0.0005871 -0.0002981 0.0001304 0.0000649 -0.0014272 0.0017728 0.0099804 -0.0143336 -0.0019276 0.0019537 0.0004362 0.0001793 0.0000644 0.0001184 0.0002044 -0.0000813 0.0000986 0.0001142 0.0000921 -0.0001200 -0.0002597 0.0000959
0.0001953 -0.0002295 0.0003085 -0.0003264 0.0002362 -0.0001305 0.0000227 -0.0000710 0.0000833 -0.0001478 0.0000140 0.0000315 0.0003141 -0.0003412 0.0001137 -0.0003540 0.0002152 -0.0002126 0.0001964 -0.0001971 0.0001807 -0.0002261 0.0000460 0.0000627 0.0002913 -0.0005336 0.0000515 -0.0001556 0.0000946 0.0001191 -0.0000234 0.0002206 0.0000761 0.0002211 0.0002253 -0.0001173 -0.0000118 0.0002010 -0.0001955 -0.0001222 0.0000377 0.0001021 -0.0000751 -0.0001936 -0.0001437 0.0001907 -0.0000237 0.0001213 -0.0000800 -0.0002010 -0.0001066 0.0001360 -0.0001274 -0.0000465 0.0000333 -0.0000064 -0.0003430 0.0001547 0.0001258 0.0000436 -0.0001543 0.0000712 0.0002629 -0.0001724 0.0000311 -0.0002526 0.0000776 -0.0002370 -0.0004385 0.0003588 -0.0000698 0.0010310 0.0002595 0.0006728 -0.0079349 0.0053558 0.0001033 -0.0002506 0.0001523 -0.0001633 0.0011956 -0.0020603 0.0001142 -0.0001407 0.0000459 0.0005435 -0.0001132 0.0005248 0.0001179 -0.0001631 0.0000397 0.0003375 -0.0000475 0.0019100 0.0003476 0.0000512 -0.0012099 0.0004604 0.0011761 -0.0027456 -0.0003220 0.0006841 -0.0092672 0.0144730 0.0001493 0.0001881 -0.0002801 -0.0001607 -0.0000978 0.0011567 -0.0003151 0.0002542 -0.0002603 0.0000848 -0.0002346 0.0004338 -0.0001524 0.0002935 -0.0001382 0.0003483 -0.0003864 -0.0000642 -0.0001415 0.0004703 0.0003598 -0.0000919 0.0016597 -0.0010156 -0.0028437 -0.0022693 0.0026708 -0.0003896 0.0035954 -0.0055662 0.0000630 0.0004904 -0.0002385 -0.0001367 0.0006118 -0.0008958 -0.0001747 0.0005914 -0.0001466 0.0004168 -0.0002765 0.0002437 0.0001111 0.0000854 -0.0009560 0.0019918 -0.0007306 0.0004994 -0.0001156 -0.0001729 0.0000667 0.0004387 -0.0001285 0.0003503 -0.0006111 0.0004064 -0.0001828 0.0005834 -0.0006987 0.0006578 0.0002435 -0.0000801 0.0001163 0.0000175 0.0007306 -0.0012223 0.0003123 -0.0001828 0.0001079 -0.0000254 -0.0056129 0.0037594 -0.0002131 0.0003123 0.0000392 0.0003098 -0.0001929 0.0000765 0.0005549 -0.0007100 0.0036508 -0.0034058 -0.0000136 0.0005712 0.0001677 0.0001548 0.0002078 0.0007333 -0.0116848 0.0074274 0.0005627 -0.0000040 0.0001281 0.0001075 0.0002724 -0.0002478 0.0106819 -0.0141567 -0.0020124 0.0014683 0.0002707 0.0001567 -0.0000108 0.0002558 0.0001511 -0.0000363 -0.0000442 0.0003743 0.0001278 -0.0000651 -0.0002236 0.0000880
0.0001935 -0.0002137 0.0003297 -0.0003042 0.0002430 -0.0001152 0.0000162 -0.0000508 0.0000636 -0.0001567 0.0000215 0.0000723 0.0003035 -0.0002903 0.0001074 -0.0003558 0.0002046 -0.0001848 0.0001778 -0.0001510 0.0001802 -0.0001729 0.0000138 0.0001473 0.0002630 -0.0005396 0.0000532 -0.0000740 0.0000937 0.0001911 -0.0000367 0.0002368 0.0000865 0.0003000 0.0002079 -0.0000653 -0.0000352 0.0002724 -0.0007188 0.0005759 0.0000173 0.0001872 0.0000988 -0.0002297 -0.0001341 0.0002332 -0.0000239 0.0001088 -0.0000546 -0.0002582 -0.0000923 0.0001764 -0.0001169 -0.0000145 0.0000606 -0.0000405 -0.0003624 0.0001225 0.0001016 0.0000852 -0.0001749 0.0000354 0.0002458 -0.0001635 -0.0000273 -0.0001940 -0.0000005 -0.0001100 -0.0000314 -0.0001003 0.0000780 0.0008618 0.0000692 0.0005713 0.0098673 -0.0110883 0.0000664 -0.0002392 0.0000791 -0.0000519 0.0008896 -0.0010394 0.0002499 -0.0003181 0.0000308 0.0005029 0.0000942 0.0006127 0.0002563 -0.0003061 -0.0000268 0.0003100 -0.0013238 0.0004332 0.0011419 -0.0006596 -0.0007953 0.0002959 -0.0060425 0.0004078 -0.0006479 0.0007957 -0.0100405 0.0054773 -0.0000375 0.0002645 -0.0003079 -0.0000583 -0.0001113 0.0011259 -0.0000937 0.0000350 -0.0002638 0.0000693 -0.0002436 0.0003963 -0.0001800 0.0002551 -0.0001621 0.0002848 -0.0002332 -0.0002464 -0.0005506 0.0006491 0.0000623 -0.0003641 0.0016742 -0.0009920 0.0090447 -0.0178509 0.0015959 -0.0006011 -0.0042476 0.0022838 -0.0000942 0.0003856 0.0020478 -0.0020501 -0.0012302 0.0005715 -0.0001180 0.0003933 -0.0002897 0.0004782 -0.0004050 0.0006371 -0.0000158 0.0002546 0.0007436 0.0000733 0.0003897 -0.0003603 0.0008569 0.0013833 0.0009009 -0.0008161 -0.0000232 0.0002310 0.0002405 0.0000298 -0.0002365 0.0005446 -0.0005402 -0.0000617 0.0001690 -0.0000673 0.0000520 0.0001263 -0.0050937 0.0051698 0.0003601 -0.0003840 0.0007063 -0.0003940 -0.0020103 0.0017854 -0.0001331 0.0004516 -0.0000224 0.0003630 0.0002090 -0.0000825 0.0004072 -0.0006007 -0.0032427 0.0117716 0.0004172 0.0002263 0.0001848 -0.0000605 0.0003735 0.0002017 -0.0030998 0.0081818 0.0005390 0.0003466 0.0001256 0.0001147 0.0000148 -0.0005526 0.0043715 -0.0040698 -0.0006995 0.0003839 0.0000185 0.0003865 -0.0000711 0.0003295 0.0000854 -0.0000029 -0.0001797 0.0002993 0.0000809 0.0000281 0.0007840 -0.0009548
