-0.0000000 -0.0000000 -0.0000000 -0.0000000 -0.0000000 -0.0000000 -0.0000000 -0.0000000 -0.0000000 -0.0000000 -0.0000000 -0.0000000 -0.0000000 -0.0000000 -0.0000000 -0.0000000 -0.0000000 -0.0000000 -0.0000000 -0.0000000 -0.0000000 -0.0000000 -0.0000000 -0.0000000 -0.0000000 -0.0000000 -0.0000000 -0.0000000 -0.0000000 -0.0000000 -0.0000000 -0.0000000 -0.0000000 -0.0000000 -0.0000000 -0.0000000 -0.0000000 -0.0000000 -0.0000000 -0.0000000 -0.0000000 -0.0000000 -0.0000000 -0.0000000 -0.0000000 -0.0000000 -0.0000000 -0.0000000 -0.0000000 -0.0000000 -0.0000000 -0.0000000 -0.0000000 -0.0000000 -0.0000000 -0.0000000 -0.0000000 -0.0000000 -0.0000000 -0.0000000 -0.0000000 -0.0000000 -0.0000000 -0.0000000 -0.0000000 -0.0000000 -0.0000000 -0.0000000 -0.0000000 -0.0000000 -0.0000000 -0.0000000 -0.0000000 -0.0000000 -0.0000000 -0.0000000 -0.0000000 -0.0000000 -0.0000000 -0.0000000 -0.0000000 -0.0000000 -0.0000000 -0.0000000 -0.0000000 -0.0000000 -0.0000000 -0.0000000 -0.0000000 -0.0000000 -0.0000000 -0.0000000 -0.0000000 -0.0000000 -0.0000000 -0.0000000 -0.0000000 -0.0000000 -0.0000000 -0.0000000 -0.0000000 -0.0000000 -0.0000000 -0.0000000 -0.0000000 -0.0000000 -0.0000000 -0.0000000 -0.0000000 -0.0000000 -0.0000000 -0.0000000 -0.0000000 -0.0000000 -0.0000000 -0.0000000 -0.0000000 -0.0000000 -0.0000000 -0.0000000 -0.0000000 -0.0000000 -0.0000000 -0.0000000 -0.0000000 -0.0000000 -0.0000000 -0.0000000 -0.0000000 -0.0000000 -0.0000000 -0.0000000 -0.0000000 -0.0000000 -0.0000000 -0.0000000 -0.0000000 -0.0000000 -0.0000000 -0.0000000 -0.0000000 -0.0000000 -0.0000000 -0.0000000 -0.0000000 -0.0000000 -0.0000000 -0.0000000 -0.0000000 -0.0000000 -0.0000000 -0.0000000 -0.0000000 -0.0000000 -0.0000000 -0.0000000 -0.0000000 -0.0000000 -0.0000000 -0.0000000 -0.0000000 -0.0000000 -0.0000000 -0.0000000 -0.0000000 -0.0000000 -0.0000000 -0.0000000 -0.0000000 -0.0000000 -0.0000000 -0.0000000 -0.0000000 -0.0000000 -0.0000000 -0.0000000 -0.0000000 -0.0000000 -0.0000000 -0.0000000 -0.0000000 -0.0000000 -0.0000000 -0.0000000 -0.0000000 -0.0000000 -0.0000000 -0.0000000 -0.0000000 -0.0000000 -0.0000000 -0.0000000 -0.0000000 -0.0000000 -0.0000000 -0.0000000 -0.0000000 -0.0000000 -0.0000000 -0.0000000 -0.0000000 -0.0000000 -0.0000000 -0.0000000 -0.0000000 -0.0000000 -0.0000000 -0.0000000 -0.0000000 -0.0000000 -0.0000000 -0.0000000 -0.0000000 -0.0000000 -0.0000000 -0.0000000
-0.0000000 -0.0000000 -0.0000000 -0.0000000 -0.0000000 -0.0000000 -0.0000000 -0.0000000 -0.0000000 -0.0000000 -0.0000000 -0.0000000 -0.0000000 -0.0000000 -0.0000000 -0.0000000 -0.0000000 -0.0000000 -0.0000000 -0.0000000 -0.0000000 -0.0000000 -0.0000000 -0.0000000 -0.0000000 -0.0000000 -0.0000000 -0.0000000 -0.0000000 -0.0000000 -0.0000000 -0.0000000 -0.0000000 -0.0000000 -0.0000000 -0.0000000 -0.0000000 -0.0000000 -0.0000000 -0.0000000 -0.0000000 -0.0000000 -0.0000000 -0.0000000 -0.0000000 -0.0000000 -0.0000000 -0.0000000 -0.0000000 -0.0000000 -0.0000000 -0.0000000 -0.0000000 -0.0000000 -0.0000000 -0.0000000 -0.0000000 -0.0000000 -0.0000000 -0.0000000 -0.0000000 -0.0000000 -0.0000000 -0.0000000 -0.0000000 -0.0000000 -0.0000000 -0.0000000 -0.0000000 -0.0000000 -0.0000000 -0.0000000 -0.0000000 -0.0000000 -0.0000000 -0.0000000 -0.0000000 -0.0000000 -0.0000000 -0.0000000 -0.0000000 -0.0000000 -0.0000000 -0.0000000 -0.0000000 -0.0000000 -0.0000000 -0.0000000 -0.0000000 -0.0000000 -0.0000000 -0.0000000 -0.0000000 -0.0000000 -0.0000000 -0.0000000 -0.0000000 -0.0000000 -0.0000000 -0.0000000 -0.0000000 -0.0000000 -0.0000000 -0.0000000 -0.0000000 -0.0000000 -0.0000000 -0.0000000 -0.0000000 -0.0000000 -0.0000000 -0.0000000 -0.0000000 -0.0000000 -0.0000000 -0.0000000 -0.0000000 -0.0000000 -0.0000000 -0.0000000 -0.0000000 -0.0000000 -0.0000000 -0.0000000 -0.0000000 -0.0000000 -0.0000000 -0.0000000 -0.0000000 -0.0000000 -0.0000000 -0.0000000 -0.0000000 -0.0000000 -0.0000000 -0.0000000 -0.0000000 -0.0000000 -0.0000000 -0.0000000 -0.0000000 -0.0000000 -0.0000000 -0.0000000 -0.0000000 -0.0000000 -0.0000000 -0.0000000 -0.0000000 -0.0000000 -0.0000000 -0.0000000 -0.0000000 -0.0000000 -0.0000000 -0.0000000 -0.0000000 -0.0000000 -0.0000000 -0.0000000 -0.0000000 -0.0000000 -0.0000000 -0.0000000 -0.0000000 -0.0000000 -0.0000000 -0.0000000 -0.0000000 -0.0000000 -0.0000000 -0.0000000 -0.0000000 -0.0000000 -0.0000000 -0.0000000 -0.0000000 -0.0000000 -0.0000000 -0.0000000 -0.0000000 -0.0000000 -0.0000000 -0.0000000 -0.0000000 -0.0000000 -0.0000000 -0.0000000 -0.0000000 -0.0000000 -0.0000000 -0.0000000 -0.0000000 -0.0000000 -0.0000000 -0.0000000 -0.0000000 -0.0000000 -0.0000000 -0.0000000 -0.0000000 -0.0000000 -0.0000000 -0.0000000 -0.0000000 -0.0000000 -0.0000000 -0.0000000 -0.0000000 -0.0000000 -0.0000000 -0.0000000 -0.0000000 -0.0000000 -0.0000000 -0.0000000
-0.0001047 0.0001011 -0.0000006 0.0000034 -0.0000260 0.0000520 0.0000049 0.0000268 0.0000058 0.0000122 -0.0000460 -0.0000120 0.0000062 -0.0000452 -0.0000087 -0.0000091 -0.0000228 0.0000162 0.0000377 -0.0000580 0.0000696 -0.0000911 0.0000156 -0.0000489 0.0000061 -0.0000243 0.0000062 -0.0000189 0.0000095 -0.0000476 0.0000014 0.0000099 0.0000356 -0.0000340 -0.0000146 -0.0000162 0.0000200 -0.0000061 -0.0000231 0.0002310 0.0000083 -0.0000402 0.0001358 -0.0001180 -0.0000187 -0.0000252 0.0000262 -0.0001192 0.0001832 -0.0001577 0.0034963 -0.0098463 -0.0041887 0.0034425 -0.0000700 0.0000017 0.0000152 0.0000199 0.0000125 -0.0000695 0.0000250 -0.0000748 0.0000561 -0.0000752 0.0000107 -0.0000792 -0.0000056 -0.0000374 -0.0000811 0.0000163 -0.0000003 0.0000141 -0.0000268 0.0000382 0.0000277 -0.0000410 0.0000475 -0.0000019 -0.0000443 0.0000772 0.0001509 -0.0001138 0.0001328 -0.0001979 -0.0000027 -0.0000276 -0.0000098 -0.0000028 -0.0000038 -0.0000006 -0.0000157 -0.0000056 -0.0002420 0.0001591 -0.0003157 0.0002554 0.0000460 -0.0000953 0.0000173 -0.0000422 -0.0000361 -0.0000197 -0.0000474 -0.0000132 0.0000283 -0.0000586 0.0002684 -0.0002313 0.0000357 -0.0000289 -0.0000409 0.0000605 0.0000275 -0.0000286 0.0000074 -0.0000284 -0.0000113 -0.0000241 0.0000812 -0.0001686 0.0000384 -0.0001546 -0.0000168 -0.0000679 0.0003965 -0.0002783 0.0000313 -0.0001266 0.0000529 -0.0000942 -0.0000294 -0.0000648 0.0000030 -0.0000913 0.0000115 -0.0001381 -0.0000743 -0.0000224 0.0000656 -0.0002371 -0.0000002 -0.0000982 -0.0000224 -0.0001392 0.0000231 -0.0000808 0.0000121 -0.0001222 -0.0002566 -0.0001395 -0.0000451 -0.0000769 0.0000295 -0.0000971 -0.0000968 -0.0000969 0.0000622 -0.0000960 -0.0024327 0.0016097 -0.0000391 0.0000272 0.0001627 -0.0002497 0.0000148 -0.0001401 0.0000015 -0.0001556 0.0000259 -0.0001572 -0.0000213 -0.0000483 -0.0000070 -0.0001511 -0.0000031 -0.0001237 -0.0000836 -0.0000382 0.0000270 -0.0000909 0.0000757 -0.0001056 0.0000639 -0.0001920 0.0000159 -0.0003502 -0.0000724 -0.0000936 -0.0000465 -0.0000061 -0.0000193 0.0000058 0.0002362 -0.0002915 0.0001113 -0.0001643 0.0000171 -0.0000102 0.0000183 -0.0000496 0.0000229 -0.0000338 0.0000170 -0.0000211 0.0003534 -0.0003340 0.0000042 0.0000136 0.0000184 0.0000027 -0.0000247 0.0000422 0.0000073 0.0000255 0.0000490 -0.0000566
0.0000117 -0.0000322 -0.0000085 -0.0000106 -0.0000554 0.0000613 -0.0000120 0.0000156 0.0000133 0.0000397 -0.0001532 0.0000549 -0.0000452 0.0000297 -0.0000394 -0.0000913 0.0000224 0.0000091 0.0000207 -0.0000715 -0.0000936 0.0000766 0.0000612 -0.0000933 -0.0000131 -0.0000693 0.0000109 0.0000246 0.0000057 -0.0000241 0.0000110 0.0000302 0.0000180 -0.0000096 0.0000502 -0.0000133 0.0000226 0.0000229 -0.0002796 -0.0001235 0.0000081 -0.0000056 -0.0000068 0.0000712 0.0000122 -0.0000089 0.0000306 -0.0001634 0.0002102 -0.0001582 0.0021306 -0.0064731 -0.0012848 0.0015017 0.0000354 0.0000626 -0.0000315 0.0001492 -0.0000136 0.0001035 -0.0000294 0.0000868 -0.0000130 -0.0000161 0.0000011 -0.0000992 -0.0000177 -0.0000148 -0.0000680 -0.0001154 -0.0000040 0.0000692 0.0000525 0.0000348 -0.0000277 0.0000838 0.0000178 -0.0000433 0.0000475 -0.0000112 -0.0001188 0.0000574 -0.0000151 0.0001203 0.0000576 0.0000561 -0.0000373 0.0001425 0.0003563 -0.0003246 0.0000192 0.0000424 -0.0001137 0.0000086 -0.0002105 0.0000623 0.0000302 -0.0000977 0.0000463 0.0000310 -0.0000066 0.0001062 -0.0000793 0.0001512 -0.0000080 0.0000645 0.0000916 -0.0001748 0.0002146 -0.0000383 -0.0002472 0.0002674 -0.0000190 0.0000733 -0.0000156 0.0000431 -0.0000313 0.0000448 0.0001061 -0.0001381 -0.0000019 -0.0001411 -0.0000253 0.0000252 0.0001653 0.0000920 0.0000130 -0.0000284 0.0000384 -0.0000365 -0.0000177 0.0000415 0.0000091 -0.0000116 0.0000939 -0.0001414 0.0004157 -0.0005075 -0.0001722 0.0000343 -0.0000168 -0.0000083 -0.0000626 0.0000229 -0.0000640 0.0000518 0.0000226 -0.0000276 0.0003493 -0.0005053 -0.0000083 -0.0000356 0.0000130 -0.0001320 -0.0000155 0.0000149 0.0001019 -0.0000518 -0.0035981 0.0032628 -0.0000127 0.0000189 0.0005308 -0.0006598 -0.0000251 -0.0000615 0.0000012 -0.0000987 0.0000241 -0.0001101 0.0000528 -0.0001242 0.0000340 -0.0000996 0.0000102 -0.0000411 0.0000575 -0.0000646 0.0000214 -0.0000510 -0.0000307 0.0000310 0.0001256 -0.0001272 0.0001309 -0.0000904 0.0001745 -0.0001748 -0.0000982 0.0000835 -0.0000331 0.0000420 0.0002158 -0.0000602 -0.0000953 0.0001461 0.0000062 0.0000355 0.0000136 -0.0000013 -0.0000008 0.0000559 0.0000172 0.0000108 0.0001071 -0.0000896 0.0000005 0.0000876 0.0000121 0.0001189 -0.0000424 0.0000717 0.0000099 0.0000996 -0.0000420 0.0001127
0.0000195 0.0000122 -0.0000251 0.0000469 -0.0000819 0.0001670 0.0000067 -0.0000222 0.0000149 0.0000605 0.0000897 -0.0000720 -0.0000875 0.0000486 -0.0000486 -0.0000990 0.0000325 -0.0000108 -0.0000396 0.0000244 -0.0002001 0.0001815 0.0000373 -0.0000360 0.0000433 -0.0001197 0.0000188 0.0000559 0.0000297 -0.0000767 0.0000173 0.0000544 -0.0000249 0.0000489 0.0000308 0.0001239 -0.0000047 0.0000428 -0.0006214 0.0004964 0.0000025 0.0000281 0.0000844 -0.0000527 0.0000161 0.0000083 0.0000348 -0.0002114 -0.0001676 0.0001325 -0.0018437 0.0020731 0.0020212 -0.0004882 0.0003057 -0.0003029 -0.0000122 0.0000665 -0.0001051 -0.0000199 -0.0000757 0.0000498 0.0000017 -0.0000708 -0.0000376 -0.0001402 -0.0000789 -0.0000171 -0.0000566 -0.0001573 -0.0000029 -0.0000063 0.0001244 -0.0002076 -0.0000125 0.0000112 0.0002435 -0.0002591 0.0001335 -0.0003235 -0.0003921 0.0001447 -0.0003054 0.0001195 0.0000635 -0.0001443 -0.0000618 0.0000352 0.0002126 -0.0002053 0.0000194 -0.0000838 0.0000461 -0.0002027 -0.0003260 -0.0000730 -0.0000364 -0.0001144 -0.0000558 -0.0000707 -0.0000426 -0.0000913 -0.0000157 0.0000388 -0.0000060 -0.0000754 0.0001587 -0.0000534 0.0000851 -0.0000571 -0.0002709 0.0001464 -0.0000135 0.0000687 -0.0000042 0.0000046 -0.0000064 -0.0000295 -0.0000817 -0.0000358 0.0000060 -0.0002358 0.0000112 -0.0000837 -0.0001454 0.0000690 0.0000253 -0.0000130 0.0000359 -0.0000611 -0.0000178 0.0000180 -0.0000013 -0.0000459 0.0000547 -0.0000791 -0.0000141 -0.0002840 -0.0001045 0.0000058 -0.0000665 0.0000935 -0.0000355 0.0000928 -0.0000963 0.0001008 -0.0000089 0.0000737 0.0007209 -0.0009514 0.0000019 -0.0000049 -0.0001133 -0.0000268 -0.0000973 0.0001858 0.0000589 0.0000326 0.0043928 -0.0020615 -0.0000054 0.0000283 0.0001511 -0.0002488 -0.0000279 -0.0000171 -0.0000303 -0.0000353 -0.0000080 -0.0000710 0.0001101 -0.0001548 0.0000416 0.0000016 0.0000243 0.0000607 0.0001886 -0.0002155 0.0000200 -0.0000062 -0.0000794 0.0001039 0.0000289 -0.0000327 -0.0000444 0.0001790 0.0001728 -0.0000469 0.0000073 0.0000416 -0.0000185 0.0000772 -0.0002693 0.0004111 -0.0000651 0.0002468 -0.0000763 0.0001496 -0.0000149 0.0001099 -0.0000261 0.0001610 -0.0000102 0.0000858 -0.0000826 0.0000920 -0.0000115 0.0001868 0.0000303 0.0002079 -0.0001396 0.0002372 0.0000261 0.0001712 -0.0000222 0.0002172
-0.0000037 0.0001009 -0.0000229 0.0001055 -0.0000218 0.0001801 -0.0000080 0.0000379 0.0000081 0.0001167 0.0000306 0.0000624 -0.0000615 0.0000779 -0.0000978 -0.0001702 0.0000345 0.0000264 -0.0000293 0.0000744 -0.0000336 0.0001085 -0.0000511 0.0001262 0.0000962 -0.0001041 0.0000187 0.0001433 -0.0000120 -0.0000257 0.0000180 0.0000633 -0.0000746 0.0001131 -0.0000129 0.0002851 -0.0000338 0.0000992 -0.0010602 0.0012980 -0.0000087 0.0001529 -0.0000537 0.0001508 0.0000474 0.0000916 0.0000333 -0.0001921 0.0000681 -0.0000486 -0.0016231 0.0004313 0.0004625 -0.0004435 0.0002755 -0.0001038 -0.0000038 0.0001258 -0.0000924 0.0001848 -0.0000327 0.0000688 0.0000698 -0.0000600 -0.0000688 -0.0000632 -0.0000621 0.0000658 -0.0001044 -0.0000761 0.0000041 0.0000306 0.0000776 -0.0000593 -0.0000075 0.0000631 0.0001668 -0.0000958 -0.0000456 -0.0000959 -0.0000901 -0.0001455 -0.0000770 0.0000546 0.0000597 0.0000208 -0.0000315 0.0000975 -0.0001416 0.0001096 -0.0000294 0.0000318 0.0001202 -0.0001625 -0.0003593 0.0001592 0.0000391 -0.0001823 -0.0000475 -0.0000210 -0.0000412 0.0000413 0.0000142 0.0000192 -0.0000116 0.0000202 0.0001988 0.0000228 0.0000531 0.0000376 0.0001747 -0.0002097 0.0000444 0.0000789 0.0000389 0.0000303 -0.0000265 0.0000224 -0.0000508 0.0000946 -0.0001076 -0.0001480 -0.0000731 0.0000647 -0.0001453 0.0001833 0.0000695 0.0000380 0.0000216 -0.0000179 -0.0000332 0.0001241 -0.0000721 0.0000376 -0.0000257 0.0000007 0.0000446 -0.0001971 -0.0000998 0.0000807 -0.0000816 0.0001684 -0.0000039 0.0001293 -0.0000553 0.0001004 -0.0000753 0.0002094 -0.0006310 0.0002226 -0.0000327 0.0001071 -0.0001517 0.0000116 0.0000146 0.0001891 -0.0000213 0.0001853 0.0053072 -0.0049249 -0.0000638 0.0001171 0.0000135 -0.0000288 -0.0000011 0.0000394 -0.0000329 0.0000453 -0.0000231 -0.0000219 0.0000641 -0.0000531 0.0000825 0.0000686 0.0000748 0.0000766 0.0000629 -0.0000895 0.0000002 0.0000526 -0.0000804 0.0001174 0.0001444 -0.0001545 0.0005275 -0.0000590 -0.0000807 0.0002939 0.0000396 0.0000728 -0.0000333 0.0001537 -0.0008099 0.0009002 0.0000616 0.0002692 -0.0000403 0.0001650 -0.0000035 0.0001370 0.0000020 0.0001877 -0.0000387 0.0001328 -0.0000148 0.0001241 -0.0000252 0.0001923 0.0000076 0.0002641 -0.0001668 0.0002380 0.0000206 0.0002011 0.0000546 0.0001300
0.0000612 0.0000595 -0.0000124 0.0001062 -0.0000049 0.0001049 -0.0000606 0.0000118 -0.0000083 -0.0000841 -0.0001824 0.0002663 -0.0000452 -0.0000846 0.0000873 0.0002198 0.0000205 0.0000263 -0.0000028 -0.0001093 0.0000484 -0.0001013 -0.0000231 -0.0000034 0.0000257 -0.0001428 0.0000195 -0.0001154 -0.0000028 -0.0000868 0.0000227 -0.0001621 -0.0000290 0.0000484 -0.0000258 0.0001495 -0.0000034 -0.0000968 0.0003371 -0.0003929 -0.0000063 0.0000007 -0.0002548 0.0001367 0.0000631 -0.0001188 0.0000081 0.0000759 0.0001065 -0.0002513 0.0014085 -0.0074903 0.0028520 -0.0027646 0.0000225 0.0000274 -0.0000216 0.0000324 -0.0000689 0.0000861 -0.0000084 -0.0000960 0.0000209 -0.0000854 -0.0000898 -0.0001351 -0.0000289 -0.0000778 -0.0001653 -0.0001124 0.0000126 -0.0000094 -0.0000307 0.0000425 -0.0000258 0.0000615 -0.0000625 0.0000499 -0.0001238 -0.0000003 0.0001712 -0.0003779 0.0000109 -0.0001053 0.0000410 0.0000986 0.0000039 0.0001001 -0.0001039 -0.0001045 -0.0001024 0.0001645 0.0001123 -0.0002453 0.0000242 -0.0002812 -0.0000527 -0.0000367 0.0002227 -0.0001745 -0.0000798 0.0001654 -0.0000047 0.0000097 -0.0000347 0.0000432 0.0004509 -0.0004032 0.0000769 0.0001131 0.0000251 -0.0001211 -0.0000134 0.0001210 0.0000399 0.0000921 0.0000094 0.0000269 -0.0000450 0.0001141 -0.0001171 -0.0000579 -0.0000975 0.0001449 -0.0002508 0.0005001 0.0000534 0.0000753 -0.0000352 0.0000675 -0.0000244 0.0001526 -0.0000842 0.0001342 -0.0000191 0.0000355 0.0009778 -0.0010062 -0.0001380 0.0002036 -0.0000766 0.0002020 -0.0000399 0.0002112 -0.0000725 0.0001406 -0.0000521 0.0002189 -0.0012091 0.0004666 -0.0000299 0.0001691 0.0000242 -0.0001081 -0.0000659 0.0003268 0.0000647 0.0002471 -0.0043936 -0.0030635 -0.0001175 0.0001752 -0.0003089 0.0004346 -0.0000023 0.0000902 0.0000013 0.0000840 -0.0001059 0.0001076 -0.0000318 0.0000833 0.0000617 0.0001614 0.0000782 0.0001459 -0.0001136 0.0002984 -0.0000125 0.0001010 -0.0001322 0.0001938 -0.0000319 0.0001570 0.0000073 0.0004120 -0.0000320 0.0003039 -0.0000774 0.0002144 -0.0000385 0.0001941 -0.0005150 0.0007947 0.0000057 0.0003505 -0.0001406 0.0003216 -0.0000098 0.0002505 -0.0000020 0.0002771 -0.0000384 0.0001681 -0.0001724 0.0003349 -0.0000358 0.0002981 0.0000143 0.0003596 -0.0001613 0.0003049 0.0000035 0.0003036 0.0001065 0.0001056
-0.0000440 0.0001809 -0.0000249 0.0002111 -0.0000134 0.0002409 -0.0001099 0.0000883 -0.0000184 -0.0000219 -0.0000721 0.0001661 -0.0000496 -0.0000317 0.0000378 0.0001599 -0.0000402 0.0001550 -0.0000285 0.0000270 0.0000367 -0.0000348 -0.0000238 0.0001105 -0.0000961 0.0000369 0.0000310 -0.0000316 -0.0000276 -0.0000483 0.0000198 -0.0001571 -0.0001288 0.0001649 -0.0000188 0.0001784 0.0000042 -0.0001117 0.0004178 -0.0008523 -0.0000275 0.0001366 -0.0001737 0.0001701 -0.0000544 0.0000613 -0.0000151 0.0002031 -0.0000385 -0.0000438 0.0123563 -0.0262151 0.0029893 -0.0023709 0.0001501 -0.0000523 -0.0000091 0.0000654 -0.0000840 0.0002893 -0.0000063 0.0000076 -0.0000490 0.0000568 -0.0000434 -0.0000958 -0.0000826 0.0000705 -0.0000990 -0.0002139 0.0000200 0.0000079 0.0000143 0.0000745 -0.0000419 0.0001314 -0.0002049 0.0002884 -0.0000970 0.0000456 -0.0002153 0.0001168 -0.0002082 -0.0001131 -0.0000738 0.0002690 -0.0001879 0.0003551 -0.0000508 0.0000699 -0.0001260 0.0002473 0.0003296 -0.0004702 -0.0001803 0.0002503 -0.0000779 0.0000649 0.0002374 -0.0000509 -0.0000857 0.0003017 -0.0000510 0.0001039 -0.0000126 0.0000771 0.0002014 -0.0001373 0.0002257 0.0000948 -0.0003219 0.0002079 0.0000039 0.0001663 -0.0000122 0.0001618 0.0000188 0.0000529 -0.0001124 0.0002279 -0.0000776 -0.0000022 -0.0000403 0.0001738 0.0000669 0.0000918 0.0000164 0.0001164 -0.0000660 0.0001030 -0.0000445 0.0002399 -0.0000114 0.0000961 0.0000004 0.0000570 0.0008385 -0.0007110 0.0000682 0.0000922 -0.0000669 0.0001872 -0.0001358 0.0002299 -0.0001227 0.0001920 -0.0000831 0.0002220 0.0004690 -0.0003242 0.0000513 0.0001361 -0.0000929 -0.0000523 -0.0001934 0.0004285 0.0001710 0.0000540 -0.0017381 -0.0021323 -0.0001235 0.0001566 -0.0003410 0.0005111 -0.0000167 -0.0000231 0.0000040 0.0000254 -0.0000899 0.0000751 0.0000028 -0.0000200 0.0000149 0.0001511 0.0000275 0.0001341 0.0000350 0.0000015 0.0000223 0.0000059 -0.0001183 0.0001735 -0.0003025 0.0003498 -0.0004083 0.0006050 0.0000284 0.0001616 -0.0001396 0.0001969 0.0000234 0.0000355 0.0002755 0.0003894 -0.0000867 0.0003344 -0.0001507 0.0002527 -0.0000379 0.0001408 -0.0000275 0.0001222 -0.0000315 0.0000934 0.0000745 0.0001495 -0.0000399 0.0002072 0.0000222 0.0003107 -0.0000276 0.0000998 -0.0000281 0.0002566 0.0000525 0.0000224
-0.0000832 0.0001116 -0.0000335 0.0001447 -0.0000390 0.0002271 -0.0000689 -0.0000306 -0.0000276 -0.0000744 -0.0000837 0.0000216 -0.0001081 -0.0000063 0.0000736 0.0002402 -0.0000801 0.0001912 -0.0000375 0.0000950 0.0000690 -0.0000317 -0.0000501 0.0001629 -0.0001211 0.0000855 0.0000345 -0.0000188 -0.0000238 -0.0000515 0.0000229 -0.0002115 -0.0002114 0.0002339 -0.0000081 0.0001900 -0.0000087 -0.0001655 0.0001562 -0.0001682 -0.0000247 0.0001772 -0.0001955 0.0002703 -0.0000812 0.0001308 -0.0000375 0.0003341 -0.0000268 0.0000445 -0.0066049 0.0087782 0.0044342 -0.0031601 -0.0005192 0.0004087 -0.0000107 0.0000554 -0.0001065 0.0004087 -0.0000230 0.0000959 -0.0001374 0.0001536 -0.0000067 -0.0000963 -0.0000503 0.0000773 -0.0000596 -0.0002197 0.0000304 -0.0000207 0.0001083 -0.0000746 -0.0000725 0.0001397 -0.0002885 0.0004726 -0.0001479 0.0001015 -0.0002593 0.0000990 -0.0000290 -0.0001306 -0.0000920 0.0003751 -0.0002394 0.0004345 -0.0002983 0.0003971 -0.0001527 0.0002803 0.0003788 -0.0004678 -0.0002532 0.0004931 0.0000660 -0.0000551 0.0001356 0.0000566 -0.0001243 0.0003868 -0.0001321 0.0001050 -0.0000123 0.0001165 -0.0001938 0.0005049 0.0005671 -0.0002250 -0.0002893 0.0002559 -0.0000426 0.0002204 -0.0000264 0.0001911 -0.0000264 0.0001129 -0.0001089 0.0003807 -0.0001144 0.0000719 -0.0000612 0.0002533 0.0002417 -0.0002798 -0.0000078 0.0001844 -0.0000558 0.0001069 -0.0000794 0.0003348 -0.0000798 0.0001597 -0.0000497 0.0001572 0.0005615 -0.0001653 0.0001410 0.0000710 -0.0000826 0.0002589 -0.0001342 0.0003080 -0.0001827 0.0003181 -0.0001263 0.0003621 -0.0010560 0.0009500 0.0000585 0.0001911 -0.0001545 0.0000603 -0.0000271 0.0004047 0.0000753 0.0000635 0.0008326 0.0036515 -0.0001732 0.0002000 -0.0001886 0.0003831 -0.0000663 0.0000800 -0.0000443 0.0001792 -0.0000540 0.0000912 -0.0000827 0.0001123 -0.0000083 0.0002649 0.0000435 0.0001820 0.0001584 0.0000618 0.0000222 0.0000376 -0.0001537 0.0002188 -0.0000180 0.0001508 -0.0000072 0.0002907 -0.0000582 0.0003313 -0.0001533 0.0002407 -0.0000174 0.0000633 0.0003130 0.0004198 -0.0001024 0.0003888 -0.0001227 0.0002267 -0.0000253 0.0001167 -0.0000223 0.0001530 -0.0000327 0.0001058 0.0000628 0.0002686 -0.0000364 0.0002452 -0.0000433 0.0003853 0.0000552 0.0000131 -0.0000553 0.0002950 0.0000181 0.0000122
-0.0001080 0.0002271 -0.0000475 0.0002081 -0.0000532 0.0002677 -0.0001066 0.0000534 -0.0000435 -0.0000315 -0.0002691 0.0001850 -0.0001552 0.0000290 0.0000599 0.0002848 -0.0001214 0.0002267 -0.0000604 0.0001883 0.0000059 0.0001320 -0.0000692 0.0002757 0.0000906 -0.0000210 0.0000354 0.0000626 -0.0000431 -0.0000185 0.0000191 -0.0001705 -0.0002600 0.0002829 -0.0000547 0.0002433 -0.0000194 -0.0001633 0.0013876 -0.0008271 -0.0000331 0.0002496 -0.0001481 0.0002613 -0.0000371 0.0001521 -0.0000494 0.0003465 -0.0001867 0.0001790 -0.0390234 0.0373179 0.0009645 -0.0001084 -0.0004848 0.0004626 -0.0000071 0.0000544 -0.0001347 0.0004211 -0.0001179 0.0001912 -0.0001480 0.0002211 -0.0000382 -0.0000164 0.0000427 0.0000057 -0.0001277 -0.0000384 0.0000313 -0.0000665 -0.0000526 0.0000088 -0.0000553 0.0000880 -0.0002678 0.0004325 0.0000271 -0.0001431 -0.0000360 -0.0001709 0.0004104 -0.0003746 -0.0000944 0.0002757 -0.0001698 0.0002301 -0.0001423 0.0001309 -0.0001337 0.0001819 -0.0001592 -0.0000169 -0.0002817 0.0001845 -0.0001993 0.0001859 0.0000650 0.0000827 -0.0001452 0.0001282 -0.0000873 -0.0000427 -0.0000276 -0.0000264 -0.0001122 0.0003180 0.0001182 -0.0000712 0.0002068 -0.0002160 -0.0000859 0.0000984 -0.0000390 0.0000788 -0.0000332 0.0000460 -0.0000910 0.0001861 -0.0001409 -0.0001871 -0.0000130 0.0000006 -0.0004496 0.0002126 0.0000123 -0.0000032 -0.0000138 -0.0000038 -0.0000719 0.0000896 -0.0000866 0.0000879 -0.0000938 0.0001003 -0.0000269 0.0002086 0.0000018 -0.0000307 -0.0000864 0.0001100 -0.0000904 0.0001230 -0.0001207 0.0001747 -0.0001207 0.0002037 -0.0030273 0.0027496 -0.0000515 0.0001638 -0.0000067 0.0000198 -0.0000553 0.0004188 -0.0000406 0.0001011 -0.0019535 0.0080119 -0.0002110 0.0002106 -0.0003961 0.0005730 -0.0000742 0.0000596 -0.0000696 0.0002462 -0.0000471 0.0001220 -0.0000982 0.0001391 0.0000375 0.0002365 0.0000754 0.0001909 -0.0000149 0.0002430 -0.0000129 0.0000809 -0.0002003 0.0002654 0.0000451 0.0000301 -0.0002367 0.0005068 0.0000376 0.0002409 -0.0000905 0.0002108 0.0000045 0.0000339 0.0000978 0.0001849 -0.0000753 0.0003073 -0.0000135 0.0001135 -0.0000444 0.0001378 0.0000035 0.0001158 -0.0000122 0.0000882 -0.0003790 0.0005448 -0.0000241 0.0002651 -0.0000959 0.0004178 -0.0000542 0.0001360 -0.0000332 0.0002547 0.0000538 0.0000284
-0.0002087 0.0002979 -0.0000709 0.0002282 -0.0001302 0.0003158 -0.0001272 0.0001091 -0.0000527 -0.0000108 -0.0003026 0.0002693 -0.0001725 0.0000799 0.0000572 0.0003222 -0.0001094 0.0002493 -0.0000690 0.0002540 -0.0001444 0.0003832 -0.0000790 0.0003398 0.0000131 0.0001179 0.0000400 0.0001061 -0.0000834 0.0000439 0.0000052 -0.0001182 -0.0001635 0.0001860 -0.0000979 0.0002629 -0.0000327 -0.0001508 0.0021804 -0.0013579 -0.0000500 0.0003009 0.0001464 0.0000476 -0.0000813 0.0002739 -0.0000412 0.0002760 -0.0003254 0.0001575 -0.0125645 0.0129540 -0.0024524 0.0021484 0.0000912 0.0001985 -0.0000174 0.0001240 -0.0001834 0.0006247 -0.0000512 0.0002097 -0.0000629 0.0002124 -0.0000329 0.0000533 0.0000145 0.0001047 -0.0000815 -0.0000781 0.0000140 -0.0000158 0.0000177 0.0000905 -0.0000581 0.0001659 -0.0004924 0.0005136 0.0001289 -0.0001684 -0.0001640 0.0000572 0.0000340 -0.0000927 -0.0002020 0.0003940 -0.0001652 0.0002796 -0.0000853 0.0002103 -0.0000967 0.0002262 -0.0001757 0.0001102 -0.0002172 0.0004205 -0.0002610 0.0003658 0.0001074 0.0002010 -0.0001921 0.0002642 -0.0000754 0.0000558 -0.0000153 0.0000189 0.0000650 -0.0000698 -0.0000913 0.0001472 -0.0001043 -0.0000036 -0.0000724 0.0001383 -0.0000434 0.0001130 -0.0000192 0.0000607 -0.0000663 0.0002068 -0.0001215 -0.0001364 0.0000079 0.0000339 -0.0008340 0.0010354 -0.0000003 0.0000989 -0.0000271 0.0000556 -0.0000720 0.0001469 0.0001242 0.0000192 -0.0000174 0.0000491 -0.0000898 0.0001494 -0.0000499 0.0001678 -0.0000771 0.0001437 -0.0000908 0.0001714 -0.0001860 0.0002533 -0.0001194 0.0002416 -0.0011154 0.0014668 -0.0000799 0.0002487 -0.0001078 0.0001609 -0.0001330 0.0004726 -0.0002293 0.0002652 0.0040171 -0.0040903 -0.0000759 0.0001082 -0.0003029 0.0004816 -0.0000791 0.0001144 -0.0000017 0.0002985 -0.0000050 0.0001326 -0.0000781 0.0001573 0.0001058 0.0002170 0.0000448 0.0002251 0.0000838 0.0002001 -0.0000364 0.0001350 -0.0002123 0.0002853 0.0000499 0.0000379 -0.0004839 0.0007637 0.0001712 0.0001198 -0.0000660 0.0001992 0.0000075 0.0000721 -0.0003523 0.0004062 -0.0000402 0.0002277 -0.0000341 0.0001453 -0.0000479 0.0001949 -0.0000266 0.0002119 -0.0000124 0.0001003 -0.0002788 0.0003443 -0.0000312 0.0002890 -0.0000658 0.0004026 -0.0000312 0.0001124 -0.0000306 0.0002368 -0.0000181 0.0000878
-0.0000735 0.0001700 -0.0000552 0.0002442 -0.0001527 0.0003477 -0.0001330 0.0001087 -0.0000725 -0.0000401 -0.0003094 0.0002581 -0.0002134 -0.0000124 0.0001455 0.0005214 -0.0001154 0.0002638 -0.0000504 0.0001855 -0.0001479 0.0002577 -0.0000440 0.0002427 -0.0001783 0.0001928 0.0000311 -0.0000645 -0.0000847 0.0000183 -0.0000047 -0.0001718 -0.0000400 0.0000397 -0.0000954 0.0001709 -0.0000376 -0.0002252 0.0030282 -0.0019217 -0.0000443 0.0001059 0.0000311 -0.0000185 -0.0000784 0.0001194 -0.0000276 0.0002583 -0.0001672 -0.0000758 0.0126523 -0.0179703 -0.0018329 0.0010922 -0.0001469 -0.0000597 -0.0000061 -0.0000830 -0.0002782 0.0002232 0.0000207 -0.0001085 -0.0000676 0.0000914 -0.0000789 -0.0000579 -0.0000623 0.0000179 0.0000017 -0.0002381 0.0000210 -0.0000789 0.0000976 -0.0001380 -0.0000859 0.0001106 -0.0002752 0.0001780 0.0001903 -0.0003459 -0.0000789 -0.0002465 -0.0001365 0.0000801 -0.0001342 0.0001960 -0.0001498 0.0001991 -0.0001801 0.0003960 -0.0000718 0.0001304 0.0000355 -0.0000607 -0.0000538 0.0004241 0.0000349 0.0001555 0.0001445 0.0001805 -0.0001301 0.0002034 -0.0001754 0.0000690 -0.0000289 0.0000164 -0.0001036 0.0000692 -0.0000074 0.0001205 -0.0002420 0.0001970 -0.0000042 0.0000816 -0.0000568 0.0001338 -0.0000007 0.0000468 -0.0000412 0.0001102 -0.0001033 -0.0000622 0.0000104 0.0000900 -0.0002718 0.0006202 -0.0000076 0.0001089 0.0000216 0.0000091 -0.0000552 0.0001157 0.0001531 -0.0000587 -0.0000021 0.0000137 -0.0001375 -0.0000850 0.0000219 0.0001074 -0.0000245 0.0000973 -0.0000709 0.0001328 -0.0001371 0.0002133 -0.0000918 0.0002080 -0.0009785 0.0007930 -0.0000416 0.0002199 -0.0001043 0.0001478 -0.0000277 0.0003585 -0.0001771 0.0001657 0.0041758 -0.0073241 -0.0000145 0.0000465 -0.0000228 0.0001388 -0.0000760 0.0001342 0.0000035 0.0003231 0.0000047 0.0001178 -0.0000555 0.0001495 0.0001016 0.0001983 -0.0000285 0.0002300 0.0000968 0.0002061 -0.0000379 0.0001344 -0.0002105 0.0002831 0.0001147 -0.0000171 -0.0004303 0.0007252 -0.0000182 0.0002598 -0.0000441 0.0001799 -0.0000809 0.0001693 -0.0001674 0.0003838 0.0000359 0.0001083 0.0000048 0.0000613 -0.0000369 0.0002338 -0.0000193 0.0002584 -0.0000428 0.0001302 -0.0002357 0.0004101 -0.0000311 0.0002936 -0.0000447 0.0003270 -0.0000163 0.0001118 -0.0000564 0.0002542 0.0000055 -0.0000031
0.0000326 0.0001589 -0.0000418 0.0002818 -0.0001160 0.0003880 -0.0001544 0.0002060 -0.0000825 0.0001437 -0.0002433 0.0001931 -0.0002460 0.0001045 -0.0000076 0.0002640 -0.0001273 0.0003301 -0.0001097 0.0003274 0.0000329 0.0002095 -0.0000291 0.0002910 -0.0000593 0.0001188 0.0000340 0.0001036 -0.0001164 0.0000890 -0.0000139 -0.0000215 -0.0001863 0.0001947 -0.0001569 0.0002718 -0.0000349 -0.0001004 0.0025445 -0.0017072 -0.0000371 0.0001719 -0.0001861 0.0001873 0.0000002 0.0001394 -0.0000179 0.0001198 -0.0000668 -0.0001096 0.0070923 -0.0081279 0.0003182 -0.0000582 -0.0000280 -0.0000889 0.0000104 0.0000081 -0.0002754 0.0002912 0.0000007 -0.0000231 -0.0000590 0.0001348 -0.0000507 0.0000157 -0.0000412 0.0000508 -0.0001569 -0.0000035 0.0000277 0.0000105 -0.0000861 0.0000764 -0.0000409 0.0000963 0.0000930 -0.0000025 0.0000333 -0.0000694 0.0000532 -0.0002383 0.0002723 -0.0001112 -0.0000263 0.0001234 -0.0001087 0.0002249 -0.0005748 0.0007312 -0.0000847 0.0001690 -0.0003746 0.0003136 -0.0004007 0.0006416 0.0000353 0.0002299 0.0000847 0.0003476 -0.0000490 0.0002901 -0.0002547 0.0002617 -0.0000466 0.0000931 -0.0000095 0.0001106 0.0000620 0.0002009 0.0001392 0.0001400 -0.0000491 0.0001625 -0.0000466 0.0001730 0.0000193 0.0000584 -0.0000577 0.0001410 -0.0001645 0.0000054 -0.0000162 0.0002044 -0.0001173 0.0001809 0.0000468 0.0001172 0.0000033 0.0000561 -0.0000515 0.0001595 0.0000792 0.0000099 -0.0001433 0.0001514 -0.0004170 0.0004548 0.0000724 0.0001097 0.0000253 0.0000519 -0.0000432 0.0000784 -0.0000594 0.0001164 -0.0000720 0.0001699 -0.0006187 0.0006911 0.0000333 0.0001413 -0.0001095 0.0001623 0.0000262 0.0003544 -0.0000485 0.0000362 -0.0032733 -0.0002707 -0.0000227 0.0000245 0.0003698 -0.0003705 -0.0000205 0.0000285 -0.0000280 0.0003100 -0.0000422 0.0001199 0.0000292 -0.0000022 0.0000302 0.0001649 -0.0000272 0.0001086 -0.0001540 0.0001586 -0.0000112 0.0000378 -0.0001303 0.0001811 -0.0000220 -0.0000527 -0.0004353 0.0006389 -0.0001379 0.0002701 -0.0000073 0.0000765 -0.0000726 0.0000463 0.0004681 -0.0000655 -0.0000634 0.0000368 0.0001183 -0.0001425 -0.0000385 0.0000870 -0.0000198 0.0000645 -0.0000248 0.0000124 -0.0000141 0.0001380 -0.0000239 0.0000462 -0.0000138 0.0000930 -0.0000205 -0.0000058 -0.0000453 0.0000367 0.0000885 -0.0002749
-0.0000141 0.0001438 -0.0000711 0.0001177 -0.0000713 0.0001189 -0.0001427 0.0001105 -0.0000787 0.0000731 -0.0001226 0.0000533 -0.0002574 0.0000839 -0.0000128 0.0002508 -0.0000803 0.0002569 -0.0001031 0.0002459 0.0001511 0.0001503 -0.0000757 0.0002365 -0.0000729 0.0000708 0.0000420 0.0001404 -0.0001249 0.0001104 -0.0000198 0.0000569 -0.0002661 0.0002817 -0.0001105 0.0001636 -0.0000384 -0.0000669 0.0008658 -0.0007904 -0.0000470 0.0001406 -0.0002198 0.0001750 0.0000036 0.0001499 0.0000092 -0.0000594 -0.0000369 -0.0001609 -0.0198349 0.0213086 -0.0024537 0.0024697 0.0000148 -0.0001883 0.0000083 0.0000595 -0.0002074 0.0001968 -0.0000324 -0.0000115 -0.0000498 0.0000508 -0.0000047 -0.0000196 -0.0000339 0.0000410 -0.0002544 0.0000744 0.0000273 0.0000431 0.0000702 -0.0000814 0.0001540 -0.0000917 -0.0000550 0.0000763 -0.0002280 0.0002128 0.0000180 -0.0001626 0.0003016 -0.0002572 -0.0000499 0.0001657 -0.0001540 0.0002485 -0.0001210 0.0001745 -0.0000503 0.0001345 -0.0005710 0.0004863 -0.0001980 0.0003489 0.0000399 0.0002067 0.0000438 0.0003401 -0.0000076 0.0002197 -0.0001483 0.0000882 -0.0000109 0.0000157 -0.0000240 0.0002339 0.0003332 0.0001086 -0.0003247 0.0004837 -0.0000874 0.0001859 0.0000174 0.0001306 0.0000426 0.0000270 -0.0001166 0.0002252 -0.0001351 0.0000347 0.0000250 0.0001717 -0.0006250 0.0005833 0.0000084 0.0001813 0.0000267 0.0000181 -0.0000232 0.0001223 0.0001096 0.0001116 -0.0001663 0.0001902 -0.0002608 0.0004629 0.0000680 0.0001193 0.0000549 0.0000464 -0.0000661 0.0001591 -0.0000653 0.0001234 -0.0000411 0.0001731 0.0008449 -0.0000089 0.0000088 0.0001615 -0.0001000 0.0002003 -0.0000613 0.0003831 -0.0000497 0.0001094 0.0032107 -0.0113231 -0.0000405 0.0000477 0.0005127 -0.0005298 -0.0000264 0.0000742 -0.0000293 0.0003587 0.0000264 0.0000566 0.0001362 -0.0000728 0.0000237 0.0001599 -0.0000030 0.0000763 -0.0001746 0.0003233 -0.0000104 0.0000554 -0.0000819 0.0001318 -0.0000220 0.0000304 -0.0002631 0.0002763 -0.0000729 0.0002216 0.0000074 0.0000515 -0.0000076 -0.0000425 -0.0002268 0.0004333 -0.0001015 0.0000059 0.0001160 -0.0001633 -0.0000200 0.0000725 -0.0000312 0.0000967 -0.0000110 0.0000031 -0.0001683 0.0002853 -0.0000358 0.0000578 -0.0000127 0.0000614 0.0000003 0.0000092 -0.0000255 -0.0000052 0.0000814 -0.0002061
0.0000521 0.0002260 -0.0000594 0.0001370 -0.0000923 0.0001517 -0.0001815 0.0002399 -0.0000697 0.0002177 -0.0001731 0.0002544 -0.0002327 0.0001520 -0.0001427 -0.0000499 -0.0001224 0.0003254 -0.0000953 0.0003030 -0.0000079 0.0002854 -0.0001206 0.0003001 -0.0002790 0.0003057 0.0000358 0.0002915 -0.0001625 0.0001754 -0.0000279 0.0002322 -0.0003518 0.0003728 -0.0000832 0.0001891 -0.0000455 0.0000492 0.0015253 -0.0010558 -0.0000634 0.0001655 -0.0000356 0.0000497 -0.0000740 0.0002269 0.0000473 -0.0003425 0.0000390 -0.0000865 -0.0216193 0.0203479 -0.0085346 0.0070766 0.0001457 -0.0002237 -0.0000158 0.0001534 -0.0001306 0.0001500 -0.0000840 0.0000761 -0.0000010 -0.0000392 -0.0000036 -0.0000055 -0.0000297 0.0000774 -0.0002202 0.0000036 0.0000419 0.0000523 0.0001738 -0.0001813 -0.0000008 0.0000228 -0.0001570 0.0000215 -0.0000411 -0.0000570 -0.0000774 -0.0000807 -0.0001265 0.0002778 0.0000507 -0.0000422 -0.0001117 0.0000466 -0.0002616 0.0003634 0.0000082 -0.0000417 -0.0002303 0.0002380 0.0001104 0.0000117 0.0000115 0.0001921 0.0000429 0.0002633 0.0000415 -0.0001459 -0.0001011 -0.0000923 -0.0000108 -0.0001629 0.0000413 0.0001315 0.0002167 0.0001967 -0.0000597 0.0001372 -0.0000161 -0.0000200 0.0000925 -0.0000923 0.0000635 -0.0000994 -0.0000749 -0.0000126 -0.0001190 -0.0002558 0.0000418 -0.0000364 -0.0000824 0.0000795 -0.0000276 -0.0000181 0.0001390 -0.0002084 0.0000007 -0.0001780 0.0000462 -0.0000261 -0.0000960 0.0000128 -0.0003778 0.0003973 -0.0000175 -0.0001268 0.0000924 -0.0001997 -0.0000043 -0.0001446 0.0000388 -0.0000784 -0.0000103 -0.0000810 0.0007132 0.0002969 -0.0000359 0.0000119 -0.0001336 0.0002158 -0.0001451 0.0001989 -0.0000407 -0.0000100 0.0057163 -0.0126828 -0.0000011 -0.0000120 0.0000358 -0.0000480 -0.0000339 -0.0000432 -0.0000336 0.0002553 0.0000737 -0.0000151 0.0000592 -0.0000169 -0.0000321 0.0000785 -0.0000164 -0.0000083 0.0000371 0.0000776 -0.0000024 0.0000192 -0.0000978 0.0001316 -0.0001489 0.0001778 0.0001292 -0.0000722 0.0000492 -0.0000545 -0.0000103 -0.0000031 0.0001064 -0.0001842 -0.0005631 0.0002393 0.0000716 -0.0002252 0.0002054 -0.0003067 0.0000231 -0.0000243 0.0000103 -0.0000049 -0.0000233 0.0000060 -0.0002616 0.0003081 -0.0000273 0.0000394 -0.0000433 -0.0000072 0.0000266 -0.0000459 -0.0000162 -0.0000611 0.0000742 -0.0002219
0.0000227 0.0003135 -0.0000335 0.0001277 -0.0000979 0.0001749 -0.0001007 0.0002593 -0.0000550 0.0003156 -0.0002759 0.0004473 -0.0000794 0.0001127 -0.0002537 -0.0003354 -0.0001428 0.0003974 -0.0001194 0.0003270 -0.0001272 0.0002432 -0.0000968 0.0002560 -0.0002544 0.0003541 0.0000271 0.0003829 -0.0001743 0.0002126 -0.0000267 0.0003629 -0.0003734 0.0003928 0.0000022 0.0001605 -0.0000193 0.0001394 0.0010233 -0.0005680 -0.0000493 0.0001537 -0.0002862 0.0002937 -0.0001016 0.0002783 0.0000717 -0.0005781 -0.0001805 0.0002103 -0.0228910 0.0126724 -0.0044406 0.0038425 -0.0001089 0.0001323 -0.0000327 0.0002720 -0.0000722 0.0002627 -0.0000400 0.0001547 -0.0000291 0.0000073 0.0000079 0.0000405 0.0000201 0.0001099 -0.0001525 -0.0000265 0.0000454 0.0001393 0.0000123 0.0000252 -0.0000208 0.0001103 -0.0002268 0.0001120 0.0002278 -0.0002294 -0.0001277 0.0000431 -0.0005654 0.0006644 0.0001371 -0.0000608 0.0001235 -0.0001274 -0.0003883 0.0004814 -0.0000159 -0.0000115 0.0000402 -0.0000567 -0.0002906 0.0003158 -0.0001078 0.0003311 0.0000081 0.0003321 0.0000732 -0.0000744 -0.0002885 0.0002230 -0.0000044 -0.0001071 0.0001892 -0.0001449 0.0000416 0.0004911 0.0000690 -0.0000011 -0.0000374 0.0000709 0.0001018 -0.0000823 0.0000763 -0.0001071 -0.0000030 0.0000157 -0.0001630 -0.0001568 0.0000209 0.0000437 0.0002419 0.0000015 -0.0000481 0.0000832 0.0001325 -0.0001596 -0.0000037 -0.0000937 0.0000373 -0.0000633 0.0000974 -0.0000879 -0.0010315 0.0010339 0.0000322 -0.0000131 0.0001121 -0.0001926 0.0000415 -0.0001211 0.0000528 -0.0000830 -0.0000006 -0.0000310 -0.0009033 0.0008223 0.0000072 -0.0000064 -0.0001104 0.0001649 -0.0000890 0.0001078 0.0000234 -0.0000151 0.0003693 -0.0072045 0.0000176 -0.0000088 -0.0000544 0.0000070 -0.0000193 -0.0000156 -0.0000232 0.0002836 -0.0000250 0.0001213 -0.0001263 0.0001781 -0.0000138 0.0000645 -0.0000199 -0.0000112 0.0001019 0.0000393 -0.0000014 0.0000475 -0.0001160 0.0001437 0.0000667 0.0000699 0.0004241 -0.0001870 0.0001385 -0.0000998 -0.0000096 -0.0000306 0.0000661 -0.0000665 0.0000798 -0.0005331 0.0000773 -0.0002218 0.0001115 -0.0001573 0.0000331 0.0000217 0.0000443 0.0000281 -0.0000079 0.0000251 0.0001304 -0.0001841 -0.0000090 0.0000905 0.0000101 -0.0000143 0.0000675 -0.0000713 0.0000104 -0.0000277 0.0000444 -0.0001273
-0.0000888 0.0004841 -0.0000124 0.0001964 -0.0000019 0.0001577 0.0000145 0.0002584 -0.0000470 0.0003693 -0.0002917 0.0005554 -0.0000430 0.0000635 -0.0002664 -0.0003909 -0.0001314 0.0004070 -0.0001465 0.0003054 -0.0002227 0.0002670 -0.0000220 0.0001341 -0.0002012 0.0002255 0.0000102 0.0002923 -0.0001483 0.0001755 -0.0000205 0.0003985 -0.0000946 0.0001168 0.0000875 0.0000436 -0.0000247 0.0001425 -0.0005162 -0.0000342 -0.0000228 -0.0000351 -0.0001671 0.0001436 -0.0000488 0.0000898 0.0000993 -0.0007580 -0.0004660 0.0004647 -0.0192188 0.0002637 -0.0017834 0.0017293 -0.0003477 0.0001657 -0.0000073 0.0001034 -0.0001423 -0.0001263 -0.0000948 -0.0000551 -0.0000850 0.0000217 -0.0000369 -0.0000015 -0.0000037 0.0000019 -0.0000278 -0.0000768 0.0000448 0.0001229 -0.0000451 -0.0000102 0.0000687 -0.0000364 -0.0002924 0.0000996 0.0004712 -0.0006312 -0.0000211 -0.0001609 -0.0005874 0.0000578 0.0001341 -0.0001665 0.0002204 -0.0002744 -0.0000133 0.0000977 0.0000137 -0.0001094 0.0000492 -0.0001786 -0.0004266 0.0003776 -0.0000429 0.0002359 0.0001367 0.0000997 -0.0000225 0.0000083 -0.0001523 0.0001351 0.0000286 -0.0001611 0.0001933 -0.0002529 0.0001822 0.0004093 0.0000012 0.0001319 -0.0000383 0.0000980 0.0001184 -0.0000650 0.0000820 -0.0001160 -0.0000581 0.0000617 -0.0000888 -0.0000952 0.0000700 0.0000174 0.0001407 -0.0002209 -0.0000047 0.0000866 0.0000625 -0.0000809 0.0000390 -0.0000902 0.0002390 -0.0001993 0.0001902 -0.0001464 -0.0011496 0.0009165 0.0001378 0.0000102 0.0001311 -0.0001992 0.0000470 -0.0000884 0.0000213 -0.0000452 -0.0000022 0.0000105 -0.0011794 0.0002939 -0.0000114 -0.0000141 -0.0001294 0.0001627 0.0000721 -0.0000325 0.0000384 0.0000342 0.0001353 -0.0046159 -0.0000758 0.0000932 -0.0000508 0.0000172 -0.0000065 -0.0000069 -0.0000163 0.0002676 0.0000065 0.0000473 -0.0000099 0.0000697 0.0000474 0.0000097 0.0000095 -0.0000385 0.0000142 0.0001893 0.0000043 0.0000586 -0.0000099 0.0000264 0.0002206 -0.0001083 -0.0002256 0.0001662 0.0002017 -0.0001712 -0.0000208 -0.0000562 -0.0000755 0.0001030 0.0003481 -0.0004124 0.0000373 -0.0000482 0.0000144 -0.0000276 0.0000024 0.0001136 0.0000400 0.0001262 0.0000006 0.0000481 0.0002776 -0.0002644 0.0000063 0.0001477 0.0000536 -0.0000182 0.0000496 0.0000380 0.0000219 0.0000362 0.0000277 -0.0000088
-0.0000039 0.0004954 -0.0000154 0.0002907 0.0000483 0.0002057 -0.0000128 0.0003862 -0.0000407 0.0005216 -0.0002673 0.0007386 -0.0001201 0.0002577 -0.0004111 -0.0007239 -0.0001334 0.0004397 -0.0001440 0.0004155 -0.0000672 0.0002882 -0.0000224 0.0002079 -0.0000186 0.0000854 -0.0000041 0.0004395 -0.0001458 0.0001931 -0.0000178 0.0004938 -0.0000742 0.0001176 0.0000254 0.0001224 -0.0000460 0.0002626 0.0006342 -0.0007449 -0.0000238 0.0000162 0.0001908 -0.0000402 -0.0000449 0.0001324 0.0001128 -0.0008985 -0.0002370 0.0003664 0.0052467 -0.0167826 0.0028917 -0.0010562 0.0002624 0.0000005 0.0000054 0.0002128 -0.0000947 0.0000493 -0.0000474 0.0000020 -0.0000188 0.0001417 -0.0000781 0.0001593 -0.0000182 0.0001143 -0.0001131 0.0000853 0.0000391 0.0002281 -0.0002445 0.0003113 -0.0000653 0.0001319 -0.0003515 0.0002397 0.0001550 -0.0003299 -0.0001162 0.0000694 -0.0000866 -0.0002142 -0.0000217 0.0000181 0.0001077 -0.0000937 -0.0000104 0.0002103 0.0000424 -0.0000839 -0.0000907 0.0000566 0.0000251 0.0001553 0.0000238 0.0001726 0.0001628 0.0001587 -0.0000282 0.0001859 -0.0000336 0.0001618 0.0000113 -0.0000519 0.0001560 0.0000478 0.0002143 0.0005315 0.0003055 0.0000675 -0.0000571 0.0001752 0.0001364 -0.0000593 0.0001238 -0.0001026 -0.0000739 0.0001878 -0.0000995 -0.0000066 0.0000223 0.0001520 0.0003009 -0.0005977 0.0000338 0.0001705 -0.0000098 0.0000373 0.0000351 0.0000333 0.0002568 -0.0000987 0.0001013 0.0000111 -0.0003846 0.0005118 0.0000072 0.0002571 0.0001417 -0.0001768 0.0000793 -0.0000566 0.0000763 -0.0000812 0.0000223 0.0000398 -0.0006300 0.0009126 0.0000005 0.0000114 -0.0003374 0.0004223 0.0000136 0.0001039 0.0000312 0.0001135 0.0038028 -0.0064599 -0.0000532 0.0000794 0.0000210 0.0000312 -0.0000270 -0.0000566 -0.0000364 0.0002055 -0.0000186 -0.0000452 0.0001390 -0.0001365 0.0000647 -0.0001018 -0.0000100 -0.0001118 -0.0000213 -0.0000605 0.0000253 -0.0000038 0.0000237 -0.0000299 -0.0001358 -0.0000049 -0.0004693 0.0001617 0.0001171 -0.0002280 -0.0000974 -0.0000156 0.0000189 -0.0000704 0.0003120 -0.0005086 -0.0000978 0.0000670 0.0001031 -0.0001837 0.0000333 -0.0000087 0.0000508 -0.0000350 0.0000098 -0.0000436 0.0003396 -0.0003831 0.0000265 -0.0000544 0.0000986 -0.0002248 0.0000958 -0.0001161 0.0000153 -0.0001019 0.0000500 -0.0001120
-0.0000424 0.0003879 -0.0000316 0.0001657 0.0000617 -0.0000192 -0.0000866 0.0003518 -0.0000390 0.0003693 -0.0000954 0.0005155 -0.0001597 0.0002234 -0.0003581 -0.0006236 -0.0000741 0.0003276 -0.0000758 0.0002863 0.0001329 0.0000233 -0.0000562 0.0001334 0.0000815 -0.0000868 -0.0000018 0.0003882 -0.0001429 0.0001746 -0.0000170 0.0004205 -0.0002489 0.0003030 -0.0000751 0.0001256 -0.0000487 0.0002724 0.0006998 -0.0003611 -0.0000050 -0.0000245 0.0001528 -0.0000714 0.0000140 0.0001064 0.0001113 -0.0008277 -0.0000067 0.0001518 0.0090081 -0.0119275 0.0032291 -0.0015030 -0.0001367 0.0001590 -0.0000276 0.0002945 -0.0000407 0.0000359 0.0001596 -0.0001648 -0.0000296 0.0001726 -0.0000490 0.0002145 -0.0000032 0.0001309 -0.0001446 0.0001265 0.0000277 0.0002697 -0.0002502 0.0002890 -0.0001220 0.0002128 -0.0003917 0.0003623 -0.0002419 0.0001456 -0.0000677 0.0000324 -0.0004834 0.0006506 -0.0000369 0.0000796 0.0000652 -0.0000716 -0.0004154 0.0004568 0.0000724 -0.0001016 -0.0001738 0.0001958 -0.0001183 0.0002555 -0.0000456 0.0002112 0.0000379 0.0002575 -0.0000091 0.0002294 0.0000355 0.0001983 0.0000071 -0.0000221 -0.0004211 0.0007563 0.0001474 0.0006667 0.0002943 0.0001226 -0.0000276 0.0001853 0.0001233 -0.0000390 0.0001296 -0.0000923 0.0000387 0.0001604 -0.0000274 -0.0000296 -0.0000282 0.0002340 0.0006085 -0.0005687 -0.0000297 0.0002958 0.0000099 0.0000328 0.0000131 0.0001058 0.0000839 0.0000589 0.0001220 0.0000808 -0.0001528 0.0004065 0.0000559 0.0002265 0.0001569 -0.0001505 0.0000976 0.0000344 0.0000650 -0.0000368 0.0000290 0.0000928 -0.0016749 0.0022081 -0.0000149 0.0000550 -0.0003179 0.0002969 -0.0000558 0.0001239 -0.0000527 0.0003041 0.0122077 -0.0154932 -0.0000146 0.0000665 0.0000228 0.0000260 -0.0000636 0.0000246 -0.0000621 0.0002288 0.0000089 -0.0000195 -0.0000173 0.0000350 0.0000367 -0.0000669 -0.0000099 -0.0001147 0.0001048 -0.0001015 0.0000335 0.0000182 -0.0000496 0.0000511 -0.0004220 0.0004008 0.0005697 -0.0005736 -0.0002614 0.0000688 -0.0000316 -0.0000134 0.0000987 -0.0000736 0.0009459 -0.0009366 -0.0002062 0.0000707 0.0001606 -0.0002149 -0.0000621 0.0000909 0.0001119 -0.0000602 0.0000586 -0.0000737 0.0002109 -0.0002794 0.0000236 -0.0000131 0.0001184 -0.0001953 0.0001240 -0.0001153 0.0000471 -0.0000798 0.0000283 -0.0000039
-0.0000768 0.0004075 -0.0000325 0.0002228 0.0000880 -0.0000126 -0.0001256 0.0004458 -0.0000363 0.0004219 0.0001168 0.0002793 -0.0001197 0.0002156 -0.0004297 -0.0007260 -0.0000454 0.0003128 -0.0000279 0.0003293 0.0000518 0.0001627 -0.0000676 0.0001728 -0.0000687 0.0000717 0.0000027 0.0004269 -0.0001402 0.0001747 -0.0000236 0.0004041 -0.0002346 0.0002913 -0.0001604 0.0002893 -0.0000668 0.0003278 -0.0001395 0.0001115 -0.0000101 0.0000455 0.0000328 0.0000548 0.0000517 0.0001483 0.0001142 -0.0007978 -0.0001631 0.0002129 0.0131509 -0.0176971 -0.0007247 0.0007751 -0.0003079 0.0002778 -0.0000321 0.0003669 0.0000148 0.0000233 0.0001583 -0.0000906 -0.0001192 0.0002595 -0.0000653 0.0003420 -0.0000446 0.0002386 -0.0001351 0.0001685 0.0000323 0.0002742 -0.0000463 0.0001200 -0.0000499 0.0001916 -0.0001665 0.0000695 0.0000691 -0.0002205 -0.0003060 0.0002449 -0.0005680 0.0005328 0.0001766 -0.0002318 0.0001843 -0.0003015 0.0000982 -0.0001854 0.0000777 -0.0001956 0.0000533 -0.0000180 -0.0003933 0.0003989 -0.0001171 0.0001798 -0.0000202 0.0001912 -0.0000467 0.0000566 0.0000630 0.0001438 0.0000226 -0.0001791 -0.0001963 0.0003958 0.0002641 0.0004113 -0.0000307 0.0003156 0.0000648 0.0000091 0.0001267 -0.0001319 0.0001058 -0.0001519 0.0000038 -0.0000715 0.0000277 -0.0003111 0.0000148 0.0000226 0.0005115 -0.0006522 -0.0000481 0.0000680 0.0000750 -0.0001100 0.0000158 -0.0001127 0.0001552 -0.0001749 0.0000965 -0.0000599 0.0001607 0.0003079 0.0000935 -0.0001936 0.0001893 -0.0004006 0.0000986 -0.0002532 0.0001483 -0.0002246 -0.0000024 -0.0000901 -0.0011766 0.0007255 -0.0000802 -0.0000615 -0.0001273 -0.0000667 0.0000195 -0.0001887 -0.0000970 0.0002352 0.0061004 -0.0089038 0.0000353 -0.0000032 -0.0002305 0.0002980 -0.0000585 -0.0000921 -0.0000503 0.0000659 -0.0000009 -0.0001327 -0.0000587 0.0000156 0.0000543 -0.0002079 0.0000113 -0.0002304 -0.0000505 -0.0000213 0.0000396 -0.0000192 0.0000196 -0.0000263 -0.0001453 0.0000047 0.0008962 -0.0010090 -0.0002293 -0.0000674 0.0000988 -0.0002097 0.0001639 -0.0001588 0.0011218 -0.0007438 -0.0001227 -0.0001376 0.0002199 -0.0002895 -0.0001304 0.0000766 0.0000983 -0.0000668 0.0000842 -0.0001166 0.0000348 -0.0000746 0.0000161 -0.0000259 0.0000780 -0.0002060 0.0001366 -0.0001429 0.0001167 -0.0001908 -0.0001021 0.0000335
0.0000787 0.0002380 -0.0000320 0.0001870 0.0000509 -0.0000455 -0.0000691 0.0003651 -0.0000283 0.0003650 0.0003822 0.0000798 0.0000106 0.0001256 -0.0003983 -0.0006812 -0.0000888 0.0003301 -0.0000282 0.0002789 -0.0000714 0.0002233 -0.0000045 0.0000663 -0.0001016 0.0001432 -0.0000068 0.0003614 -0.0001001 0.0001191 -0.0000239 0.0003025 -0.0001614 0.0002069 -0.0001468 0.0002897 -0.0000676 0.0002996 0.0000398 0.0004422 -0.0000072 0.0000022 -0.0001819 0.0002213 0.0000869 0.0000720 0.0000936 -0.0006492 0.0000581 0.0000044 0.0187613 -0.0339732 -0.0023697 0.0021705 0.0007089 -0.0002864 -0.0000246 0.0003763 0.0000388 0.0001131 0.0001426 -0.0000547 -0.0000334 0.0001908 -0.0000900 0.0003862 -0.0000019 0.0002226 -0.0001255 0.0001746 0.0000398 0.0002907 -0.0001335 0.0003392 -0.0000438 0.0002260 -0.0000666 -0.0001074 0.0002562 -0.0003252 -0.0004927 0.0004378 -0.0003102 0.0002631 0.0001092 -0.0002033 0.0002335 -0.0003287 0.0008403 -0.0009332 0.0000653 -0.0001313 0.0001202 -0.0001476 -0.0001562 0.0001020 -0.0001923 0.0001516 0.0000063 0.0000489 0.0000451 0.0000489 -0.0000452 0.0002149 0.0000350 -0.0001311 0.0001062 -0.0000219 0.0003483 0.0003842 -0.0000563 0.0003827 -0.0000135 0.0001015 0.0001182 -0.0001080 0.0001159 -0.0001500 -0.0000025 -0.0000629 0.0000005 -0.0001815 0.0000120 0.0000357 0.0003802 -0.0006036 0.0000135 0.0000376 0.0001050 -0.0001117 0.0000193 -0.0000684 0.0001983 -0.0001333 0.0001188 -0.0000858 0.0007511 -0.0000909 0.0000951 -0.0001370 0.0002014 -0.0003929 0.0000788 -0.0002056 0.0001797 -0.0002589 0.0000511 -0.0001013 0.0006349 -0.0008935 -0.0000040 -0.0000815 -0.0000083 -0.0001524 0.0001949 -0.0003319 -0.0000068 0.0001830 -0.0270612 0.0241674 0.0000318 0.0000090 -0.0002728 0.0003445 -0.0000533 -0.0000849 -0.0000416 0.0000216 -0.0000780 -0.0001470 -0.0000051 -0.0000603 0.0000670 -0.0002236 0.0000498 -0.0002931 -0.0002530 0.0002542 -0.0000012 0.0000304 -0.0000345 0.0000358 0.0001889 -0.0003630 0.0002314 -0.0004290 -0.0000803 -0.0002384 0.0000515 -0.0001679 0.0000719 -0.0000555 0.0005972 -0.0006371 0.0000171 -0.0002269 0.0001788 -0.0002343 -0.0000646 0.0000979 0.0000364 0.0000418 0.0000639 -0.0000842 -0.0000939 0.0000542 0.0000219 0.0000069 0.0000594 -0.0001537 0.0000204 0.0000203 0.0001068 -0.0001448 -0.0000917 0.0000970
0.0001739 0.0001957 -0.0000322 0.0002023 0.0000610 -0.0000031 -0.0000194 0.0002742 -0.0000250 0.0002925 0.0002065 0.0001519 0.0000470 0.0000272 -0.0002952 -0.0004439 -0.0000881 0.0002881 -0.0000619 0.0001965 -0.0001511 0.0002001 0.0000388 -0.0000665 -0.0001227 0.0001171 -0.0000261 0.0001277 -0.0000747 0.0000613 -0.0000228 0.0001590 -0.0000438 0.0000750 0.0001012 -0.0000145 -0.0000607 0.0001860 -0.0007771 0.0009763 0.0000236 -0.0002383 -0.0000461 -0.0000673 0.0000585 -0.0001483 0.0000982 -0.0005267 -0.0000470 -0.0000046 0.0190491 -0.0423760 0.0017335 -0.0010114 0.0008133 -0.0008946 -0.0000463 0.0001394 0.0000107 -0.0004491 0.0001259 -0.0004445 -0.0000257 0.0001232 -0.0000700 0.0002202 0.0000362 0.0000077 -0.0000032 -0.0000539 0.0000190 0.0002182 -0.0001071 0.0001669 -0.0000695 0.0001170 0.0003726 -0.0006166 0.0000390 -0.0001738 -0.0001864 0.0000446 -0.0000211 -0.0000354 0.0000813 -0.0003213 0.0002430 -0.0004746 0.0006336 -0.0009429 0.0000791 -0.0002343 0.0002904 -0.0004228 0.0002456 -0.0006897 -0.0000102 -0.0001628 -0.0000367 -0.0000760 0.0000199 0.0000239 0.0001534 -0.0001418 0.0000158 -0.0001560 0.0001152 -0.0001845 0.0002294 0.0004279 -0.0000501 0.0002921 -0.0000625 0.0000962 0.0001517 -0.0001645 0.0001149 -0.0001684 0.0000436 -0.0001392 0.0000178 -0.0000719 -0.0000771 0.0000989 0.0004998 -0.0004774 0.0000121 0.0000134 0.0001105 -0.0001573 0.0000257 -0.0000559 0.0000834 -0.0001081 0.0001498 -0.0000829 0.0007701 -0.0005774 0.0000790 -0.0001405 0.0001817 -0.0004056 0.0001055 -0.0002243 0.0001807 -0.0002947 0.0001021 -0.0001470 0.0000761 0.0003174 -0.0000178 -0.0000973 -0.0002028 0.0000082 0.0000743 -0.0002306 0.0000735 0.0000672 -0.0194055 0.0128954 -0.0000371 0.0000668 -0.0000325 -0.0000047 -0.0000160 -0.0001329 -0.0000236 -0.0000811 -0.0000669 -0.0002185 0.0000230 -0.0001239 0.0000089 -0.0002114 0.0000814 -0.0003165 -0.0001860 0.0001077 0.0000037 0.0000236 0.0000260 -0.0000418 0.0000364 -0.0000789 -0.0001663 0.0000937 -0.0001605 -0.0002263 0.0001025 -0.0001922 -0.0000464 0.0000980 -0.0003128 -0.0002701 0.0000359 -0.0001127 0.0002003 -0.0002346 -0.0000678 0.0001057 0.0000705 -0.0000385 0.0000633 -0.0000752 -0.0005459 0.0003468 0.0000170 0.0000377 0.0000300 -0.0000523 -0.0000054 0.0001097 0.0001120 -0.0001006 0.0000875 0.0000211
0.0001755 0.0001572 -0.0000324 0.0002260 0.0000742 0.0000497 -0.0000101 0.0002279 -0.0000246 0.0003518 0.0001267 0.0000253 -0.0000109 0.0001279 -0.0003444 -0.0005064 -0.0000727 0.0002932 -0.0000875 0.0002285 -0.0002029 0.0003191 0.0000080 -0.0000336 -0.0001609 0.0001421 -0.0000294 0.0001351 -0.0000846 0.0000735 -0.0000191 0.0001903 0.0000377 -0.0000071 0.0001172 -0.0000038 -0.0000368 0.0001800 -0.0012554 0.0011290 -0.0000198 -0.0001747 0.0002093 -0.0002391 0.0000045 -0.0000733 0.0001224 -0.0006094 -0.0002450 0.0001157 0.0080351 -0.0131572 0.0015124 -0.0004248 0.0000974 -0.0004300 -0.0000553 0.0001959 0.0000316 -0.0004114 -0.0000012 -0.0002727 -0.0000268 0.0002383 -0.0000633 0.0002267 -0.0000157 0.0000952 -0.0000684 -0.0000329 0.0000135 0.0002507 0.0000662 -0.0000059 0.0000277 0.0000611 0.0004230 -0.0005393 0.0003585 -0.0003806 -0.0001605 0.0001081 0.0000209 -0.0002562 0.0002242 -0.0003488 0.0002601 -0.0004277 0.0005337 -0.0006751 0.0000440 -0.0002173 0.0003185 -0.0003950 -0.0000597 -0.0003761 0.0002432 -0.0003895 -0.0001300 0.0000672 -0.0000198 0.0001508 0.0002129 -0.0002052 0.0000203 -0.0001081 0.0001890 -0.0002112 0.0001109 0.0005829 -0.0000921 0.0003317 -0.0000039 0.0001156 0.0001697 -0.0001502 0.0000951 -0.0001277 -0.0000269 -0.0000894 -0.0000553 -0.0000354 -0.0000815 0.0001525 -0.0000229 0.0000975 0.0000238 0.0000709 0.0000149 -0.0000321 0.0000303 0.0000344 0.0000417 -0.0000445 0.0001251 -0.0000879 0.0003140 -0.0001673 -0.0000256 -0.0000187 0.0001385 -0.0003058 0.0001200 -0.0001397 0.0001256 -0.0002121 0.0000844 -0.0000331 -0.0016927 0.0015124 -0.0001136 -0.0000073 -0.0003179 0.0000661 -0.0001620 -0.0000206 0.0000832 0.0000566 -0.0048473 -0.0122484 0.0000261 0.0000091 0.0001940 -0.0003105 -0.0000024 -0.0000944 -0.0000068 -0.0001052 -0.0000830 -0.0001588 -0.0000602 -0.0000976 0.0000438 -0.0002607 0.0000712 -0.0002343 0.0001295 -0.0002693 0.0000336 -0.0000264 0.0001596 -0.0001903 -0.0002531 0.0001614 0.0001217 -0.0002445 -0.0001317 -0.0001285 0.0001377 -0.0002382 0.0000153 0.0000005 -0.0001812 -0.0004058 -0.0002044 0.0002265 0.0001969 -0.0002364 -0.0000543 -0.0000304 0.0001257 -0.0002556 0.0000805 -0.0001584 -0.0002699 0.0001589 0.0000165 -0.0001028 0.0000417 -0.0000788 0.0001524 -0.0001448 0.0001348 -0.0002155 -0.0000010 -0.0000584
0.0001256 -0.0000796 -0.0000190 0.0000660 0.0000920 -0.0001809 0.0000363 0.0000020 -0.0000287 0.0001926 -0.0000331 -0.0000377 -0.0000366 0.0000422 -0.0002160 -0.0002182 -0.0000441 0.0001899 -0.0000572 0.0000961 -0.0001413 0.0001664 -0.0000439 -0.0001127 -0.0000345 -0.0000510 -0.0000255 0.0000763 -0.0000578 0.0000015 -0.0000130 0.0001612 0.0001195 -0.0001007 0.0000132 -0.0000237 -0.0000115 0.0001178 -0.0000272 -0.0002524 -0.0000351 -0.0002071 0.0000628 -0.0001487 0.0000844 -0.0001412 0.0001196 -0.0005995 0.0000362 -0.0000456 0.0000369 -0.0045250 0.0008251 -0.0001004 -0.0005465 0.0000244 -0.0000619 0.0002142 -0.0000071 -0.0003113 0.0000667 -0.0002215 -0.0000902 0.0002894 0.0000051 0.0001487 -0.0000060 0.0000480 -0.0001733 0.0000447 0.0000231 0.0002417 0.0000088 0.0000364 0.0000913 0.0000286 -0.0000538 -0.0000795 0.0003925 -0.0004155 -0.0000691 0.0000795 0.0001148 -0.0004683 0.0002907 -0.0004688 0.0003366 -0.0004389 0.0001720 -0.0002320 0.0000706 -0.0002043 0.0000220 -0.0001718 -0.0000633 -0.0000151 0.0000186 -0.0002050 -0.0000770 -0.0000852 0.0000154 0.0001190 0.0000709 -0.0000807 0.0000411 -0.0000957 0.0007162 -0.0007163 -0.0000376 0.0007656 0.0002037 0.0001069 -0.0000184 0.0001620 0.0002004 -0.0001604 0.0001023 -0.0001313 -0.0000359 0.0000403 -0.0000696 -0.0000090 -0.0000130 0.0001123 -0.0000336 -0.0001906 0.0000265 0.0001317 0.0000236 -0.0000075 0.0000272 0.0000619 0.0000376 -0.0000191 0.0000709 -0.0000345 -0.0007368 0.0006083 0.0001293 -0.0000839 0.0001470 -0.0002263 0.0001475 -0.0000460 0.0000263 -0.0000590 0.0000678 0.0000718 -0.0001948 -0.0007264 -0.0001151 0.0000438 -0.0001838 -0.0000479 -0.0001732 0.0000175 -0.0000135 0.0002674 -0.0251994 0.0143556 -0.0000228 0.0000770 0.0002198 -0.0003298 -0.0000439 0.0000095 -0.0000543 -0.0000383 -0.0001165 -0.0000234 -0.0000348 -0.0000995 0.0000339 -0.0001658 0.0000371 -0.0001085 0.0001984 -0.0001644 -0.0000108 0.0000524 0.0001421 -0.0001568 -0.0003546 0.0003723 0.0001513 -0.0003494 -0.0001338 -0.0000098 0.0000226 -0.0000969 0.0000462 0.0000041 0.0003017 -0.0006986 -0.0001394 0.0002605 0.0000049 0.0000170 -0.0000061 0.0000132 0.0001496 -0.0001821 0.0000897 -0.0001347 0.0002669 -0.0001085 0.0000285 -0.0000331 0.0000890 0.0000314 0.0001358 -0.0000941 0.0001063 -0.0000545 -0.0000588 0.0000050
-0.0000410 -0.0000078 -0.0000068 0.0001045 0.0001422 -0.0001556 -0.0000203 0.0000850 -0.0000248 0.0003017 -0.0001801 0.0001529 0.0000553 -0.0000443 -0.0002858 -0.0003250 0.0000440 0.0000864 -0.0000006 0.0000776 -0.0000842 0.0001187 -0.0000757 0.0000023 -0.0000275 0.0000067 -0.0000201 0.0001749 -0.0000623 0.0000173 -0.0000156 0.0002279 0.0001357 -0.0001172 0.0000322 0.0000055 -0.0000125 0.0001448 0.0006920 -0.0007320 -0.0000190 -0.0001500 0.0000127 -0.0000477 0.0000986 -0.0000905 0.0001103 -0.0006214 0.0001848 0.0000225 0.0158857 -0.0304389 0.0031793 -0.0014356 -0.0001455 -0.0001099 -0.0000629 0.0002965 -0.0000344 -0.0001220 -0.0000256 -0.0001522 -0.0001074 0.0003518 0.0000158 0.0001958 -0.0000018 0.0001115 -0.0001410 0.0000267 0.0000277 0.0002997 -0.0000370 0.0001765 -0.0000426 0.0001984 0.0000125 -0.0001070 0.0000661 -0.0000275 0.0000440 0.0000272 0.0002068 -0.0002785 0.0002244 -0.0004109 0.0002085 -0.0003103 -0.0002414 0.0001746 0.0001189 -0.0001892 -0.0003020 0.0001500 0.0002946 -0.0002191 -0.0001287 -0.0000683 -0.0000708 -0.0001054 0.0000757 -0.0000559 -0.0000336 -0.0000202 0.0000350 -0.0001018 0.0006594 -0.0005785 -0.0001093 0.0006362 -0.0000447 0.0001960 -0.0000402 0.0001039 0.0002381 -0.0002855 0.0001475 -0.0002138 -0.0000274 -0.0000424 0.0000072 -0.0001964 0.0000026 -0.0000133 -0.0000173 -0.0001752 -0.0000024 -0.0000041 0.0001372 -0.0002022 -0.0000037 -0.0000550 0.0000571 -0.0001286 0.0001802 -0.0002325 -0.0000967 0.0000019 0.0000967 -0.0003231 0.0001647 -0.0004273 0.0001696 -0.0003313 0.0001566 -0.0003009 0.0000945 -0.0001403 0.0010541 -0.0016684 -0.0000876 -0.0001081 -0.0000143 -0.0002573 -0.0001189 -0.0000479 -0.0000009 0.0001242 -0.0142723 0.0132698 0.0000286 0.0000018 0.0003155 -0.0004468 -0.0000223 -0.0001836 -0.0000539 -0.0001737 -0.0001077 -0.0001662 0.0001369 -0.0003281 0.0000119 -0.0002231 -0.0000607 -0.0000670 0.0000664 -0.0001913 -0.0000289 0.0000427 0.0000983 -0.0001085 -0.0003958 0.0003417 0.0002628 -0.0005462 -0.0000670 -0.0001276 -0.0000447 -0.0000514 -0.0000160 0.0000359 -0.0003124 0.0001438 -0.0001606 0.0002866 0.0000795 -0.0000711 -0.0000259 0.0000263 0.0001370 -0.0001802 0.0000596 -0.0001100 -0.0001966 0.0003323 0.0000358 -0.0000304 0.0000553 0.0001156 0.0000812 -0.0000393 0.0001089 -0.0000197 0.0000324 -0.0000984
-0.0000101 -0.0000150 0.0000148 0.0000781 0.0001149 -0.0001441 -0.0000584 0.0001145 -0.0000166 0.0003288 0.0000299 0.0001049 0.0000880 -0.0000607 -0.0003098 -0.0004093 0.0000261 0.0000947 -0.0000170 0.0000605 -0.0000614 0.0000629 0.0000092 -0.0000492 -0.0000682 0.0000632 -0.0000103 0.0001749 -0.0000658 0.0000379 -0.0000137 0.0002064 0.0001086 -0.0000935 0.0000097 0.0000224 -0.0000066 0.0000905 0.0001417 -0.0002426 -0.0000030 -0.0001535 0.0000144 -0.0001139 0.0000562 -0.0000855 0.0001186 -0.0005808 0.0002788 -0.0001615 0.0176945 -0.0328713 -0.0028238 0.0028045 -0.0001786 0.0001518 -0.0000289 0.0003033 -0.0000461 -0.0000311 -0.0000729 -0.0001044 0.0000971 0.0001808 -0.0000522 0.0002460 -0.0000062 0.0001570 -0.0000137 -0.0001327 0.0000141 0.0003387 0.0000588 0.0001789 -0.0000051 0.0001883 0.0000102 -0.0000627 0.0001023 -0.0000667 -0.0001472 0.0002680 0.0003575 -0.0003397 0.0001848 -0.0002391 0.0000866 -0.0001223 0.0001481 -0.0002175 0.0000367 -0.0000871 -0.0002077 0.0001645 -0.0001691 0.0002113 -0.0000436 -0.0001358 -0.0000125 -0.0000616 0.0000646 0.0000681 0.0001500 -0.0000895 0.0000155 -0.0000163 0.0001733 0.0000167 -0.0000218 0.0005523 -0.0000488 0.0002053 0.0000459 0.0000926 0.0001754 -0.0001813 0.0001771 -0.0002080 -0.0001121 0.0000071 0.0000863 -0.0001974 0.0000018 0.0000685 -0.0003974 0.0003596 0.0000428 0.0000213 0.0001087 -0.0001415 -0.0000236 0.0000432 0.0001276 -0.0000728 0.0003693 -0.0003327 -0.0002523 0.0000407 0.0000127 -0.0001416 0.0001667 -0.0003381 0.0001469 -0.0002160 0.0001945 -0.0003206 0.0000810 -0.0000471 -0.0005057 0.0006189 -0.0001205 -0.0000086 -0.0001667 -0.0000199 -0.0001187 0.0001793 -0.0000180 0.0000659 -0.0023724 0.0076501 0.0000567 -0.0000120 -0.0001366 0.0000757 -0.0000248 -0.0001275 -0.0000131 -0.0001074 0.0000177 -0.0002149 0.0001386 -0.0003079 0.0000281 -0.0001047 -0.0000700 0.0000917 -0.0001409 0.0001555 -0.0000365 0.0000915 0.0000061 0.0000151 -0.0004152 0.0004539 0.0002640 -0.0005517 -0.0000107 0.0000155 0.0000081 -0.0000339 -0.0000158 0.0000657 -0.0004484 0.0005766 -0.0000857 0.0003355 0.0001318 -0.0001165 -0.0000121 0.0000862 0.0001186 -0.0000585 0.0000300 -0.0000400 -0.0001889 0.0004761 0.0000196 0.0000766 0.0000299 0.0002816 -0.0000840 0.0002148 0.0000966 0.0000487 0.0001958 -0.0001451
0.0000109 0.0000880 -0.0000053 0.0001637 0.0000525 -0.0000365 -0.0000477 0.0001437 -0.0000183 0.0004426 0.0001068 0.0001156 0.0000451 0.0000320 -0.0003830 -0.0005384 -0.0000056 0.0001990 -0.0000126 0.0001581 -0.0001686 0.0002442 0.0000330 0.0000752 -0.0001578 0.0002075 -0.0000151 0.0002813 -0.0000603 0.0000404 -0.0000167 0.0002485 0.0000088 0.0000059 -0.0000583 0.0000772 0.0000053 0.0000717 0.0019260 -0.0020354 0.0000125 -0.0001412 -0.0000982 -0.0000228 0.0000509 -0.0000367 0.0001174 -0.0005422 0.0000208 -0.0000313 0.0046900 -0.0184156 -0.0025909 0.0011109 -0.0005777 0.0000338 -0.0000350 0.0001519 -0.0001024 -0.0004487 -0.0000198 -0.0001835 0.0001401 0.0001118 -0.0000707 0.0001641 -0.0000123 0.0000405 0.0000496 -0.0002416 -0.0000043 0.0002567 0.0000922 -0.0000299 0.0000178 0.0000505 -0.0003530 0.0001413 0.0004646 -0.0005687 -0.0003306 0.0002827 0.0004824 -0.0009759 0.0002600 -0.0005179 0.0001483 -0.0002866 0.0000280 -0.0004495 0.0000065 -0.0001935 0.0000447 -0.0000449 -0.0003352 0.0003265 0.0000104 -0.0002817 0.0000998 -0.0001732 -0.0000061 0.0000289 0.0002481 -0.0002321 -0.0000083 -0.0000921 0.0001023 0.0002249 -0.0001202 0.0005599 0.0001549 -0.0000609 -0.0000396 0.0001124 0.0001374 -0.0001373 0.0001694 -0.0002151 -0.0001149 -0.0000221 0.0000236 -0.0000975 0.0000115 0.0000765 0.0000788 -0.0006168 0.0000461 0.0000281 0.0000912 -0.0001166 -0.0000537 0.0000538 0.0000828 -0.0000297 0.0001306 -0.0000350 -0.0001661 -0.0001775 0.0000745 -0.0001653 0.0001697 -0.0002917 0.0001349 -0.0001553 0.0001352 -0.0002208 0.0000128 0.0000235 0.0001065 0.0004599 -0.0001106 0.0000535 -0.0002981 0.0002037 -0.0000235 0.0001768 -0.0001586 0.0001505 -0.0011974 0.0068598 -0.0000519 0.0000914 -0.0000551 0.0000750 -0.0000808 -0.0000483 -0.0000244 -0.0000427 0.0000914 -0.0001873 0.0000871 -0.0002384 -0.0000121 -0.0000085 -0.0000408 0.0001235 -0.0001242 0.0001263 -0.0000374 0.0001138 -0.0000775 0.0001103 -0.0001986 0.0003085 -0.0000158 -0.0001113 -0.0001257 0.0003195 0.0000862 -0.0000582 -0.0000473 0.0000813 -0.0003934 0.0004145 0.0002845 -0.0000531 0.0001323 -0.0001232 -0.0000265 0.0001145 0.0001302 -0.0000593 0.0000464 -0.0000384 0.0001950 0.0001248 0.0000075 0.0001386 0.0000240 0.0003437 -0.0001250 0.0002755 0.0000983 0.0000545 0.0002573 -0.0001987
-0.0000595 0.0000874 -0.0000271 0.0002151 0.0000728 -0.0000087 -0.0000618 0.0001390 -0.0000155 0.0004908 0.0001112 0.0000172 0.0000256 0.0001065 -0.0003941 -0.0005327 0.0000339 0.0001683 -0.0000090 0.0002492 -0.0003290 0.0004396 0.0000014 0.0002287 -0.0001555 0.0002882 -0.0000086 0.0003559 -0.0000669 0.0000570 -0.0000116 0.0002420 0.0000413 -0.0000518 -0.0001138 0.0001850 0.0000143 0.0000189 0.0007737 -0.0009786 0.0000009 -0.0000171 -0.0000477 0.0000320 0.0000572 0.0000478 0.0000970 -0.0004642 -0.0000996 0.0001935 0.0051798 -0.0095346 0.0035268 -0.0018598 0.0004487 -0.0006208 -0.0000389 0.0002125 -0.0000979 -0.0002618 -0.0000034 -0.0000955 0.0000384 0.0002720 -0.0000781 0.0002599 -0.0000834 0.0001852 -0.0000576 -0.0000101 -0.0000136 0.0002793 -0.0000730 0.0001906 -0.0001688 0.0002667 -0.0002236 0.0002059 0.0006754 -0.0006977 0.0000884 -0.0000490 0.0004853 -0.0009681 0.0002926 -0.0004302 0.0001348 -0.0001819 -0.0003582 0.0000541 0.0000255 -0.0001159 -0.0002929 0.0003214 -0.0000675 0.0002595 -0.0001462 -0.0000072 0.0000698 -0.0000402 0.0000675 0.0001150 0.0001121 -0.0000309 -0.0000095 0.0000294 -0.0002232 0.0003544 -0.0002151 0.0004977 0.0001475 -0.0000221 -0.0000342 0.0001594 0.0001433 -0.0001007 0.0001659 -0.0001641 -0.0000576 0.0000564 -0.0001269 0.0001091 -0.0000437 0.0001862 0.0000662 -0.0006904 0.0000247 0.0001476 0.0000407 -0.0000067 -0.0000480 0.0001252 -0.0001710 0.0002854 -0.0000158 0.0001745 0.0009992 -0.0009756 0.0000201 0.0000026 0.0001431 -0.0001719 0.0001140 -0.0000052 0.0000800 -0.0001059 0.0000241 0.0001034 0.0010437 -0.0009211 -0.0000201 0.0000911 -0.0002166 0.0001459 -0.0000024 0.0002133 -0.0000886 0.0001008 -0.0100853 0.0107472 0.0000021 0.0000556 0.0003583 -0.0002556 -0.0000848 0.0000808 -0.0000565 0.0001614 0.0000713 -0.0000286 -0.0000264 -0.0000304 -0.0000125 0.0001208 -0.0000315 0.0002304 -0.0000462 0.0001840 -0.0000694 0.0001986 -0.0002538 0.0003148 0.0000111 0.0001824 0.0000462 0.0004642 -0.0000045 0.0004208 0.0000871 0.0000600 -0.0000713 0.0001336 -0.0007039 0.0008090 0.0000340 0.0001459 0.0000841 -0.0000345 -0.0000839 0.0002707 0.0001037 0.0000453 0.0000106 0.0000330 -0.0004113 0.0006137 -0.0000039 0.0001662 -0.0000187 0.0004123 0.0000561 0.0000481 0.0000784 0.0000795 0.0001012 -0.0000689
0.0000006 -0.0000215 -0.0000216 0.0002164 0.0001285 -0.0001087 -0.0000300 -0.0000412 -0.0000202 0.0002724 -0.0002327 0.0001186 -0.0000344 -0.0000463 -0.0001269 0.0000369 0.0000137 0.0001167 -0.0000597 0.0001951 -0.0002800 0.0004022 -0.0000067 0.0001385 0.0000179 0.0000771 -0.0000076 0.0001443 -0.0000589 0.0000036 -0.0000109 0.0000654 0.0001219 -0.0001544 0.0000035 -0.0000345 0.0000235 -0.0001844 -0.0027868 0.0014429 -0.0000117 -0.0000653 0.0001941 -0.0002981 0.0000113 -0.0000520 0.0000905 -0.0003248 0.0000128 -0.0001403 0.0003297 -0.0022879 -0.0007548 0.0022946 0.0005248 -0.0005111 -0.0000419 0.0001605 -0.0000759 -0.0002691 0.0000392 -0.0002082 -0.0000059 0.0002326 -0.0001226 0.0003450 -0.0000945 0.0001975 -0.0001678 0.0001131 -0.0000202 0.0002532 -0.0002736 0.0004499 -0.0000947 0.0002375 0.0002258 -0.0001437 0.0005665 -0.0005877 0.0003276 -0.0002645 0.0006521 -0.0009380 0.0002559 -0.0002970 0.0000996 -0.0001011 -0.0003466 0.0004129 0.0000628 -0.0000866 -0.0002391 0.0002386 -0.0000197 0.0002241 -0.0003034 0.0002037 -0.0000030 0.0001455 0.0000250 0.0002354 0.0001222 -0.0000437 -0.0000116 0.0001138 -0.0001103 0.0000388 -0.0000364 0.0002821 0.0002858 -0.0000835 0.0000633 0.0001264 0.0001614 -0.0000686 0.0001618 -0.0001113 -0.0000943 0.0002002 -0.0001890 0.0002866 -0.0001017 0.0002800 -0.0004876 0.0003890 0.0000481 0.0001733 0.0000217 0.0000407 -0.0000236 0.0001638 -0.0002126 0.0004141 0.0000821 0.0001661 0.0004436 -0.0006618 0.0000072 0.0001374 0.0001147 -0.0000739 0.0000551 0.0001257 0.0000396 -0.0000388 0.0000176 0.0001920 0.0002884 -0.0000166 0.0000009 0.0001326 -0.0002053 0.0002008 -0.0000492 0.0003781 -0.0000671 0.0000849 -0.0092856 0.0027603 0.0000609 -0.0000076 0.0003280 -0.0001400 -0.0000806 0.0001671 -0.0000616 0.0003264 0.0000174 0.0000794 -0.0001085 0.0001181 -0.0000128 0.0002776 -0.0000194 0.0003065 -0.0001123 0.0004059 -0.0000932 0.0002669 -0.0003117 0.0003989 -0.0000155 0.0002379 -0.0001009 0.0007104 0.0001483 0.0003010 0.0000182 0.0001877 -0.0000717 0.0001847 -0.0006781 0.0011735 -0.0001872 0.0004734 -0.0000468 0.0001443 -0.0001329 0.0004061 0.0000638 0.0001935 -0.0000096 0.0001104 -0.0010844 0.0012691 -0.0000390 0.0003038 -0.0000638 0.0005140 0.0000093 0.0001746 0.0000577 0.0001771 0.0000166 0.0000899
-0.0000246 0.0000359 -0.0000499 0.0003323 0.0000756 0.0000130 -0.0000445 -0.0000522 -0.0000281 0.0003073 0.0000075 -0.0002011 -0.0000657 -0.0000344 -0.0001030 0.0001072 -0.0000519 0.0002130 -0.0000911 0.0003354 -0.0001749 0.0004447 -0.0000024 0.0002778 -0.0001003 0.0002777 -0.0000074 0.0002282 -0.0000780 0.0000313 -0.0000207 0.0000798 0.0000127 -0.0000273 -0.0000859 0.0001156 0.0000101 -0.0001620 -0.0006641 -0.0000258 -0.0000248 0.0000928 0.0001801 -0.0002639 -0.0001032 0.0001964 0.0000905 -0.0003153 0.0001047 -0.0002754 -0.0081545 0.0117738 -0.0048439 0.0044554 -0.0000957 0.0000280 -0.0000800 0.0002537 -0.0000818 -0.0000938 0.0000202 -0.0000716 -0.0001169 0.0004046 -0.0001153 0.0004187 -0.0000696 0.0002499 -0.0001577 0.0001450 -0.0000139 0.0002722 -0.0001084 0.0003947 -0.0000064 0.0002119 0.0001170 0.0000221 0.0002995 -0.0000855 0.0001428 -0.0000314 -0.0001111 0.0000737 0.0002219 -0.0000995 0.0000693 0.0000317 -0.0002288 0.0003610 0.0000787 0.0000013 -0.0001704 0.0001983 -0.0005830 0.0007793 -0.0003003 0.0002788 -0.0000069 0.0003706 -0.0001103 0.0004669 0.0000546 0.0000921 -0.0000399 0.0002164 -0.0000280 0.0002452 0.0000105 0.0002366 0.0002763 -0.0000848 0.0000392 0.0002291 0.0000639 0.0001077 0.0001418 -0.0000455 -0.0002220 0.0004911 -0.0001855 0.0003451 -0.0001444 0.0004275 -0.0007226 0.0010768 0.0000185 0.0003067 0.0000045 0.0000987 -0.0000562 0.0002854 -0.0000684 0.0004246 0.0001815 0.0001198 -0.0002501 0.0002410 0.0001588 0.0002047 0.0000945 0.0000469 -0.0000357 0.0002473 0.0000031 0.0000439 -0.0000295 0.0003085 -0.0019013 0.0018987 -0.0000175 0.0002043 -0.0003114 0.0003249 -0.0000369 0.0004805 -0.0001933 0.0001815 0.0019202 -0.0115632 -0.0001332 0.0001487 0.0001338 -0.0000408 -0.0001259 0.0001999 -0.0000228 0.0003361 -0.0000195 0.0000937 -0.0000646 0.0000322 0.0000573 0.0002343 -0.0000239 0.0002139 -0.0001077 0.0002613 -0.0000690 0.0001947 -0.0002309 0.0003129 -0.0000498 0.0002225 0.0002158 0.0002286 -0.0000230 0.0004037 0.0000271 0.0001343 -0.0000459 0.0001112 0.0000345 0.0002212 -0.0000029 0.0002357 -0.0000442 0.0000959 -0.0001411 0.0002855 0.0000561 0.0000905 0.0000063 0.0000406 -0.0009735 0.0010949 -0.0000589 0.0002255 -0.0000583 0.0004126 -0.0000815 0.0002289 0.0000453 0.0001114 -0.0000235 0.0000272
-0.0000082 -0.0000571 -0.0000608 0.0002951 0.0000605 -0.0000245 -0.0000539 -0.0001044 -0.0000400 0.0002398 -0.0000303 -0.0001949 -0.0000549 -0.0000570 -0.0000426 0.0002542 -0.0000355 0.0002189 -0.0000808 0.0004179 -0.0000790 0.0003904 -0.0000130 0.0003666 -0.0001213 0.0003327 -0.0000002 0.0002539 -0.0000878 0.0000434 -0.0000269 0.0000531 -0.0000201 -0.0000015 -0.0000865 0.0001810 -0.0000054 -0.0001460 -0.0007670 0.0008193 -0.0000340 0.0001981 0.0000028 -0.0002079 -0.0000754 0.0002295 0.0000660 -0.0002095 0.0001670 -0.0002163 -0.0149026 0.0184666 0.0029460 -0.0018502 0.0000060 -0.0001582 -0.0000763 0.0002753 -0.0000607 0.0000323 0.0000264 0.0000405 -0.0000380 0.0004273 -0.0000817 0.0004626 -0.0000575 0.0003204 -0.0001273 0.0002232 -0.0000159 0.0002517 -0.0000273 0.0003406 -0.0000358 0.0002508 -0.0003171 0.0003556 -0.0000568 0.0002664 -0.0000032 0.0001995 -0.0006720 0.0009972 0.0001590 0.0000651 0.0001074 0.0000623 -0.0000116 -0.0000337 -0.0000291 0.0001296 -0.0003060 0.0003949 -0.0006191 0.0010067 -0.0003934 0.0004675 -0.0000070 0.0004877 -0.0000410 0.0005102 -0.0000352 0.0002415 -0.0000430 0.0002759 0.0000170 0.0004000 0.0000961 0.0000690 -0.0000733 0.0001730 0.0000802 0.0002457 -0.0000178 0.0002253 0.0001339 -0.0000022 -0.0001675 0.0005477 -0.0001049 0.0003972 -0.0001200 0.0004970 -0.0003247 0.0007618 -0.0000079 0.0004453 0.0000245 0.0001198 -0.0000847 0.0003607 0.0000888 0.0003195 0.0001692 0.0002077 -0.0005409 0.0008570 0.0001462 0.0003853 0.0000746 0.0001923 -0.0000728 0.0004288 -0.0000523 0.0001655 -0.0000157 0.0003748 -0.0022148 0.0019130 -0.0000553 0.0003315 -0.0002852 0.0003271 -0.0001984 0.0007725 -0.0001477 0.0002550 -0.0024429 -0.0005430 -0.0002226 0.0002555 -0.0004518 0.0006194 -0.0001304 0.0003376 -0.0000543 0.0005466 0.0000629 0.0001013 -0.0000164 0.0000834 0.0000694 0.0003558 -0.0000423 0.0002946 -0.0000440 0.0003918 -0.0000789 0.0002481 -0.0002730 0.0003694 -0.0000786 0.0005341 0.0002344 0.0003253 -0.0000412 0.0005415 -0.0000379 0.0002707 -0.0000128 0.0001180 -0.0000658 0.0004028 0.0001622 0.0000972 -0.0000979 0.0001761 -0.0000917 0.0003468 0.0000185 0.0002909 -0.0000418 0.0001379 -0.0007720 0.0009360 -0.0000637 0.0002888 -0.0000050 0.0003880 -0.0000768 0.0002433 0.0000194 0.0002076 -0.0001300 0.0002122
0.0000465 0.0000279 -0.0000614 0.0003879 0.0000586 0.0001097 -0.0000589 -0.0000229 -0.0000545 0.0003229 -0.0004301 0.0002411 -0.0000309 -0.0000235 -0.0001004 0.0001451 -0.0000427 0.0003149 -0.0000798 0.0005571 -0.0000750 0.0005800 -0.0000772 0.0005627 -0.0000676 0.0003309 0.0000025 0.0004176 -0.0001159 0.0001044 -0.0000384 0.0001554 -0.0000964 0.0001047 -0.0001338 0.0003035 -0.0000312 -0.0000127 -0.0014373 0.0011736 -0.0000486 0.0003603 -0.0000778 -0.0000103 -0.0000602 0.0003230 0.0000602 -0.0002404 -0.0000816 0.0000849 -0.0181827 0.0138101 0.0060298 -0.0048252 -0.0000393 0.0002043 -0.0001175 0.0003815 -0.0001089 0.0003227 -0.0000275 0.0001867 -0.0000262 0.0005013 -0.0000367 0.0005606 -0.0000898 0.0004813 -0.0002711 0.0004464 -0.0000216 0.0002785 -0.0000813 0.0005964 -0.0001583 0.0003968 -0.0002837 0.0003203 -0.0001539 0.0004474 -0.0000718 0.0003825 -0.0000001 0.0007041 0.0000844 0.0001213 0.0000301 0.0001152 -0.0002861 0.0004825 -0.0000316 0.0001448 -0.0000566 0.0003052 -0.0002660 0.0010568 -0.0003213 0.0004283 0.0000111 0.0006693 -0.0000336 0.0003595 0.0000407 0.0000507 -0.0000235 0.0002176 -0.0000827 0.0003778 -0.0000668 0.0001283 -0.0003475 0.0003550 0.0000508 0.0001368 -0.0000350 0.0001702 0.0001234 -0.0000275 -0.0000357 0.0002664 -0.0001601 0.0002888 -0.0001173 0.0003598 -0.0001621 0.0002303 0.0000082 0.0002340 0.0000318 0.0000490 -0.0000839 0.0001935 -0.0000003 0.0003026 0.0000924 0.0002249 0.0001091 0.0002988 0.0000090 0.0002058 0.0000701 0.0000326 -0.0000513 0.0001860 0.0000162 0.0000171 -0.0000566 0.0002147 0.0005459 -0.0006191 -0.0000901 0.0002851 -0.0002214 0.0002779 -0.0001946 0.0006832 -0.0000708 0.0001663 -0.0023186 0.0050643 -0.0000942 0.0001301 -0.0005719 0.0007780 -0.0001206 0.0002777 -0.0000856 0.0005957 0.0001709 0.0000054 -0.0000465 0.0000887 -0.0000260 0.0004299 0.0000278 0.0001867 0.0000013 0.0002838 -0.0000792 0.0002427 -0.0003765 0.0004829 -0.0003571 0.0008002 -0.0000350 0.0005822 0.0001925 0.0001259 -0.0000745 0.0002621 -0.0000956 0.0002026 -0.0000919 0.0007156 0.0000707 0.0001199 -0.0000798 0.0001417 -0.0000922 0.0003356 -0.0000195 0.0002861 -0.0000361 0.0001399 -0.0002347 0.0004122 -0.0000628 0.0002993 -0.0000724 0.0004006 -0.0000847 0.0002577 0.0000162 0.0001927 -0.0000540 0.0001731
-0.0000214 0.0001210 -0.0000534 0.0003902 -0.0000050 0.0001971 -0.0000445 -0.0000238 -0.0000575 0.0002948 -0.0002493 0.0000993 -0.0000785 0.0000259 -0.0000719 0.0001609 -0.0000517 0.0003192 -0.0000735 0.0005543 -0.0000448 0.0005084 -0.0001009 0.0006220 -0.0000486 0.0004067 0.0000077 0.0004380 -0.0001530 0.0001726 -0.0000348 0.0001951 -0.0000175 0.0000323 -0.0002473 0.0003658 -0.0000414 0.0000288 -0.0012133 0.0003978 -0.0000580 0.0004180 -0.0001298 0.0001655 -0.0000783 0.0003863 0.0000830 -0.0003181 -0.0001764 0.0000884 0.0002415 -0.0087457 0.0023491 -0.0022656 -0.0000321 0.0002311 -0.0001208 0.0003869 -0.0001840 0.0005289 -0.0001305 0.0003578 -0.0000326 0.0005002 -0.0000103 0.0005931 -0.0001051 0.0005308 -0.0002550 0.0004763 -0.0000267 0.0002695 -0.0001004 0.0006418 -0.0002760 0.0005373 -0.0001125 0.0003177 0.0000995 0.0005176 -0.0001000 0.0004616 0.0002830 0.0003017 0.0001168 0.0001397 -0.0000302 0.0002403 -0.0002333 0.0006607 0.0000162 0.0001662 -0.0000860 0.0002842 -0.0003780 0.0012086 -0.0001739 0.0004067 -0.0001049 0.0009092 -0.0000833 0.0005070 0.0000111 0.0000407 -0.0000384 0.0002961 -0.0003198 0.0004396 -0.0002993 0.0003743 -0.0000720 0.0001280 -0.0000637 0.0002400 -0.0000565 0.0002522 0.0001067 0.0000233 -0.0001020 0.0004009 -0.0001748 0.0003614 -0.0001250 0.0004143 -0.0001502 0.0004223 -0.0000038 0.0002907 -0.0000531 0.0001868 -0.0000496 0.0002115 -0.0001179 0.0004570 0.0001266 0.0001867 -0.0003749 0.0008299 -0.0000497 0.0003512 0.0000827 0.0000838 -0.0000551 0.0002498 -0.0000202 0.0000824 -0.0000824 0.0003068 0.0004990 0.0000416 -0.0001374 0.0003953 -0.0002183 0.0003560 -0.0002109 0.0006441 -0.0000911 0.0002068 -0.0041364 0.0024264 -0.0001399 0.0001673 -0.0006830 0.0009153 -0.0001340 0.0003569 -0.0000811 0.0006786 -0.0000354 0.0002372 -0.0002541 0.0003329 -0.0000429 0.0004803 0.0000653 0.0001253 0.0000045 0.0003568 -0.0001071 0.0002925 -0.0004784 0.0005936 -0.0004079 0.0008322 -0.0000033 0.0005593 0.0002521 0.0000992 -0.0000837 0.0002609 -0.0001990 0.0003620 -0.0004237 0.0011100 -0.0002159 0.0002663 -0.0000027 0.0000758 -0.0001122 0.0003953 -0.0000259 0.0003116 -0.0000413 0.0001628 0.0002944 -0.0001262 -0.0000818 0.0003723 -0.0001223 0.0004412 -0.0001114 0.0003210 -0.0000114 0.0002451 0.0000849 0.0000840
-0.0000739 0.0002019 -0.0000595 0.0004496 -0.0000717 0.0002944 -0.0000453 0.0000647 -0.0000667 0.0003615 -0.0003105 0.0002253 -0.0001243 0.0001318 -0.0001275 0.0000647 -0.0000729 0.0004118 -0.0000077 0.0005463 -0.0001216 0.0005751 -0.0001186 0.0007051 -0.0001077 0.0005368 0.0000035 0.0004225 -0.0001798 0.0002248 -0.0000370 0.0002626 0.0000236 -0.0000077 -0.0001810 0.0003075 -0.0000455 0.0000380 -0.0003385 -0.0004097 -0.0000505 0.0003437 -0.0000996 0.0000581 -0.0001661 0.0003958 0.0001021 -0.0003925 -0.0000975 -0.0000528 0.0047005 -0.0022513 0.0027897 -0.0021133 0.0000762 -0.0004198 -0.0001083 0.0001128 -0.0001919 -0.0000287 0.0000172 -0.0000217 0.0000451 0.0003228 -0.0000556 0.0005159 -0.0001019 0.0003542 -0.0002069 0.0003806 -0.0000359 0.0001315 -0.0001867 0.0004282 -0.0002359 0.0003882 -0.0001757 0.0002397 0.0003666 0.0001229 0.0000185 0.0001609 -0.0002247 0.0005706 0.0001090 -0.0000431 0.0000169 0.0000578 0.0002054 -0.0002075 -0.0000303 0.0001020 -0.0002467 0.0003762 -0.0005027 0.0009623 -0.0001798 0.0004907 -0.0001953 0.0008828 -0.0000490 0.0003792 -0.0001192 0.0001134 -0.0000375 0.0002187 0.0000890 -0.0000512 -0.0000214 0.0000943 0.0000838 -0.0000059 -0.0000414 0.0002094 0.0000159 0.0001996 0.0000793 0.0000724 -0.0002520 0.0005227 -0.0000821 0.0003858 -0.0001037 0.0004125 -0.0004320 0.0009398 -0.0000388 0.0003290 -0.0000571 0.0001932 -0.0000585 0.0001876 0.0000444 0.0002724 0.0000921 0.0001920 -0.0007694 0.0011210 -0.0001870 0.0005193 0.0000737 0.0001221 -0.0000981 0.0003067 -0.0000682 0.0001412 -0.0000521 0.0002878 0.0002928 0.0003748 -0.0001156 0.0003616 -0.0000997 0.0003574 -0.0000298 0.0005644 -0.0000065 0.0001140 -0.0032653 0.0041064 -0.0001653 0.0001787 -0.0002372 0.0004320 -0.0000977 0.0003464 -0.0000654 0.0006722 -0.0002300 0.0004474 -0.0002032 0.0003471 -0.0000158 0.0004521 0.0000319 0.0001099 -0.0000934 0.0005087 -0.0001284 0.0002979 -0.0003954 0.0004900 -0.0002393 0.0006416 -0.0002182 0.0007718 0.0002075 0.0001825 -0.0000724 0.0002543 -0.0001283 0.0003046 -0.0008275 0.0009425 -0.0001321 0.0001462 -0.0000467 0.0001150 -0.0000895 0.0003684 -0.0000510 0.0003481 -0.0000630 0.0001905 0.0001953 0.0000173 -0.0000886 0.0003923 -0.0000711 0.0003398 -0.0001655 0.0003793 -0.0000131 0.0002438 0.0000538 0.0000843
-0.0000405 0.0002360 -0.0000772 0.0004792 -0.0001025 0.0003528 -0.0001015 0.0001726 -0.0000659 0.0004315 -0.0003361 0.0001947 -0.0000981 0.0002217 -0.0001996 -0.0000969 -0.0001596 0.0005344 -0.0000393 0.0006240 -0.0002153 0.0007359 -0.0001097 0.0007096 -0.0001916 0.0005563 -0.0000063 0.0005046 -0.0001811 0.0002513 -0.0000411 0.0003720 -0.0001184 0.0001576 -0.0001589 0.0003871 -0.0000361 0.0001044 0.0012214 -0.0012023 -0.0000678 0.0004246 0.0000308 0.0001172 -0.0001412 0.0004428 0.0000999 -0.0005042 0.0002568 -0.0000941 0.0053854 -0.0024587 0.0009627 -0.0007031 0.0002142 -0.0002417 -0.0001552 0.0002053 -0.0001676 0.0000962 0.0000627 -0.0000053 -0.0000412 0.0003758 -0.0001170 0.0006196 -0.0001038 0.0004218 -0.0002627 0.0004024 -0.0000379 0.0001565 -0.0001660 0.0005053 -0.0001350 0.0003192 -0.0000886 0.0002031 0.0000296 0.0003082 -0.0001075 0.0004394 -0.0000355 0.0006934 0.0000212 0.0001583 -0.0001570 0.0003060 -0.0000055 0.0000747 -0.0000392 0.0001795 -0.0000687 0.0004054 -0.0005985 0.0009224 -0.0001005 0.0004626 -0.0002091 0.0009365 -0.0000998 0.0005147 0.0000665 0.0000108 -0.0000387 0.0002807 0.0004103 -0.0003633 0.0000801 0.0000944 -0.0003009 0.0004880 -0.0000880 0.0002992 -0.0000092 0.0002859 0.0000719 0.0001156 -0.0002830 0.0006744 -0.0001693 0.0004892 -0.0001347 0.0005099 -0.0009432 0.0016260 -0.0000572 0.0004294 -0.0000971 0.0002791 -0.0000750 0.0002703 0.0001463 0.0002841 0.0001309 0.0002235 -0.0004282 0.0011431 -0.0002111 0.0006313 0.0000506 0.0002246 -0.0001006 0.0003991 -0.0001338 0.0002663 -0.0000689 0.0003710 0.0001186 0.0006912 -0.0001135 0.0004091 -0.0003217 0.0005698 -0.0000079 0.0005844 0.0000325 0.0000757 -0.0023131 0.0088474 -0.0001901 0.0002288 -0.0002844 0.0005015 -0.0001341 0.0004549 -0.0000696 0.0007527 -0.0001119 0.0004418 -0.0000927 0.0002733 0.0000054 0.0004913 -0.0000740 0.0002531 -0.0002015 0.0007010 -0.0001372 0.0003298 -0.0004289 0.0005254 -0.0001502 0.0006920 0.0001961 0.0004658 0.0000520 0.0002592 -0.0000685 0.0003100 -0.0001203 0.0003137 -0.0007740 0.0006540 0.0000288 0.0001238 -0.0000786 0.0001947 -0.0000911 0.0003110 -0.0000164 0.0002505 -0.0000646 0.0001709 -0.0001205 0.0003311 -0.0000801 0.0002989 -0.0000783 0.0002670 -0.0002516 0.0004111 0.0000071 0.0001413 0.0000667 -0.0000109
-0.0000810 0.0002619 -0.0000393 0.0003536 -0.0000504 0.0001796 -0.0000772 0.0000342 -0.0000672 0.0001988 -0.0001641 -0.0001006 -0.0001234 0.0000887 0.0000125 0.0003301 -0.0001206 0.0003938 -0.0000921 0.0005036 -0.0001330 0.0005606 -0.0001137 0.0004997 -0.0001409 0.0003348 -0.0000090 0.0003251 -0.0001690 0.0001998 -0.0000354 0.0003203 -0.0001569 0.0001827 -0.0001155 0.0002701 -0.0000168 0.0000373 0.0003211 -0.0001991 -0.0000856 0.0003458 0.0001276 0.0000634 -0.0000658 0.0002744 0.0000910 -0.0005200 0.0002785 -0.0001658 0.0069159 -0.0144105 -0.0017553 0.0011915 0.0002082 -0.0001554 -0.0001723 0.0002306 -0.0002150 0.0001893 -0.0001264 0.0002073 -0.0001019 0.0003544 -0.0000987 0.0005961 -0.0001044 0.0004116 -0.0002349 0.0003726 -0.0000445 0.0001596 -0.0001061 0.0004183 0.0000087 0.0001816 -0.0002657 0.0002912 -0.0002363 0.0005579 -0.0005699 0.0009761 0.0003259 0.0003867 0.0000963 0.0001966 -0.0002701 0.0004771 0.0001975 -0.0000000 -0.0000823 0.0002358 -0.0002252 0.0005932 -0.0003957 0.0010637 -0.0001295 0.0004816 -0.0001290 0.0008566 -0.0001025 0.0005118 0.0001124 -0.0000401 -0.0000680 0.0003395 0.0002520 -0.0002068 -0.0001653 0.0002419 -0.0003076 0.0004975 -0.0001213 0.0003139 -0.0000844 0.0003771 0.0000876 0.0001077 -0.0002010 0.0006369 -0.0002203 0.0005379 -0.0001478 0.0004840 -0.0004264 0.0008583 -0.0000426 0.0004226 -0.0000908 0.0002863 -0.0000574 0.0002291 0.0001209 0.0003460 0.0002422 0.0001574 -0.0015639 0.0018338 -0.0000782 0.0005385 0.0000288 0.0002941 -0.0000651 0.0004147 -0.0002240 0.0004012 -0.0001373 0.0004512 0.0017055 0.0001940 -0.0001577 0.0004187 -0.0003876 0.0006167 -0.0002676 0.0006379 0.0000004 0.0001441 0.0000587 -0.0012486 -0.0001652 0.0002252 -0.0006196 0.0009095 -0.0001573 0.0005198 -0.0000674 0.0007644 -0.0001129 0.0004368 -0.0002022 0.0004089 -0.0000285 0.0005160 -0.0001308 0.0003019 -0.0001763 0.0007336 -0.0001333 0.0003503 -0.0004022 0.0004989 0.0000027 0.0005492 -0.0000336 0.0007208 -0.0001270 0.0005257 -0.0001205 0.0003516 -0.0000856 0.0003169 -0.0012012 0.0013632 -0.0000250 0.0002785 -0.0000571 0.0002014 -0.0001225 0.0003915 0.0000215 0.0002710 -0.0000794 0.0002218 -0.0004784 0.0006454 -0.0000471 0.0003353 -0.0000758 0.0002664 -0.0002063 0.0004054 -0.0000092 0.0001841 0.0001143 0.0000366
-0.0001871 0.0004103 -0.0000333 0.0004025 -0.0000710 0.0002804 -0.0000276 0.0001159 -0.0000654 0.0003049 -0.0000731 0.0000444 -0.0001416 0.0001478 -0.0000891 0.0001289 -0.0000775 0.0003838 -0.0001268 0.0006084 -0.0002492 0.0007160 -0.0001069 0.0005432 -0.0000863 0.0003291 -0.0000046 0.0004160 -0.0001849 0.0002301 -0.0000349 0.0004205 -0.0001498 0.0001811 -0.0001883 0.0004043 -0.0000308 0.0001422 0.0004114 -0.0003200 -0.0000931 0.0003825 -0.0001377 0.0003328 -0.0001677 0.0004187 0.0000931 -0.0006061 0.0001447 -0.0000234 -0.0009302 -0.0009160 0.0022213 -0.0018327 0.0000631 0.0000929 -0.0001682 0.0002949 -0.0001743 0.0003184 -0.0001293 0.0002426 -0.0000678 0.0004309 -0.0000576 0.0005784 -0.0000963 0.0004354 -0.0002638 0.0004882 -0.0000523 0.0002349 -0.0001440 0.0005262 -0.0000274 0.0002542 -0.0005187 0.0004795 -0.0001537 0.0005078 -0.0004826 0.0008711 -0.0002109 0.0007105 0.0000887 0.0002886 -0.0001146 0.0003800 0.0000617 0.0002068 -0.0001798 0.0003606 -0.0003656 0.0006784 0.0001983 0.0007334 -0.0001393 0.0004669 0.0001037 0.0007181 -0.0000984 0.0005484 0.0001704 0.0000022 -0.0000715 0.0004182 -0.0000168 -0.0000982 -0.0001178 0.0001697 -0.0001765 0.0004276 -0.0000544 0.0002562 -0.0000996 0.0004073 0.0000781 0.0001507 -0.0001562 0.0005258 -0.0002493 0.0004789 -0.0001394 0.0004550 -0.0002651 0.0004507 -0.0000793 0.0003394 -0.0000570 0.0002238 -0.0000757 0.0002072 -0.0001829 0.0005079 0.0001662 0.0001740 -0.0013279 0.0016694 -0.0001490 0.0003669 0.0000180 0.0001901 -0.0000305 0.0001579 -0.0001546 0.0002576 -0.0001726 0.0003143 0.0038415 -0.0025150 -0.0000783 0.0002158 -0.0002728 0.0003882 -0.0002847 0.0005060 -0.0000261 0.0001295 0.0106385 -0.0239535 -0.0001152 0.0001355 -0.0001425 0.0003594 -0.0001766 0.0003551 -0.0000810 0.0005814 -0.0001592 0.0003366 -0.0001668 0.0002612 -0.0000213 0.0003157 -0.0000848 0.0000666 -0.0000640 0.0003264 -0.0001191 0.0002310 -0.0002968 0.0003619 -0.0000865 0.0002247 -0.0002195 0.0005964 0.0000213 0.0001476 -0.0001396 0.0002401 0.0000002 0.0001349 -0.0007054 0.0006637 0.0001309 0.0000265 -0.0000702 0.0001039 -0.0000816 0.0002250 -0.0000041 0.0001569 -0.0000702 0.0001558 -0.0001500 0.0001595 -0.0000299 0.0002228 -0.0000246 0.0000502 -0.0001119 0.0002412 -0.0000409 0.0001089 0.0000897 0.0000438
-0.0000949 0.0003240 -0.0000401 0.0003276 -0.0000670 0.0001935 -0.0000344 0.0001835 -0.0000574 0.0003340 -0.0004116 0.0003540 -0.0001088 0.0001772 -0.0001486 -0.0000319 -0.0001171 0.0004081 -0.0001761 0.0006071 -0.0004760 0.0007823 -0.0001050 0.0004734 -0.0001382 0.0003633 -0.0000087 0.0004170 -0.0001812 0.0002267 -0.0000340 0.0004581 -0.0001106 0.0001428 -0.0002438 0.0004129 -0.0000308 0.0001767 -0.0002960 -0.0003738 -0.0000603 0.0003168 -0.0002666 0.0004943 -0.0001633 0.0003978 0.0000935 -0.0006433 -0.0000901 0.0002220 -0.0077090 0.0067883 0.0006746 -0.0009928 0.0000722 0.0002380 -0.0002043 0.0003414 -0.0001095 0.0002803 -0.0000268 0.0001881 0.0000370 0.0003100 -0.0000869 0.0005460 -0.0000498 0.0003471 -0.0002730 0.0004272 -0.0000557 0.0002738 0.0000568 0.0004186 -0.0001376 0.0003355 -0.0002793 0.0003445 0.0000586 0.0004133 -0.0000644 0.0004705 0.0000037 0.0003551 -0.0000192 0.0003945 -0.0000163 0.0002884 -0.0006309 0.0008434 -0.0001538 0.0003569 -0.0001046 0.0003494 0.0002347 0.0005262 -0.0001802 0.0004239 0.0000262 0.0006745 -0.0000743 0.0005458 -0.0000675 0.0002511 -0.0000656 0.0004343 0.0000999 -0.0001661 0.0001841 0.0001096 -0.0002654 0.0006428 -0.0001050 0.0003140 -0.0000923 0.0004309 0.0000584 0.0001632 -0.0001786 0.0006483 -0.0001985 0.0005004 -0.0001020 0.0004370 -0.0005245 0.0010315 -0.0000831 0.0003857 -0.0000954 0.0002957 -0.0000647 0.0002289 -0.0001975 0.0004519 0.0000641 0.0002920 -0.0006952 0.0013680 -0.0002155 0.0003965 0.0000190 0.0002520 0.0000026 0.0002007 -0.0001382 0.0002652 -0.0001481 0.0003532 0.0024919 -0.0022553 -0.0000366 0.0002207 -0.0003353 0.0003730 -0.0002276 0.0005348 -0.0001396 0.0002798 0.0096333 -0.0205799 -0.0001124 0.0001186 -0.0002598 0.0005094 -0.0002002 0.0004239 -0.0000808 0.0005641 -0.0001677 0.0003561 -0.0001616 0.0002702 -0.0000138 0.0002874 -0.0001344 0.0000950 -0.0000221 0.0003602 -0.0001023 0.0002232 -0.0002715 0.0003289 -0.0001918 0.0002548 -0.0005618 0.0007250 0.0001624 -0.0000940 -0.0001092 0.0002279 -0.0000644 0.0002123 -0.0003339 0.0007620 0.0001932 -0.0001244 -0.0001134 0.0001315 -0.0000676 0.0002561 -0.0000557 0.0002326 -0.0000984 0.0001837 0.0003288 -0.0003550 -0.0000526 0.0002492 -0.0000568 0.0000319 -0.0001692 0.0003224 -0.0000789 0.0001434 -0.0000069 0.0001523
-0.0000365 0.0003538 -0.0000438 0.0003476 -0.0000266 0.0001814 -0.0000674 0.0003414 -0.0000560 0.0004745 -0.0005534 0.0004438 -0.0000762 0.0002157 -0.0002958 -0.0003684 -0.0001813 0.0004772 -0.0001016 0.0005249 -0.0003536 0.0006778 -0.0000828 0.0004590 -0.0002023 0.0004684 -0.0000080 0.0005438 -0.0001931 0.0002555 -0.0000337 0.0005842 -0.0002391 0.0002821 -0.0001403 0.0003470 -0.0000328 0.0002973 -0.0021071 0.0008224 -0.0000360 0.0003368 0.0001691 0.0002583 -0.0001506 0.0004270 0.0001022 -0.0008325 0.0000558 0.0002907 -0.0037219 0.0043016 0.0005781 -0.0014631 0.0003110 -0.0000524 -0.0002187 0.0003188 -0.0001746 0.0001094 -0.0000185 0.0002110 -0.0000785 0.0003403 -0.0001147 0.0004764 -0.0000602 0.0002564 -0.0002474 0.0003171 -0.0000590 0.0002574 0.0001899 0.0001957 -0.0000958 0.0002051 -0.0001891 0.0002193 0.0001983 0.0003143 0.0000608 0.0003053 -0.0001962 0.0007065 -0.0000690 0.0002386 0.0000044 0.0000844 -0.0002938 0.0000987 -0.0001357 0.0002168 -0.0001232 0.0002972 0.0001230 0.0005428 -0.0004376 0.0005632 -0.0001572 0.0005871 -0.0000739 0.0002417 -0.0001158 0.0000840 -0.0000981 0.0002746 -0.0001124 0.0001073 0.0000608 0.0001935 -0.0001311 0.0004723 -0.0001503 0.0002001 -0.0000539 0.0002568 0.0000335 0.0000919 -0.0001451 0.0003919 -0.0000835 0.0002580 -0.0000850 0.0002238 -0.0005547 0.0007279 -0.0000428 0.0002243 -0.0000923 0.0002325 -0.0000214 -0.0000360 -0.0000875 0.0002087 0.0000403 0.0003374 -0.0001067 0.0002412 -0.0001207 0.0002370 0.0000460 0.0001816 0.0000073 0.0001183 -0.0001065 0.0002001 -0.0001100 0.0002578 -0.0005085 0.0004330 -0.0000631 0.0001677 -0.0002863 0.0003946 -0.0000368 0.0002430 -0.0000641 0.0001577 0.0059039 -0.0099602 -0.0000672 0.0000721 0.0000667 0.0000360 -0.0001559 0.0003764 -0.0000730 0.0004422 -0.0001354 0.0002532 -0.0000828 0.0001644 -0.0000700 0.0002503 -0.0001140 0.0000201 -0.0001090 0.0003731 -0.0000727 0.0001671 -0.0001492 0.0001809 -0.0000984 0.0002218 -0.0007784 0.0009808 0.0001071 -0.0001271 -0.0001286 0.0001976 -0.0000635 0.0001975 -0.0008487 0.0015423 0.0000179 -0.0001292 0.0000538 -0.0000902 -0.0000880 0.0002214 -0.0000116 0.0001098 -0.0000842 0.0001512 0.0004499 -0.0004120 -0.0000469 0.0001857 -0.0000332 -0.0000800 -0.0001948 0.0003288 -0.0000431 0.0000253 -0.0000751 0.0000602
-0.0001017 0.0004295 -0.0000633 0.0003226 -0.0000248 0.0001898 -0.0001130 0.0004295 -0.0000465 0.0005553 -0.0002918 0.0003632 -0.0001088 0.0003176 -0.0004149 -0.0006482 -0.0001531 0.0004317 -0.0000622 0.0004021 -0.0001610 0.0004526 -0.0000430 0.0003750 -0.0001855 0.0004236 -0.0000106 0.0006135 -0.0001909 0.0002738 -0.0000310 0.0006488 -0.0001895 0.0002326 -0.0000566 0.0002688 -0.0000328 0.0003693 -0.0016887 0.0014713 -0.0000667 0.0003496 0.0005324 -0.0000142 -0.0001409 0.0004561 0.0001134 -0.0009522 0.0003557 0.0002320 -0.0057616 0.0018922 0.0029113 -0.0030459 0.0002315 0.0001501 -0.0001970 0.0003963 -0.0002368 0.0003027 -0.0000713 0.0002928 -0.0001234 0.0003276 -0.0000553 0.0003890 -0.0000581 0.0002248 -0.0002051 0.0002521 -0.0000798 0.0003473 0.0000789 0.0003608 -0.0000921 0.0002462 -0.0001862 0.0003178 0.0001614 0.0002750 0.0001118 0.0002935 -0.0000331 0.0004234 -0.0000499 0.0003464 0.0000808 0.0000722 -0.0001346 -0.0000386 -0.0001438 0.0002541 -0.0007434 0.0007897 0.0002064 0.0004410 -0.0003834 0.0004699 -0.0001114 0.0004833 -0.0000337 0.0003485 0.0000515 0.0000097 -0.0001177 0.0003317 -0.0003089 0.0003971 -0.0002010 0.0004614 -0.0000045 0.0003132 -0.0001096 0.0001976 -0.0000438 0.0002369 0.0000404 0.0001194 -0.0002016 0.0003442 -0.0001298 0.0002840 -0.0000634 0.0002220 0.0000136 -0.0000882 0.0000142 0.0002153 -0.0000950 0.0002361 -0.0000007 -0.0000035 -0.0001886 0.0002784 0.0000106 0.0003434 0.0000497 0.0001766 -0.0001272 0.0003422 0.0000567 0.0002121 0.0000312 0.0001549 -0.0001448 0.0002655 -0.0000457 0.0002272 -0.0021588 0.0021178 -0.0001140 0.0002097 -0.0002337 0.0003257 -0.0001974 0.0002785 0.0000820 0.0000596 -0.0103451 0.0117274 -0.0000660 0.0000957 0.0000104 0.0000529 -0.0001322 0.0003900 -0.0001219 0.0004672 -0.0001352 0.0002432 -0.0000661 0.0001448 -0.0000837 0.0002785 -0.0000459 -0.0000149 -0.0002834 0.0005604 -0.0000853 0.0001905 -0.0001607 0.0001886 -0.0002476 0.0004463 0.0000988 0.0002355 0.0001031 -0.0001804 -0.0001606 0.0002323 -0.0001872 0.0003095 -0.0009537 0.0014328 -0.0001058 -0.0000334 0.0000470 -0.0000896 -0.0001680 0.0003030 -0.0000086 0.0001640 -0.0000257 0.0001049 0.0004826 -0.0004206 -0.0000512 0.0002071 0.0000009 -0.0000966 -0.0001433 0.0002684 -0.0000007 -0.0000231 -0.0001099 0.0001042
-0.0001415 0.0004778 -0.0000346 0.0003082 -0.0000356 0.0001927 -0.0000762 0.0003701 -0.0000478 0.0005364 -0.0003059 0.0004520 -0.0001430 0.0003072 -0.0003549 -0.0005406 -0.0001021 0.0003537 -0.0001526 0.0003137 -0.0001680 0.0003102 -0.0000359 0.0002185 -0.0001440 0.0001759 -0.0000202 0.0004141 -0.0001583 0.0002045 -0.0000259 0.0005919 -0.0000180 0.0000466 -0.0000892 0.0001436 -0.0000012 0.0002230 -0.0007180 0.0006979 -0.0000664 0.0001130 0.0003346 -0.0000219 -0.0001689 0.0002451 0.0001213 -0.0009438 0.0001490 0.0001907 -0.0157346 0.0032096 -0.0026823 0.0020024 -0.0003552 0.0003741 -0.0001934 0.0003370 -0.0002500 0.0000729 -0.0001681 0.0001799 -0.0000603 0.0000743 -0.0000051 0.0002108 -0.0000507 0.0000316 -0.0000226 0.0000639 -0.0000919 0.0003583 -0.0000441 0.0003740 0.0000055 0.0000928 -0.0001162 0.0002535 0.0000377 0.0001316 -0.0000691 0.0004393 0.0004876 -0.0000496 0.0000076 0.0002810 -0.0000114 0.0001396 -0.0000875 0.0000847 -0.0001260 0.0002092 -0.0008488 0.0008247 -0.0004290 0.0009690 -0.0000484 0.0001310 -0.0000864 0.0003412 -0.0000137 0.0003341 -0.0001089 0.0003048 -0.0000980 0.0002979 0.0000490 0.0001091 -0.0001161 0.0004537 -0.0001725 0.0004483 0.0000032 0.0001133 -0.0000444 0.0002557 0.0000696 0.0000788 -0.0001503 0.0002775 -0.0000709 0.0002807 -0.0000409 0.0001681 0.0008465 -0.0007896 0.0000588 0.0001655 -0.0000453 0.0001829 0.0000066 0.0000190 -0.0001331 0.0002512 0.0000148 0.0001915 -0.0007088 0.0009817 -0.0002375 0.0003929 0.0000587 0.0002059 0.0000425 0.0001463 -0.0001595 0.0002830 -0.0000336 0.0002214 -0.0018331 0.0008618 -0.0001087 0.0001659 -0.0001032 0.0001758 -0.0003966 0.0003354 0.0001398 -0.0000547 -0.0173274 0.0213112 -0.0001353 0.0001615 -0.0005001 0.0005966 -0.0001719 0.0004154 -0.0001211 0.0003980 -0.0002751 0.0003223 -0.0001353 0.0002075 -0.0000871 0.0002458 -0.0000727 -0.0000230 -0.0002285 0.0005782 -0.0000743 0.0001787 -0.0001306 0.0001484 -0.0003707 0.0006282 0.0002169 -0.0001617 0.0000042 -0.0002320 -0.0000789 0.0001472 -0.0002032 0.0003071 -0.0004730 0.0005527 -0.0000549 -0.0001886 0.0000622 -0.0001077 -0.0001656 0.0003499 -0.0000204 0.0002205 -0.0000255 0.0001093 0.0002838 -0.0002955 -0.0000613 0.0002485 -0.0000063 -0.0000961 -0.0000564 0.0002391 0.0000092 -0.0000147 -0.0001401 0.0002541
-0.0001107 0.0004374 -0.0000349 0.0003247 -0.0000209 0.0002125 -0.0000517 0.0004701 -0.0000469 0.0006597 -0.0003230 0.0005889 -0.0000419 0.0003160 -0.0004687 -0.0008036 -0.0001226 0.0003579 -0.0001120 0.0002997 -0.0000816 0.0002734 -0.0000184 0.0001999 -0.0000033 0.0000317 -0.0000216 0.0004912 -0.0001556 0.0002158 -0.0000181 0.0006495 -0.0000363 0.0000666 0.0001101 -0.0000045 -0.0000065 0.0002421 0.0007595 -0.0005220 -0.0000400 0.0001372 0.0000778 0.0003103 -0.0001772 0.0002404 0.0001229 -0.0010305 0.0002116 0.0001713 0.0062535 0.0031500 -0.0040754 0.0036701 0.0002301 0.0001153 -0.0002164 0.0004523 -0.0002099 0.0002142 -0.0001366 0.0002823 -0.0001120 0.0001238 -0.0000920 0.0002706 -0.0000409 0.0000438 -0.0000233 0.0000401 -0.0000784 0.0004195 0.0000304 0.0004069 0.0001043 0.0000300 -0.0004628 0.0004711 0.0000549 0.0001519 -0.0000129 0.0004881 0.0008047 -0.0001733 -0.0000691 0.0003723 -0.0000208 0.0001967 0.0002649 -0.0000886 -0.0001204 0.0002446 -0.0005296 0.0006908 -0.0003831 0.0009343 0.0000028 0.0000673 -0.0001205 0.0003501 0.0000285 0.0004187 -0.0002173 0.0003579 -0.0000730 0.0003338 -0.0001303 0.0003177 0.0001962 0.0002802 -0.0002305 0.0005994 0.0000081 0.0001458 -0.0000841 0.0003242 0.0000419 0.0001388 -0.0000002 0.0002145 -0.0000352 0.0002769 -0.0001093 0.0002753 0.0008483 -0.0004409 -0.0000258 0.0003289 -0.0000204 0.0001941 0.0000099 0.0001076 -0.0001327 0.0003263 0.0000192 0.0002357 -0.0005498 0.0004519 -0.0002235 0.0005452 0.0000624 0.0002682 0.0000368 0.0002048 -0.0002089 0.0003673 -0.0000908 0.0003421 -0.0014162 0.0002413 -0.0000551 0.0001546 -0.0001464 0.0001101 -0.0002534 0.0002222 0.0000536 0.0000413 -0.0072860 0.0107972 -0.0002108 0.0002298 -0.0002323 0.0003419 -0.0001947 0.0003962 -0.0001097 0.0003489 -0.0002326 0.0002505 -0.0001333 0.0001626 -0.0001067 0.0001779 -0.0000505 -0.0001465 -0.0001290 0.0002973 -0.0000589 0.0001090 -0.0000673 0.0000647 -0.0004945 0.0006325 -0.0002110 0.0000001 -0.0000786 -0.0001968 -0.0000447 0.0000090 -0.0000830 0.0001157 -0.0003566 0.0005041 0.0000060 -0.0003083 0.0001136 -0.0002013 -0.0000906 0.0001422 0.0000644 -0.0001083 -0.0000244 0.0000231 0.0000894 -0.0002400 -0.0000277 0.0000231 0.0000393 -0.0003082 -0.0000157 0.0000811 0.0000350 -0.0002025 -0.0000738 0.0000452
-0.0001283 0.0003447 -0.0000484 0.0001603 -0.0000002 0.0000362 -0.0001673 0.0005365 -0.0000482 0.0005658 -0.0001942 0.0004179 0.0000425 0.0001505 -0.0004379 -0.0007540 -0.0001189 0.0002778 -0.0000358 0.0001481 -0.0001209 0.0000978 0.0000282 0.0000512 -0.0000047 -0.0000540 -0.0000263 0.0004645 -0.0001248 0.0001675 -0.0000122 0.0005767 0.0000071 0.0000075 0.0000876 -0.0000855 -0.0000084 0.0002236 0.0007633 0.0001238 -0.0000290 0.0000878 -0.0001701 0.0004887 -0.0001009 0.0001850 0.0001186 -0.0009396 0.0000843 0.0003625 0.0077341 0.0036266 -0.0010089 0.0016116 0.0002023 0.0003631 -0.0002230 0.0005068 -0.0002416 0.0003158 -0.0000459 0.0002722 -0.0001991 0.0001399 -0.0000495 0.0001598 -0.0000169 0.0000383 -0.0001044 0.0001449 -0.0000808 0.0004534 0.0001288 0.0002918 0.0001022 0.0000603 -0.0005562 0.0004068 0.0004823 -0.0000847 0.0000346 0.0002531 0.0006159 -0.0002813 -0.0000459 0.0003905 -0.0000139 0.0002072 -0.0001034 0.0001708 -0.0001310 0.0002491 -0.0002450 0.0004600 -0.0000607 0.0004430 -0.0002155 0.0000894 -0.0001049 0.0001969 0.0000760 0.0004047 -0.0001422 0.0002385 -0.0000979 0.0003728 -0.0005018 0.0007408 0.0001406 0.0004381 0.0000739 0.0003043 -0.0000383 0.0001881 -0.0000883 0.0003007 0.0000413 0.0001757 -0.0000517 0.0002711 0.0000077 0.0002605 -0.0000929 0.0002922 0.0011283 -0.0007046 -0.0000650 0.0004296 0.0000242 0.0001562 0.0000022 0.0001684 -0.0001397 0.0003412 0.0000939 0.0002221 0.0000022 -0.0001971 -0.0001398 0.0005216 0.0000587 0.0003429 0.0000488 0.0002698 -0.0002563 0.0004638 -0.0001128 0.0003980 0.0009806 -0.0009930 -0.0000572 0.0001796 -0.0002749 0.0001985 -0.0000567 0.0001290 -0.0000070 0.0002386 -0.0003609 0.0045646 -0.0001203 0.0001506 -0.0000495 0.0001376 -0.0001970 0.0004459 -0.0001115 0.0003602 -0.0000624 0.0001915 -0.0002287 0.0003061 -0.0001484 0.0002022 -0.0000506 -0.0001611 -0.0000902 0.0003228 -0.0000933 0.0001639 -0.0001338 0.0001399 -0.0006529 0.0008295 0.0000138 -0.0000268 0.0000014 -0.0001225 -0.0000277 -0.0000147 -0.0001827 0.0002423 0.0002489 0.0000002 -0.0000731 -0.0001859 -0.0000363 -0.0000257 -0.0001158 0.0001821 0.0000784 -0.0000694 0.0000009 0.0000167 -0.0000553 -0.0002425 -0.0000008 0.0000218 -0.0000275 -0.0002528 -0.0000452 0.0001214 0.0000257 -0.0001938 -0.0000924 0.0000441
-0.0001772 0.0004273 -0.0000345 0.0001797 -0.0000285 0.0001131 -0.0001523 0.0005932 -0.0000489 0.0006287 0.0000914 0.0002152 0.0000419 0.0001798 -0.0005184 -0.0008825 -0.0001474 0.0003396 -0.0000253 0.0001634 -0.0001521 0.0001805 0.0000006 0.0001091 -0.0000399 -0.0000048 -0.0000309 0.0005163 -0.0000848 0.0001267 -0.0000226 0.0005527 0.0000069 0.0000003 -0.0001447 0.0001232 -0.0000131 0.0002628 -0.0001777 0.0007610 -0.0000483 0.0001373 -0.0002616 0.0005107 -0.0000910 0.0002388 0.0000942 -0.0008326 -0.0000697 0.0005028 -0.0011607 -0.0044634 -0.0050112 0.0041744 -0.0000294 0.0005346 -0.0002102 0.0005924 -0.0002774 0.0004314 -0.0000838 0.0003684 -0.0001942 0.0001525 0.0000120 0.0001153 -0.0000260 0.0000677 -0.0000900 0.0002948 -0.0000802 0.0004775 0.0000299 0.0003139 0.0000533 0.0001142 -0.0002183 0.0001346 0.0003699 -0.0000387 0.0001105 0.0001895 -0.0002647 0.0003585 0.0000166 0.0002347 -0.0000245 0.0001218 0.0001493 -0.0000879 -0.0001255 0.0001879 -0.0000039 0.0001744 -0.0001598 0.0004273 -0.0000692 -0.0001195 -0.0001558 0.0001646 -0.0000374 0.0002291 0.0000028 0.0000967 -0.0001171 0.0002511 -0.0003318 0.0003870 -0.0000348 0.0004778 -0.0000116 0.0002328 -0.0000197 0.0000612 -0.0000530 0.0001188 0.0000625 0.0000632 -0.0000332 -0.0000355 0.0000491 -0.0000082 -0.0000696 0.0000617 0.0007115 -0.0005433 -0.0000257 0.0001220 0.0000737 -0.0000067 -0.0000436 -0.0000121 -0.0000558 0.0001070 0.0000808 0.0000284 0.0003006 -0.0003530 -0.0000904 0.0000512 0.0000596 0.0001301 0.0000522 -0.0000980 -0.0001582 0.0002488 -0.0001163 0.0001278 -0.0023191 0.0014336 -0.0001243 0.0000214 -0.0002166 0.0001430 -0.0000875 -0.0000099 0.0000941 -0.0000412 0.0148761 -0.0126964 0.0000473 -0.0000402 -0.0003423 0.0003344 -0.0002043 0.0002773 -0.0001120 0.0001556 -0.0000265 -0.0000191 -0.0000966 0.0000888 -0.0001654 0.0000579 -0.0000397 -0.0002742 -0.0000954 0.0002767 -0.0000825 0.0000938 -0.0000696 0.0000528 -0.0005771 0.0006904 0.0003576 -0.0003322 -0.0000606 -0.0003366 -0.0001065 0.0000378 -0.0001553 0.0001434 0.0000890 -0.0004174 -0.0000678 -0.0003864 0.0000601 -0.0001947 -0.0001301 0.0001015 0.0000657 -0.0001369 0.0000032 -0.0000180 -0.0005050 0.0001068 -0.0000120 -0.0000259 -0.0000367 -0.0003568 -0.0000537 0.0000846 0.0000265 -0.0003421 -0.0000832 -0.0001704
-0.0001701 0.0003446 -0.0000222 0.0000812 -0.0000386 0.0000237 -0.0000426 0.0004643 -0.0000416 0.0005815 -0.0000178 0.0001926 0.0000438 0.0002664 -0.0005101 -0.0009054 -0.0001154 0.0002412 -0.0000486 0.0000669 0.0000314 -0.0000212 -0.0000012 -0.0000114 0.0000364 -0.0000822 -0.0000393 0.0004476 -0.0000491 0.0000911 -0.0000225 0.0004506 0.0000218 -0.0000218 -0.0000932 0.0000547 -0.0000068 0.0001841 -0.0003491 0.0006510 -0.0000369 0.0000613 -0.0004018 0.0005763 -0.0001050 0.0002161 0.0000862 -0.0006747 0.0000545 0.0001953 -0.0060340 -0.0021095 -0.0065763 0.0055397 0.0002035 0.0002778 -0.0002004 0.0006226 -0.0002505 0.0004781 -0.0001166 0.0004016 0.0001176 -0.0001853 -0.0000131 0.0000392 -0.0000409 0.0000080 -0.0001235 0.0002340 -0.0000683 0.0004788 0.0000127 0.0004144 0.0000722 0.0001001 0.0000842 -0.0000826 0.0001404 0.0001865 0.0002196 0.0001527 -0.0002223 0.0002677 -0.0000129 0.0002576 0.0001285 -0.0000049 0.0005490 -0.0003158 -0.0001242 0.0002228 -0.0004376 0.0004565 -0.0005922 0.0005037 -0.0000556 -0.0001196 -0.0002182 0.0001448 -0.0000392 0.0002639 0.0000156 0.0001451 -0.0001216 0.0002633 -0.0001821 0.0003001 0.0000311 0.0003668 -0.0001841 0.0003917 -0.0000036 0.0000815 -0.0000330 0.0000810 0.0000536 0.0000516 -0.0000154 -0.0000607 0.0000147 0.0000832 -0.0001038 0.0000525 0.0000726 0.0000291 -0.0000525 0.0001388 0.0000181 0.0000733 -0.0000409 -0.0000209 -0.0000782 0.0000314 -0.0000311 0.0001194 0.0003839 -0.0007447 -0.0000855 0.0000520 0.0000733 0.0001249 0.0000238 -0.0001003 -0.0003297 0.0004785 -0.0001283 0.0001467 -0.0017872 0.0014833 -0.0002343 0.0001332 -0.0001074 0.0000223 -0.0002944 0.0000582 0.0000299 -0.0000524 0.0153325 -0.0218081 -0.0000699 0.0000495 -0.0005968 0.0006541 -0.0001880 0.0002453 -0.0001008 0.0000825 -0.0001630 0.0000483 -0.0000142 -0.0000375 -0.0001266 0.0000160 -0.0000048 -0.0003136 -0.0002337 0.0003556 -0.0000614 0.0000643 0.0000557 -0.0000905 -0.0005181 0.0005681 0.0003956 -0.0005283 -0.0000162 -0.0003899 -0.0000924 0.0000297 -0.0000498 0.0000404 -0.0004629 -0.0001769 -0.0001102 -0.0003536 0.0001945 -0.0003436 -0.0001193 0.0000837 0.0000946 -0.0001847 -0.0000332 0.0000124 -0.0001625 -0.0001332 0.0000007 -0.0000475 -0.0000163 -0.0003480 -0.0000508 0.0000515 0.0000602 -0.0004662 -0.0000501 -0.0001869
-0.0003693 0.0003804 -0.0000134 0.0000238 -0.0000494 -0.0000250 -0.0000927 0.0003951 -0.0000476 0.0004531 -0.0002672 0.0002711 0.0000697 0.0000680 -0.0003497 -0.0005765 -0.0000828 0.0000860 -0.0000493 -0.0001554 0.0001838 -0.0003823 0.0000568 -0.0002768 0.0001480 -0.0003180 -0.0000615 0.0002038 -0.0000258 0.0000347 -0.0000152 0.0002942 0.0000853 -0.0000980 0.0000562 -0.0002540 0.0000196 0.0000140 -0.0005564 0.0006933 0.0000004 -0.0002502 -0.0003095 0.0002814 -0.0001019 0.0000153 0.0000916 -0.0005554 -0.0002179 0.0001423 -0.0105741 -0.0019675 -0.0044467 0.0039938 -0.0003706 0.0000106 -0.0001910 0.0003873 -0.0002232 -0.0001036 -0.0001328 0.0000167 0.0002293 -0.0005673 0.0000079 -0.0002884 -0.0000090 -0.0003109 -0.0001034 0.0000482 -0.0000796 0.0003776 0.0000173 0.0001174 0.0001431 -0.0001115 0.0000819 -0.0001799 0.0002148 -0.0000971 -0.0000709 0.0001956 -0.0002304 0.0004547 0.0000692 0.0000008 0.0000509 -0.0000896 0.0003869 -0.0003641 -0.0001449 0.0001017 -0.0004405 0.0003211 -0.0008124 0.0002146 -0.0001930 -0.0000968 -0.0001921 -0.0001201 -0.0000432 0.0001540 -0.0001164 0.0000993 -0.0001266 0.0001433 -0.0002217 0.0002362 0.0001730 0.0002193 0.0001636 0.0000205 0.0000140 0.0000349 0.0000128 0.0000076 0.0000896 -0.0000332 -0.0000527 -0.0001342 0.0001308 0.0000252 -0.0000869 -0.0000861 0.0004082 -0.0004840 -0.0000262 0.0000472 0.0000076 0.0000465 -0.0000364 -0.0001662 0.0000261 -0.0002160 -0.0000392 0.0000771 0.0002817 -0.0010022 -0.0001804 -0.0000092 0.0000978 0.0000152 0.0000718 -0.0002099 -0.0002836 0.0003961 -0.0001493 0.0001009 0.0027954 -0.0017037 -0.0002012 0.0000314 -0.0001111 -0.0000049 -0.0002364 -0.0001737 -0.0000208 -0.0001442 -0.0051856 0.0012395 -0.0000831 0.0000462 0.0000297 -0.0000646 -0.0002188 0.0002386 -0.0000870 -0.0000918 -0.0001881 0.0000148 -0.0000359 -0.0000618 -0.0001078 -0.0001417 -0.0000168 -0.0004262 -0.0001266 0.0000388 -0.0000654 0.0000206 0.0001754 -0.0002522 -0.0003044 0.0003672 0.0004039 -0.0009234 0.0001852 -0.0005946 0.0000457 -0.0001784 -0.0000635 0.0000643 -0.0001043 -0.0006548 -0.0001263 -0.0003494 0.0002981 -0.0004754 -0.0001531 0.0000813 0.0001302 -0.0002889 -0.0000036 -0.0000360 0.0007642 -0.0010249 0.0000334 -0.0000819 -0.0000365 -0.0003442 0.0000055 0.0000012 0.0000679 -0.0005108 -0.0000161 -0.0002092
-0.0002118 0.0001613 -0.0000054 -0.0000367 0.0000124 -0.0000363 -0.0001361 0.0004756 -0.0000473 0.0005097 0.0001158 0.0000377 0.0001013 0.0000285 -0.0003872 -0.0006157 -0.0001021 0.0000827 -0.0000037 -0.0002847 0.0000730 -0.0002984 0.0000053 -0.0003074 0.0000870 -0.0003436 -0.0000722 0.0002216 -0.0000240 0.0001194 -0.0000121 0.0003268 0.0000656 -0.0000823 0.0000478 -0.0002810 0.0000166 0.0000449 -0.0005625 0.0004004 0.0000053 -0.0002898 0.0000293 0.0000240 -0.0000840 0.0000052 0.0000813 -0.0006325 -0.0001729 0.0003501 0.0088441 -0.0163779 -0.0020901 0.0018690 -0.0000465 -0.0002091 -0.0002122 0.0004250 -0.0001621 -0.0000472 -0.0000504 -0.0001476 0.0000749 -0.0004366 -0.0000021 -0.0003770 0.0000151 -0.0003613 -0.0000537 -0.0000375 -0.0000948 0.0004297 0.0000606 0.0000476 -0.0000706 0.0001153 0.0000942 -0.0000688 0.0000049 -0.0000982 -0.0001955 0.0002145 -0.0001668 0.0002053 0.0002064 -0.0001580 -0.0000425 -0.0000018 -0.0000110 -0.0001071 -0.0001065 0.0000894 -0.0001555 0.0000896 -0.0001259 -0.0003610 -0.0002564 -0.0002735 -0.0001748 -0.0001800 -0.0000791 0.0002825 -0.0001205 0.0001206 -0.0000870 0.0001166 -0.0001670 -0.0000104 0.0002898 0.0002595 0.0003053 -0.0001071 -0.0000364 0.0001076 -0.0000800 0.0000676 0.0000877 -0.0000178 -0.0001292 -0.0000716 0.0001956 -0.0000566 -0.0000635 -0.0001218 0.0003308 -0.0004002 0.0000445 0.0000038 0.0000324 0.0000024 -0.0000358 -0.0001784 0.0000908 -0.0002810 -0.0000221 -0.0000314 0.0006760 -0.0012392 -0.0001800 -0.0000212 0.0001008 -0.0000408 0.0001191 -0.0003362 -0.0001260 0.0001661 -0.0001673 0.0000870 0.0014845 -0.0012036 -0.0001060 -0.0001492 -0.0001051 -0.0001602 -0.0001050 -0.0003457 0.0000327 -0.0003694 -0.0120189 0.0106980 -0.0000301 -0.0000065 0.0001160 -0.0002894 -0.0002247 0.0000921 -0.0000686 -0.0002794 -0.0001005 -0.0002338 0.0000927 -0.0002920 -0.0001141 -0.0003600 -0.0000366 -0.0005960 -0.0001322 -0.0002706 -0.0000292 -0.0001135 0.0002958 -0.0004102 -0.0004990 0.0002390 -0.0004382 -0.0005550 0.0002676 -0.0009943 0.0000969 -0.0003508 -0.0000726 -0.0000557 -0.0005984 -0.0000526 -0.0000464 -0.0006287 0.0003777 -0.0006533 -0.0001513 -0.0001076 0.0001423 -0.0005575 0.0000715 -0.0002008 0.0007981 -0.0011533 0.0000381 -0.0002554 -0.0000116 -0.0004816 0.0000949 -0.0002534 0.0000888 -0.0006684 0.0000444 -0.0005347
-0.0000198 -0.0001159 -0.0000126 -0.0002569 0.0000775 -0.0002343 -0.0001433 0.0003902 -0.0000465 0.0004450 0.0001341 -0.0000588 0.0001030 -0.0000220 -0.0003349 -0.0004997 -0.0000397 -0.0000604 -0.0000116 -0.0004820 -0.0000080 -0.0003730 -0.0000013 -0.0004969 0.0000330 -0.0004621 -0.0000742 0.0001644 0.0000170 0.0001076 -0.0000009 0.0003313 0.0001498 -0.0001764 -0.0000221 -0.0002575 0.0000252 0.0000297 -0.0019685 0.0012189 0.0000223 -0.0004228 -0.0001403 0.0001532 -0.0001445 0.0000244 0.0000740 -0.0006808 0.0000091 0.0003650 0.0057324 -0.0027159 -0.0002926 0.0007666 0.0001320 -0.0000911 -0.0001941 0.0003661 -0.0001636 0.0000227 -0.0000434 -0.0001767 0.0000697 -0.0005665 0.0000659 -0.0006040 0.0000393 -0.0005087 0.0000478 -0.0001945 -0.0000847 0.0004285 -0.0000269 0.0001386 -0.0001017 0.0001222 0.0002100 -0.0002861 0.0006057 -0.0006116 0.0001433 -0.0001822 -0.0003407 0.0000045 0.0001563 -0.0002752 0.0001517 -0.0001975 -0.0001915 -0.0000242 -0.0001341 0.0000771 0.0000935 -0.0001738 0.0006245 -0.0012606 -0.0003804 -0.0003909 -0.0001426 -0.0004046 -0.0001632 0.0003032 -0.0000076 0.0001115 -0.0000840 0.0001280 -0.0002360 0.0004318 0.0001449 0.0005422 0.0005341 -0.0002779 -0.0000830 0.0001346 -0.0001020 0.0000649 0.0000736 -0.0000156 -0.0000717 -0.0002119 0.0001687 -0.0000209 -0.0000731 -0.0001417 -0.0001070 -0.0002389 0.0000869 -0.0000078 0.0000815 -0.0000659 0.0000120 -0.0002523 -0.0000689 -0.0001480 0.0001499 -0.0001914 0.0001534 -0.0005911 -0.0000921 -0.0000664 0.0001318 -0.0000336 0.0001076 -0.0002709 -0.0001637 0.0002325 -0.0001037 0.0000961 0.0011272 -0.0005959 -0.0000528 -0.0001957 -0.0001234 -0.0001142 0.0000350 -0.0005994 -0.0000054 -0.0002809 -0.0245176 0.0195163 -0.0000648 0.0000226 -0.0005496 0.0003410 -0.0002113 0.0000597 -0.0000659 -0.0003229 -0.0001890 -0.0001810 0.0000948 -0.0002980 -0.0001304 -0.0003400 -0.0000905 -0.0005225 -0.0002406 -0.0001253 -0.0000181 -0.0001103 0.0002660 -0.0003774 -0.0005025 0.0002195 -0.0006510 -0.0003514 0.0002367 -0.0010115 0.0000968 -0.0003146 -0.0000544 -0.0000639 -0.0003112 0.0000452 -0.0000566 -0.0006431 0.0003364 -0.0005718 -0.0001445 -0.0000779 0.0001228 -0.0004879 0.0000744 -0.0001756 0.0001419 -0.0005007 0.0000259 -0.0001739 0.0000235 -0.0004067 0.0001708 -0.0003120 0.0001237 -0.0006004 0.0000015 -0.0003956
-0.0000734 -0.0000421 -0.0000077 -0.0002523 0.0000602 -0.0001319 -0.0001459 0.0004387 -0.0000490 0.0005760 0.0001429 0.0000302 0.0001944 -0.0000760 -0.0004106 -0.0006404 -0.0000016 -0.0001133 -0.0000123 -0.0005428 0.0001323 -0.0005021 0.0000200 -0.0005231 0.0001406 -0.0005505 -0.0000743 0.0002373 0.0000388 0.0000972 0.0000023 0.0004146 0.0001325 -0.0001447 0.0000014 -0.0001904 0.0000286 0.0001325 -0.0038322 0.0027321 0.0000169 -0.0003920 0.0000468 0.0001161 -0.0002491 0.0001875 0.0000760 -0.0008681 -0.0002150 0.0004866 -0.0027372 0.0067356 -0.0035664 0.0038517 -0.0006983 0.0005513 -0.0001655 0.0003585 -0.0001765 -0.0000197 -0.0000209 -0.0001435 0.0000501 -0.0006276 0.0000771 -0.0007409 0.0000605 -0.0006052 0.0000475 -0.0002480 -0.0000857 0.0004134 -0.0000040 -0.0000253 0.0000758 -0.0001147 0.0002203 -0.0004412 0.0007208 -0.0007616 0.0002899 -0.0004342 -0.0004009 0.0002650 0.0001752 -0.0005273 0.0002429 -0.0004382 0.0000191 -0.0004639 -0.0001648 -0.0000770 -0.0000883 -0.0001932 0.0004059 -0.0011228 -0.0001939 -0.0006303 -0.0000285 -0.0007603 -0.0001285 -0.0001308 -0.0000577 -0.0000719 -0.0000544 -0.0000514 -0.0002109 0.0004554 -0.0000544 0.0006832 0.0003521 -0.0001962 -0.0001322 0.0000672 -0.0000336 -0.0001383 0.0001024 -0.0001619 0.0001448 -0.0007448 0.0001833 -0.0002843 -0.0000897 -0.0003422 0.0003391 -0.0005426 0.0000371 -0.0001744 0.0001156 -0.0001999 -0.0000020 -0.0004784 -0.0001791 -0.0002830 0.0001734 -0.0003754 0.0001491 -0.0007150 -0.0000590 -0.0004974 0.0001668 -0.0002330 0.0001204 -0.0004804 -0.0001509 0.0001596 -0.0000479 -0.0001350 -0.0013778 0.0006242 -0.0000179 -0.0003454 -0.0000518 -0.0002905 -0.0000241 -0.0007248 0.0001040 -0.0004151 -0.0105966 0.0050286 0.0000162 -0.0000524 -0.0005837 0.0002642 -0.0001951 -0.0000537 -0.0000497 -0.0004746 -0.0002215 -0.0002937 0.0001683 -0.0004132 -0.0000851 -0.0004315 -0.0000659 -0.0005622 -0.0002973 -0.0002009 -0.0000370 -0.0001300 0.0003020 -0.0004367 -0.0002489 -0.0001086 -0.0004159 -0.0004866 0.0001917 -0.0009593 0.0001130 -0.0003680 -0.0000056 -0.0001542 0.0002400 -0.0008090 -0.0000311 -0.0005463 0.0003705 -0.0005882 -0.0000842 -0.0001569 0.0001069 -0.0005180 0.0000921 -0.0001925 0.0002149 -0.0004126 0.0000579 -0.0001935 0.0000363 -0.0003704 0.0001889 -0.0003406 0.0001396 -0.0005805 0.0000235 -0.0003655
0.0000096 -0.0001119 0.0000141 -0.0003127 0.0000155 -0.0000885 -0.0000752 0.0004180 -0.0000514 0.0006583 0.0002872 -0.0000696 0.0002886 -0.0001610 -0.0004591 -0.0007645 0.0000503 -0.0001582 0.0000726 -0.0007161 0.0000999 -0.0005204 0.0000204 -0.0005856 0.0002136 -0.0006729 -0.0000713 0.0002777 0.0000857 0.0001163 0.0000057 0.0004419 0.0000564 -0.0000574 0.0000522 -0.0002121 0.0000222 0.0001945 -0.0029158 0.0022644 0.0000263 -0.0003968 -0.0000412 0.0001707 -0.0002563 0.0002408 0.0000838 -0.0009890 -0.0002459 0.0004742 0.0001617 -0.0082214 -0.0024568 0.0029633 -0.0008509 0.0007863 -0.0001953 0.0005049 -0.0001777 0.0001186 0.0000813 -0.0002382 0.0001333 -0.0006896 0.0000970 -0.0008326 0.0000349 -0.0005245 0.0000142 -0.0002435 -0.0000959 0.0004782 0.0001123 -0.0000319 0.0000596 -0.0000366 -0.0000968 -0.0001018 0.0004392 -0.0006132 0.0002688 -0.0005615 -0.0007207 0.0002723 0.0002521 -0.0005004 0.0001869 -0.0003089 0.0001058 -0.0005921 -0.0000831 -0.0000861 -0.0005586 0.0000981 -0.0000464 -0.0007236 -0.0000326 -0.0008753 -0.0000566 -0.0007623 -0.0000043 -0.0001347 -0.0000692 -0.0000719 -0.0000613 0.0000074 -0.0000518 0.0002585 -0.0001466 0.0008039 0.0000366 0.0001184 -0.0000719 0.0001347 -0.0000707 -0.0001204 0.0000820 -0.0001144 0.0001167 -0.0006945 0.0002053 -0.0003883 -0.0000794 -0.0003026 0.0003843 -0.0003781 -0.0000210 -0.0000317 0.0000342 -0.0000824 -0.0000197 -0.0003538 -0.0001446 -0.0003066 0.0001666 -0.0004629 0.0001338 -0.0009562 -0.0003121 -0.0002868 0.0001500 -0.0001613 0.0001030 -0.0003601 -0.0001898 0.0002294 -0.0001094 -0.0000175 -0.0026690 0.0005298 -0.0000492 -0.0002738 0.0000155 -0.0004068 -0.0001200 -0.0005541 0.0001365 -0.0003884 -0.0074628 0.0057632 0.0000065 -0.0000237 -0.0005489 0.0003187 -0.0002069 0.0000063 -0.0000574 -0.0004374 -0.0001542 -0.0003594 0.0001522 -0.0004098 -0.0000744 -0.0004030 -0.0000590 -0.0004672 -0.0001462 -0.0002782 -0.0000501 -0.0000974 0.0002514 -0.0003694 -0.0003499 -0.0000663 -0.0007434 -0.0001741 0.0000519 -0.0006947 0.0001623 -0.0003873 0.0000537 -0.0001658 0.0004350 -0.0013715 -0.0000570 -0.0002932 0.0002886 -0.0004304 -0.0000692 -0.0001013 0.0001061 -0.0003715 0.0000995 -0.0001472 0.0003393 -0.0004394 0.0000808 -0.0001735 0.0000586 -0.0002396 0.0001570 -0.0003105 0.0001345 -0.0004757 0.0001696 -0.0004248
0.0001500 -0.0000541 0.0000314 -0.0002898 -0.0000958 0.0000502 -0.0000456 0.0003378 -0.0000648 0.0006205 0.0000777 0.0000148 0.0003135 -0.0003373 -0.0003730 -0.0005719 0.0000502 -0.0001756 0.0000928 -0.0008946 -0.0000294 -0.0005384 0.0000395 -0.0007326 0.0001697 -0.0008108 -0.0000764 0.0001150 0.0001272 0.0000252 0.0000102 0.0003812 0.0000636 -0.0000734 0.0000268 -0.0002904 0.0000159 0.0001474 -0.0020304 0.0015916 0.0000560 -0.0006186 -0.0003231 0.0001548 -0.0002476 0.0001414 0.0000958 -0.0009927 -0.0003367 0.0004754 -0.0023617 -0.0217828 -0.0030878 0.0029454 -0.0004194 0.0001954 -0.0002154 0.0004150 -0.0002060 -0.0001189 0.0000531 -0.0004793 0.0002166 -0.0008975 0.0001638 -0.0011040 0.0000756 -0.0006967 0.0000528 -0.0003789 -0.0001101 0.0004569 -0.0000059 0.0000071 0.0001447 -0.0001559 -0.0000745 -0.0000848 0.0006282 -0.0008197 0.0004450 -0.0008227 -0.0003653 -0.0004142 0.0002234 -0.0005603 0.0001509 -0.0002860 -0.0000207 -0.0007571 -0.0000492 -0.0001435 -0.0002681 -0.0001691 -0.0001788 -0.0009642 -0.0002685 -0.0007982 -0.0000427 -0.0009083 -0.0000387 -0.0001474 0.0001264 -0.0001324 -0.0000921 0.0000132 -0.0000216 0.0001987 -0.0000531 0.0007112 0.0002344 -0.0000537 0.0000071 0.0001112 -0.0000804 -0.0001005 0.0000916 -0.0001363 0.0000476 -0.0006699 0.0001974 -0.0004294 -0.0001095 -0.0002854 -0.0001694 -0.0003013 -0.0000026 -0.0000488 0.0000803 -0.0001569 0.0000171 -0.0003892 -0.0001365 -0.0003254 0.0001983 -0.0004928 -0.0003716 -0.0003974 -0.0004563 -0.0000953 0.0001295 -0.0001390 0.0001027 -0.0003262 -0.0000793 0.0000567 -0.0000906 -0.0000279 -0.0012843 -0.0000761 -0.0000684 -0.0002671 0.0002110 -0.0004617 -0.0001127 -0.0005672 0.0000874 -0.0003230 -0.0097029 0.0117803 -0.0000189 -0.0000055 -0.0002815 0.0001026 -0.0001959 -0.0000021 -0.0000535 -0.0004483 -0.0001035 -0.0003753 0.0001643 -0.0004505 -0.0000941 -0.0003846 -0.0000698 -0.0003993 -0.0002312 -0.0002490 -0.0000134 -0.0001286 0.0002173 -0.0003208 -0.0001762 -0.0001219 -0.0004393 -0.0002452 -0.0000329 -0.0005093 0.0001961 -0.0004027 -0.0000233 -0.0000319 0.0000670 -0.0010257 -0.0000792 -0.0001594 0.0001733 -0.0002613 -0.0001378 0.0000143 0.0001185 -0.0002773 0.0000871 -0.0001006 -0.0001523 -0.0000444 0.0000838 -0.0001191 0.0000656 -0.0001191 0.0001610 -0.0002576 0.0001557 -0.0003446 0.0001565 -0.0003148
0.0001732 0.0000091 0.0000362 -0.0002090 -0.0001941 0.0002488 -0.0001040 0.0003971 -0.0000781 0.0006888 -0.0001982 0.0002846 0.0002540 -0.0002565 -0.0004167 -0.0006282 -0.0000048 -0.0000668 0.0000481 -0.0008216 -0.0000695 -0.0003347 0.0000497 -0.0006751 0.0001739 -0.0007546 -0.0000725 0.0001488 0.0001441 -0.0000041 0.0000139 0.0004033 0.0000456 -0.0000364 0.0000130 -0.0002448 0.0000452 0.0001634 -0.0000678 0.0001977 0.0000212 -0.0005070 -0.0000606 0.0000718 -0.0003059 0.0003088 0.0001016 -0.0010407 -0.0001290 0.0003454 0.0102103 -0.0348271 -0.0135801 0.0108311 -0.0004885 0.0003317 -0.0002076 0.0004526 -0.0001995 0.0000066 -0.0000420 -0.0002591 0.0001387 -0.0007881 0.0001457 -0.0010941 0.0000426 -0.0005810 0.0001187 -0.0004861 -0.0001167 0.0004936 -0.0000352 0.0000535 0.0002116 -0.0001780 0.0002748 -0.0002746 0.0005203 -0.0005935 0.0002540 -0.0006799 -0.0002458 -0.0003392 0.0000580 -0.0003846 0.0001189 -0.0001700 -0.0002903 -0.0004614 -0.0000969 -0.0000478 -0.0000444 -0.0002847 0.0000826 -0.0010322 -0.0002154 -0.0008268 0.0000059 -0.0009006 -0.0000061 -0.0000140 0.0002835 -0.0001379 -0.0000985 0.0000897 0.0000237 0.0001699 -0.0001474 0.0009019 0.0001853 -0.0000169 -0.0000107 0.0002324 -0.0001215 0.0000049 0.0001331 -0.0001436 0.0000213 -0.0005225 0.0001897 -0.0004275 -0.0001368 -0.0001773 -0.0000249 -0.0004265 0.0000035 0.0000426 0.0000605 -0.0001079 0.0000150 -0.0002339 -0.0001660 -0.0002022 0.0001461 -0.0003488 0.0006473 -0.0011607 -0.0004305 0.0000165 0.0001227 -0.0000595 0.0000467 -0.0001854 -0.0001268 0.0001246 -0.0000663 0.0000344 -0.0008489 -0.0001092 -0.0000532 -0.0002276 0.0001902 -0.0004579 -0.0002253 -0.0003399 0.0000283 -0.0002458 0.0003373 0.0005279 0.0000028 -0.0000163 -0.0000178 -0.0002890 -0.0001811 -0.0000401 -0.0000329 -0.0004501 -0.0000814 -0.0004612 0.0001863 -0.0005046 -0.0001233 -0.0003215 -0.0000944 -0.0003677 -0.0003655 -0.0003071 -0.0000205 -0.0001385 0.0001379 -0.0002252 -0.0003129 -0.0000775 0.0000009 -0.0006474 -0.0002053 -0.0003324 0.0002259 -0.0004699 -0.0001052 0.0000055 -0.0004896 -0.0004230 0.0000582 -0.0001813 0.0002432 -0.0003191 -0.0001675 -0.0000630 0.0001335 -0.0004059 0.0000782 -0.0001427 -0.0004178 0.0002112 0.0001037 -0.0002158 0.0000243 -0.0000909 0.0001455 -0.0003081 0.0001478 -0.0003165 -0.0000257 -0.0001448
