-0.0000000 -0.0000000 -0.0000000 -0.0000000 -0.0000000 -0.0000000 -0.0000000 -0.0000000 -0.0000000 -0.0000000 -0.0000000 -0.0000000 -0.0000000 -0.0000000 -0.0000000 -0.0000000 -0.0000000 -0.0000000 -0.0000000 -0.0000000 -0.0000000 -0.0000000 -0.0000000 -0.0000000 -0.0000000 -0.0000000 -0.0000000 -0.0000000 -0.0000000 -0.0000000 -0.0000000 -0.0000000 -0.0000000 -0.0000000 -0.0000000 -0.0000000 -0.0000000 -0.0000000 -0.0000000 -0.0000000 -0.0000000 -0.0000000 -0.0000000 -0.0000000 -0.0000000 -0.0000000 -0.0000000 -0.0000000 -0.0000000 -0.0000000 -0.0000000 -0.0000000 -0.0000000 -0.0000000 -0.0000000 -0.0000000 -0.0000000 -0.0000000 -0.0000000 -0.0000000 -0.0000000 -0.0000000 -0.0000000 -0.0000000 -0.0000000 -0.0000000 -0.0000000 -0.0000000 -0.0000000 -0.0000000 -0.0000000 -0.0000000 -0.0000000 -0.0000000 -0.0000000 -0.0000000 -0.0000000 -0.0000000 -0.0000000 -0.0000000 -0.0000000 -0.0000000 -0.0000000 -0.0000000 -0.0000000 -0.0000000 -0.0000000 -0.0000000 -0.0000000 -0.0000000 -0.0000000 -0.0000000 -0.0000000 -0.0000000 -0.0000000 -0.0000000 -0.0000000 -0.0000000 -0.0000000 -0.0000000 -0.0000000 -0.0000000 -0.0000000 -0.0000000 -0.0000000 -0.0000000 -0.0000000 -0.0000000 -0.0000000 -0.0000000 -0.0000000 -0.0000000 -0.0000000 -0.0000000 -0.0000000 -0.0000000 -0.0000000 -0.0000000 -0.0000000 -0.0000000 -0.0000000 -0.0000000 -0.0000000 -0.0000000 -0.0000000 -0.0000000 -0.0000000 -0.0000000 -0.0000000 -0.0000000 -0.0000000 -0.0000000 -0.0000000 -0.0000000 -0.0000000 -0.0000000 -0.0000000 -0.0000000 -0.0000000 -0.0000000 -0.0000000 -0.0000000 -0.0000000 -0.0000000 -0.0000000 -0.0000000 -0.0000000 -0.0000000 -0.0000000 -0.0000000 -0.0000000 -0.0000000 -0.0000000 -0.0000000 -0.0000000 -0.0000000 -0.0000000 -0.0000000 -0.0000000 -0.0000000 -0.0000000 -0.0000000 -0.0000000 -0.0000000 -0.0000000 -0.0000000 -0.0000000 -0.0000000 -0.0000000 -0.0000000 -0.0000000 -0.0000000 -0.0000000 -0.0000000 -0.0000000 -0.0000000 -0.0000000 -0.0000000 -0.0000000 -0.0000000 -0.0000000 -0.0000000 -0.0000000 -0.0000000 -0.0000000 -0.0000000 -0.0000000 -0.0000000 -0.0000000 -0.0000000 -0.0000000 -0.0000000 -0.0000000 -0.0000000 -0.0000000 -0.0000000 -0.0000000 -0.0000000 -0.0000000 -0.0000000 -0.0000000 -0.0000000 -0.0000000 -0.0000000 -0.0000000 -0.0000000 -0.0000000 -0.0000000 -0.0000000 -0.0000000 -0.0000000 -0.0000000 -0.0000000 -0.0000000 -0.0000000 -0.0000000
-0.0000000 -0.0000000 -0.0000000 -0.0000000 -0.0000000 -0.0000000 -0.0000000 -0.0000000 -0.0000000 -0.0000000 -0.0000000 -0.0000000 -0.0000000 -0.0000000 -0.0000000 -0.0000000 -0.0000000 -0.0000000 -0.0000000 -0.0000000 -0.0000000 -0.0000000 -0.0000000 -0.0000000 -0.0000000 -0.0000000 -0.0000000 -0.0000000 -0.0000000 -0.0000000 -0.0000000 -0.0000000 -0.0000000 -0.0000000 -0.0000000 -0.0000000 -0.0000000 -0.0000000 -0.0000000 -0.0000000 -0.0000000 -0.0000000 -0.0000000 -0.0000000 -0.0000000 -0.0000000 -0.0000000 -0.0000000 -0.0000000 -0.0000000 -0.0000000 -0.0000000 -0.0000000 -0.0000000 -0.0000000 -0.0000000 -0.0000000 -0.0000000 -0.0000000 -0.0000000 -0.0000000 -0.0000000 -0.0000000 -0.0000000 -0.0000000 -0.0000000 -0.0000000 -0.0000000 -0.0000000 -0.0000000 -0.0000000 -0.0000000 -0.0000000 -0.0000000 -0.0000000 -0.0000000 -0.0000000 -0.0000000 -0.0000000 -0.0000000 -0.0000000 -0.0000000 -0.0000000 -0.0000000 -0.0000000 -0.0000000 -0.0000000 -0.0000000 -0.0000000 -0.0000000 -0.0000000 -0.0000000 -0.0000000 -0.0000000 -0.0000000 -0.0000000 -0.0000000 -0.0000000 -0.0000000 -0.0000000 -0.0000000 -0.0000000 -0.0000000 -0.0000000 -0.0000000 -0.0000000 -0.0000000 -0.0000000 -0.0000000 -0.0000000 -0.0000000 -0.0000000 -0.0000000 -0.0000000 -0.0000000 -0.0000000 -0.0000000 -0.0000000 -0.0000000 -0.0000000 -0.0000000 -0.0000000 -0.0000000 -0.0000000 -0.0000000 -0.0000000 -0.0000000 -0.0000000 -0.0000000 -0.0000000 -0.0000000 -0.0000000 -0.0000000 -0.0000000 -0.0000000 -0.0000000 -0.0000000 -0.0000000 -0.0000000 -0.0000000 -0.0000000 -0.0000000 -0.0000000 -0.0000000 -0.0000000 -0.0000000 -0.0000000 -0.0000000 -0.0000000 -0.0000000 -0.0000000 -0.0000000 -0.0000000 -0.0000000 -0.0000000 -0.0000000 -0.0000000 -0.0000000 -0.0000000 -0.0000000 -0.0000000 -0.0000000 -0.0000000 -0.0000000 -0.0000000 -0.0000000 -0.0000000 -0.0000000 -0.0000000 -0.0000000 -0.0000000 -0.0000000 -0.0000000 -0.0000000 -0.0000000 -0.0000000 -0.0000000 -0.0000000 -0.0000000 -0.0000000 -0.0000000 -0.0000000 -0.0000000 -0.0000000 -0.0000000 -0.0000000 -0.0000000 -0.0000000 -0.0000000 -0.0000000 -0.0000000 -0.0000000 -0.0000000 -0.0000000 -0.0000000 -0.0000000 -0.0000000 -0.0000000 -0.0000000 -0.0000000 -0.0000000 -0.0000000 -0.0000000 -0.0000000 -0.0000000 -0.0000000 -0.0000000 -0.0000000 -0.0000000 -0.0000000 -0.0000000 -0.0000000 -0.0000000 -0.0000000 -0.0000000 -0.0000000
0.0000145 -0.0000734 0.0000225 -0.0000684 0.0000039 -0.0001826 0.0000258 -0.0001157 -0.0000059 -0.0000147 0.0000268 -0.0001331 -0.0000049 -0.0001686 -0.0000217 -0.0001270 0.0000112 -0.0002040 0.0000202 -0.0000835 0.0000170 -0.0000871 -0.0000081 -0.0000846 0.0000127 -0.0000900 0.0000030 -0.0001439 0.0000082 -0.0001897 0.0000283 -0.0000763 0.0000068 -0.0001441 0.0000012 -0.0001586 0.0000337 -0.0001372 0.0000070 -0.0001807 -0.0000023 -0.0001432 0.0000025 -0.0000872 0.0000188 -0.0001554 0.0000301 -0.0001595 -0.0000139 -0.0001567 0.0000400 -0.0000239 0.0001443 -0.0001303 0.0000189 -0.0000399 0.0000925 -0.0001828 0.0000030 -0.0000191 -0.0000245 -0.0001676 0.0000562 -0.0000442 0.0000139 -0.0000416 -0.0000002 -0.0000139 0.0000137 -0.0000025 -0.0000747 -0.0004547 -0.0000609 -0.0003962 0.0001576 0.0000451 0.0000716 -0.0000358 0.0000182 0.0001655 -0.0000768 0.0000773 -0.0000365 0.0001545 0.0000150 0.0001090 -0.0000468 -0.0001655 -0.0000097 0.0001508 0.0000111 0.0000434 0.0001741 -0.0000528 -0.0000579 0.0001306 -0.0000217 -0.0000015 0.0000581 0.0000881 -0.0000309 0.0000047 0.0000060 0.0000612 -0.0000022 0.0000729 -0.0000183 -0.0000102 -0.0000143 0.0000736 0.0000014 0.0000047 0.0000265 0.0000658 0.0000659 -0.0000089 0.0000022 0.0000789 -0.0000262 0.0001970 0.0000133 0.0000827 -0.0000478 0.0000465 0.0000849 -0.0001540 0.0000266 0.0001576 0.0000079 0.0001691 0.0000071 0.0001400 -0.0002691 0.0003984 0.0000134 0.0001417 -0.0000834 0.0001969 -0.0000571 0.0002828 0.0000216 0.0000931 0.0000323 0.0000652 0.0000296 0.0000935 0.0000276 0.0001028 0.0001080 -0.0000462 -0.0000290 0.0001249 0.0000054 -0.0001548 0.0000837 0.0000236 0.0000166 0.0000704 -0.0000186 0.0000512 -0.0000016 0.0000727 -0.0000008 0.0001335 -0.0000064 0.0000864 0.0000232 0.0000784 -0.0000191 0.0001244 0.0000151 0.0000679 0.0000003 0.0000766 0.0000417 0.0000333 0.0000155 0.0000850 -0.0000145 0.0001101 -0.0000038 0.0000898 -0.0000340 0.0001414 -0.0001242 0.0002126 -0.0000684 0.0001527 0.0002234 -0.0000651 -0.0000546 0.0001573 -0.0005264 0.0008841 0.0004314 -0.0002107 0.0002007 0.0000368 0.0000039 0.0000998 0.0000243 0.0000686 0.0000327 0.0000522 -0.0002628 0.0003285 0.0000171 0.0000357 0.0002141 -0.0001446 0.0000923 0.0000150 -0.0000610 0.0000867 -0.0000202 0.0000746
0.0000370 -0.0000089 0.0000059 -0.0000357 0.0000144 -0.0001658 0.0000392 -0.0000241 -0.0000158 0.0001588 0.0000622 -0.0000946 0.0000092 -0.0001987 -0.0000127 -0.0001585 0.0000031 -0.0002552 0.0000216 -0.0000634 0.0000549 -0.0001511 0.0000100 -0.0000772 0.0000175 -0.0000614 0.0000346 -0.0000106 0.0000317 -0.0002257 0.0000520 0.0000640 -0.0000003 -0.0001869 0.0000125 -0.0001824 0.0000297 -0.0002361 0.0000954 -0.0002492 0.0000042 -0.0001420 0.0000158 -0.0000654 -0.0000421 -0.0000782 0.0000404 -0.0002466 0.0000144 -0.0002349 0.0000697 0.0000443 0.0002747 -0.0001458 0.0000293 -0.0000192 0.0001593 -0.0003499 0.0000286 -0.0000748 -0.0000555 -0.0002950 0.0000310 -0.0000151 0.0000311 -0.0000826 0.0000063 -0.0000762 0.0000423 -0.0000089 -0.0000344 -0.0007676 -0.0000791 -0.0007762 0.0002440 -0.0000357 0.0000716 -0.0000811 0.0000703 0.0001168 -0.0000541 -0.0000198 0.0000144 0.0000394 -0.0000099 -0.0000607 -0.0000733 -0.0003879 0.0000315 0.0000498 0.0000330 -0.0000545 0.0002752 -0.0001010 -0.0001297 0.0000508 0.0000204 -0.0000812 0.0001339 -0.0000632 -0.0000053 -0.0001110 0.0000044 0.0000327 0.0000213 -0.0000430 -0.0000192 -0.0000279 -0.0000107 0.0000266 0.0000294 -0.0000536 0.0000493 0.0000567 -0.0000126 0.0000222 0.0000160 0.0000228 0.0000159 0.0000459 0.0000208 0.0000048 -0.0001001 -0.0000816 -0.0000077 -0.0000419 0.0000414 0.0001507 0.0000301 0.0001288 0.0000240 0.0001459 -0.0002761 0.0001201 -0.0000069 0.0000901 0.0002133 -0.0000704 -0.0000424 0.0001643 0.0000177 0.0000386 0.0000374 0.0000555 -0.0000018 0.0000909 0.0001096 0.0000473 0.0002238 -0.0001194 -0.0000663 0.0001233 -0.0005945 0.0004696 -0.0001488 0.0002017 -0.0000014 0.0001123 0.0000178 0.0001129 0.0000095 0.0001096 0.0000119 0.0000902 0.0000150 0.0001207 -0.0000010 0.0001443 0.0000663 0.0000185 -0.0000019 0.0001087 -0.0000208 0.0001401 0.0000530 0.0001275 0.0000124 0.0001714 -0.0000064 0.0001866 -0.0000129 0.0001843 -0.0001417 0.0003792 -0.0001456 0.0003646 -0.0002147 0.0002992 0.0002507 -0.0000365 0.0000370 0.0002319 -0.0006367 0.0008557 0.0001937 0.0001175 0.0004049 -0.0000619 0.0000237 0.0001791 -0.0000642 0.0001742 -0.0000443 0.0001834 0.0002072 -0.0002544 -0.0000093 0.0001124 0.0003737 -0.0002099 0.0001776 -0.0000007 -0.0000775 0.0001340 0.0001261 0.0002180
0.0000449 0.0001204 0.0000235 0.0000447 -0.0000128 0.0000321 0.0000384 0.0001762 -0.0000201 0.0002754 0.0000733 0.0001194 0.0000025 -0.0000693 -0.0000155 -0.0000249 -0.0000076 -0.0001923 0.0000117 0.0000357 0.0000442 -0.0000768 0.0000429 0.0000134 0.0000336 0.0000179 0.0000387 0.0002317 0.0000376 -0.0000852 0.0000541 0.0002490 0.0000071 -0.0001405 0.0000160 -0.0001096 0.0000206 -0.0001884 0.0001434 -0.0001696 0.0000173 -0.0000531 0.0000209 -0.0000257 -0.0000211 0.0000005 0.0000435 -0.0002188 0.0000105 -0.0001797 0.0000570 0.0000803 0.0003691 -0.0001371 0.0000330 -0.0000293 0.0001851 -0.0004688 0.0000078 -0.0000566 -0.0000555 -0.0003420 0.0000332 -0.0000714 0.0000252 0.0000074 0.0000255 0.0000160 0.0000001 0.0000074 0.0001170 -0.0007228 -0.0000237 -0.0007643 0.0002288 -0.0001827 0.0000405 -0.0000692 0.0000889 -0.0000133 -0.0000105 0.0000411 0.0000000 -0.0000348 0.0000157 -0.0001586 -0.0000725 -0.0004758 0.0000140 -0.0000494 0.0000300 -0.0001034 0.0003669 -0.0001163 0.0000396 -0.0000228 -0.0000094 0.0000362 -0.0000134 -0.0000417 -0.0000018 -0.0002092 -0.0000125 -0.0000720 -0.0000059 -0.0000465 0.0000136 -0.0001342 0.0000018 -0.0001081 0.0000213 -0.0001227 0.0000336 -0.0000680 -0.0000340 -0.0000181 -0.0000042 -0.0000413 0.0000160 -0.0000198 0.0000067 0.0000127 -0.0000935 -0.0000818 -0.0003378 0.0003589 0.0000110 -0.0000571 0.0000182 -0.0000490 -0.0000046 -0.0000197 0.0001835 -0.0001200 0.0000176 -0.0000531 0.0000953 0.0000547 -0.0000267 0.0000342 -0.0000032 -0.0000619 -0.0000138 -0.0000047 0.0000339 -0.0000519 -0.0000026 0.0000313 -0.0002195 0.0002017 0.0000193 0.0000778 -0.0002503 0.0002488 -0.0003026 0.0003415 0.0000225 -0.0000293 0.0000739 -0.0000526 -0.0000159 0.0000265 -0.0000356 -0.0000515 0.0000436 0.0000054 0.0000061 0.0000349 0.0000384 -0.0000951 0.0000585 0.0000352 0.0000005 0.0000197 0.0000127 0.0000609 0.0000122 0.0001137 0.0000093 0.0000589 -0.0000004 0.0000957 -0.0000282 0.0001369 0.0000773 0.0000071 -0.0000302 0.0000643 -0.0000272 0.0001481 0.0000253 0.0001170 0.0003254 -0.0003216 -0.0000253 0.0001133 0.0003520 -0.0001067 0.0000701 0.0000476 -0.0001151 0.0001409 -0.0000878 0.0001535 0.0002684 -0.0005493 0.0000353 0.0000029 -0.0002067 0.0002719 0.0000693 0.0000635 -0.0000373 0.0000870 -0.0000741 0.0003496
0.0000541 0.0001827 0.0000574 0.0000833 -0.0000224 0.0000867 0.0000072 0.0003017 -0.0000252 0.0004028 0.0000671 0.0002518 -0.0000163 0.0000415 -0.0000145 0.0001208 0.0000118 -0.0000911 -0.0000021 0.0001348 -0.0000051 0.0000182 0.0000169 0.0001186 -0.0000138 0.0000999 0.0000318 0.0004800 0.0000386 0.0001214 0.0000505 0.0004120 0.0000298 -0.0000700 0.0000522 -0.0000677 -0.0000118 -0.0000609 -0.0000349 0.0000923 0.0000283 0.0000987 0.0000445 0.0000355 0.0000479 0.0000408 0.0000328 -0.0001176 0.0000152 -0.0000735 0.0000330 0.0001290 0.0004424 -0.0000260 0.0000614 0.0000137 0.0002323 -0.0004107 -0.0000076 -0.0000094 -0.0000254 -0.0002689 0.0001089 -0.0001844 -0.0000101 -0.0000008 0.0000156 0.0000271 -0.0000120 -0.0000437 0.0002681 -0.0005307 0.0000193 -0.0006413 0.0002174 -0.0002546 0.0000223 -0.0000302 0.0000363 -0.0000966 0.0001095 -0.0000259 -0.0000599 0.0000100 0.0000441 -0.0002173 -0.0000785 -0.0003846 -0.0000333 -0.0000885 0.0000509 -0.0001089 0.0003157 -0.0002269 0.0000185 0.0000122 0.0000264 -0.0000194 -0.0000922 0.0000556 0.0000061 -0.0002230 -0.0000201 -0.0000659 -0.0000179 -0.0000279 0.0000286 -0.0001323 -0.0000016 -0.0001468 0.0000128 -0.0001321 0.0000134 -0.0001101 0.0000057 -0.0000497 -0.0000062 -0.0000886 0.0000188 -0.0000524 -0.0000029 -0.0000007 -0.0002527 0.0001854 -0.0003063 0.0002851 -0.0000081 -0.0001403 0.0000166 -0.0001139 -0.0000334 -0.0000791 -0.0009434 0.0008032 0.0000048 -0.0000799 0.0000707 0.0000179 -0.0000528 0.0000392 -0.0000157 -0.0000563 -0.0000310 -0.0000087 0.0000852 -0.0001311 0.0000439 -0.0000045 -0.0000631 -0.0001489 0.0001248 -0.0000495 -0.0003081 0.0000578 -0.0001779 0.0003242 0.0000169 -0.0000999 0.0000073 -0.0000683 -0.0000229 -0.0000267 -0.0000775 -0.0000135 0.0000481 -0.0000329 -0.0000064 0.0000050 0.0001193 -0.0001303 0.0000303 0.0000281 0.0000217 -0.0000400 -0.0000320 0.0000706 -0.0000486 0.0001176 0.0000321 -0.0000111 0.0000110 0.0000380 0.0000723 0.0000118 0.0003084 -0.0002611 0.0001286 -0.0001073 -0.0002941 0.0002752 0.0000325 0.0000883 0.0009121 -0.0007158 -0.0002310 0.0002412 0.0001091 -0.0000060 0.0000617 -0.0000113 -0.0000426 -0.0000693 0.0000025 0.0000495 0.0008203 -0.0011335 0.0000361 0.0000350 -0.0002987 0.0003150 -0.0000738 0.0001350 0.0000233 0.0000199 0.0000734 0.0000196
0.0000576 0.0001773 0.0000459 0.0000028 -0.0000222 0.0000332 0.0000284 0.0003205 -0.0000116 0.0004559 0.0000356 0.0002666 0.0000017 0.0000178 0.0000002 0.0001236 0.0000321 -0.0000848 0.0000168 0.0000807 0.0000053 -0.0000262 -0.0000091 0.0001091 0.0000050 0.0000058 0.0000329 0.0005539 0.0000456 0.0002095 0.0000375 0.0004672 0.0000361 -0.0000293 0.0000429 0.0000117 -0.0000315 0.0000181 -0.0001037 0.0002058 0.0000194 0.0002425 0.0000375 0.0001192 0.0000893 0.0000772 0.0000160 0.0000205 0.0000394 0.0000185 0.0000458 0.0002093 0.0005121 0.0001832 0.0000622 0.0001405 0.0002781 -0.0002295 -0.0000125 0.0001246 -0.0000193 -0.0001781 0.0000397 -0.0000627 0.0000019 0.0000277 0.0000191 0.0001190 -0.0000190 -0.0000248 0.0003403 -0.0003552 0.0000687 -0.0005335 0.0002464 -0.0001529 -0.0000156 0.0000498 0.0000004 -0.0000771 0.0001038 -0.0000404 -0.0000225 0.0000861 0.0000412 -0.0002103 -0.0000405 -0.0003035 0.0000069 -0.0001155 0.0000507 -0.0000597 0.0002608 -0.0003812 -0.0000818 0.0000893 0.0000666 -0.0000558 0.0000087 0.0000224 0.0000091 -0.0002287 -0.0000845 -0.0000572 0.0000120 -0.0000761 0.0000156 -0.0000401 -0.0000039 -0.0001134 -0.0000005 -0.0000937 -0.0000089 -0.0001092 0.0000180 -0.0000779 0.0000210 -0.0001543 0.0000338 -0.0001528 0.0000353 -0.0001065 -0.0003144 0.0002775 0.0002740 -0.0002766 -0.0000109 -0.0001417 -0.0000033 -0.0001602 -0.0000193 -0.0001280 -0.0013620 0.0010837 -0.0000099 -0.0001491 0.0001064 -0.0001476 -0.0000571 -0.0000596 -0.0000158 -0.0000811 0.0000089 -0.0000742 0.0000337 -0.0000792 0.0001212 -0.0001061 0.0000904 -0.0003727 0.0000338 -0.0000001 0.0000410 -0.0003222 -0.0002987 0.0002275 -0.0000179 -0.0000889 -0.0000320 -0.0000708 -0.0000084 -0.0000526 0.0001159 -0.0001218 0.0000382 -0.0000650 0.0000129 -0.0000225 -0.0000321 0.0000444 -0.0000218 0.0000290 0.0000280 -0.0000414 -0.0001240 0.0001481 -0.0000343 0.0000465 0.0000393 -0.0000679 0.0000308 -0.0000434 0.0002000 -0.0000988 0.0002283 -0.0003007 0.0001069 -0.0001385 -0.0002609 0.0002450 -0.0000164 0.0001065 0.0002018 0.0000813 -0.0001892 0.0001251 0.0000104 0.0000316 -0.0000351 0.0000115 -0.0000597 -0.0001658 0.0000319 -0.0000111 0.0011102 -0.0009210 0.0000338 0.0000187 0.0001915 -0.0001319 0.0000453 -0.0000138 0.0000132 -0.0000393 -0.0000614 0.0000229
0.0000654 0.0001614 0.0000361 -0.0000625 -0.0000450 -0.0000267 0.0000208 0.0003560 0.0000053 0.0004807 0.0000323 0.0002433 0.0000428 -0.0000688 0.0000112 0.0001412 0.0000438 -0.0000776 0.0000294 -0.0000270 0.0000644 -0.0001475 0.0000267 -0.0000558 -0.0000168 -0.0000207 0.0000371 0.0005048 0.0000429 0.0001689 0.0000343 0.0004819 0.0000481 -0.0001091 0.0000230 -0.0000678 -0.0000127 -0.0000088 -0.0000098 0.0000632 0.0000252 0.0001422 -0.0000012 0.0001253 0.0000142 0.0001229 0.0000219 0.0000960 0.0000481 0.0000259 0.0000453 0.0002507 0.0005700 0.0003068 0.0000601 0.0001683 0.0003243 -0.0000869 0.0000116 0.0001520 0.0000100 -0.0001706 0.0000010 0.0000264 -0.0000034 0.0000853 0.0000186 0.0002116 -0.0000291 0.0000090 0.0003926 -0.0000256 0.0001423 -0.0004353 0.0003228 -0.0000201 -0.0000885 0.0001780 0.0000095 0.0000359 0.0000169 0.0000554 -0.0000160 0.0001426 0.0000585 -0.0000525 0.0000079 -0.0001543 0.0000822 -0.0000354 0.0000428 0.0000341 0.0003413 -0.0002995 -0.0001577 0.0002287 0.0000935 0.0000201 0.0001949 -0.0000314 -0.0000003 -0.0001419 -0.0000550 0.0000009 0.0000332 -0.0000334 0.0000349 0.0000167 0.0000089 -0.0000564 -0.0000143 -0.0000486 0.0000085 -0.0001210 0.0000492 -0.0001160 0.0000106 -0.0001621 0.0000266 -0.0001886 0.0000242 -0.0000812 -0.0000725 0.0000745 0.0001939 -0.0001153 0.0000106 -0.0001789 -0.0000096 -0.0002320 -0.0000349 -0.0001115 -0.0007160 0.0002445 0.0000027 -0.0002627 0.0000561 -0.0002258 0.0000115 -0.0002203 0.0000213 -0.0001950 0.0000176 -0.0001740 0.0000035 -0.0001210 0.0001713 -0.0002525 0.0001655 -0.0003286 0.0000457 -0.0000240 0.0006426 -0.0007387 -0.0003536 0.0001419 0.0000166 -0.0001341 -0.0000083 -0.0001191 -0.0000037 -0.0000864 0.0001673 -0.0002752 0.0000085 -0.0001181 0.0000138 -0.0001117 -0.0001882 0.0001251 -0.0000635 0.0000060 0.0000263 -0.0000963 -0.0000716 0.0000292 -0.0000295 -0.0000097 0.0000179 -0.0001073 0.0000202 -0.0001254 0.0001906 -0.0002630 -0.0000080 -0.0001370 0.0000127 -0.0001404 -0.0000913 0.0001492 -0.0000247 0.0000422 -0.0004295 0.0000284 -0.0000353 -0.0000502 -0.0001707 0.0002481 0.0000491 -0.0001326 -0.0000754 -0.0001213 -0.0000456 -0.0000245 -0.0001080 0.0003184 0.0000487 -0.0000547 0.0002069 -0.0000965 -0.0000464 0.0000301 0.0000039 -0.0000665 -0.0001187 0.0000496
0.0000768 0.0000921 0.0000516 -0.0001457 -0.0000056 -0.0001894 0.0000045 0.0003648 0.0000307 0.0003661 0.0000650 0.0001267 0.0001229 -0.0002525 0.0000350 0.0000666 0.0000664 -0.0001143 0.0000339 -0.0001469 0.0001440 -0.0003062 0.0000383 -0.0002320 0.0000291 -0.0000820 0.0000481 0.0003341 0.0000324 0.0000648 0.0000417 0.0003932 0.0000623 -0.0002099 0.0000441 -0.0002104 -0.0000045 -0.0001368 0.0000091 -0.0000356 0.0000402 -0.0000269 0.0000048 0.0000436 -0.0000026 0.0000191 0.0000217 0.0000420 0.0000621 -0.0000266 0.0000465 0.0002117 0.0006120 0.0003114 0.0000922 0.0000367 0.0003752 -0.0001214 0.0000171 -0.0000058 0.0000274 -0.0003011 0.0000650 -0.0001351 0.0000306 0.0000227 0.0000393 0.0001049 -0.0000407 -0.0001230 0.0004393 0.0000898 0.0002081 -0.0005045 0.0003719 -0.0000202 -0.0000664 0.0001169 0.0000499 -0.0000004 -0.0000351 0.0000053 0.0000055 0.0000771 0.0000961 -0.0000602 0.0000259 -0.0001229 0.0001391 -0.0000769 0.0000634 -0.0000431 0.0002026 -0.0002154 -0.0000215 0.0001483 -0.0000146 -0.0000007 0.0000302 -0.0000348 -0.0000140 -0.0000566 -0.0000853 0.0001291 0.0000303 0.0000262 0.0000507 0.0000414 0.0000331 0.0000045 0.0000042 -0.0000458 0.0000439 -0.0001157 -0.0000691 0.0000467 0.0000172 -0.0001378 -0.0000280 -0.0000039 -0.0000097 0.0000619 0.0000338 0.0000568 0.0002173 -0.0002731 0.0000367 -0.0001419 -0.0000096 -0.0001241 -0.0000567 -0.0000283 -0.0004595 0.0002015 0.0000510 -0.0001781 -0.0002053 0.0001038 0.0000566 -0.0001188 0.0000506 -0.0001739 0.0000150 -0.0001511 0.0000243 -0.0001173 0.0001295 -0.0001891 0.0001297 -0.0002510 0.0000452 0.0000032 0.0006137 -0.0006132 -0.0001928 0.0001035 0.0000437 -0.0001399 -0.0000150 -0.0000992 0.0000245 -0.0001378 0.0001677 -0.0002329 0.0000252 -0.0001691 0.0000114 -0.0001290 -0.0000487 -0.0000531 -0.0000193 -0.0000522 0.0000519 -0.0001541 0.0000561 -0.0001197 -0.0000632 -0.0000159 -0.0000223 -0.0001187 0.0000062 -0.0001752 0.0000469 -0.0002761 -0.0000200 -0.0001520 -0.0000909 -0.0000593 -0.0001299 -0.0000351 -0.0000667 -0.0000166 0.0002066 -0.0005053 -0.0000029 -0.0001307 -0.0000362 0.0000799 0.0000987 -0.0002562 -0.0001206 -0.0001137 0.0000353 -0.0001694 -0.0013660 0.0008325 0.0000217 -0.0000732 -0.0000024 0.0000832 0.0000649 -0.0001408 0.0000811 -0.0001511 -0.0001997 0.0001106
0.0000913 -0.0000141 0.0000504 -0.0002182 0.0000631 -0.0003769 0.0000396 0.0002665 0.0000490 0.0001997 0.0000860 -0.0000168 0.0001221 -0.0003364 0.0000588 -0.0000331 0.0000918 -0.0001468 0.0000399 -0.0002465 0.0001126 -0.0003278 0.0000317 -0.0003383 0.0000700 -0.0001868 0.0000532 0.0001005 0.0000432 -0.0000966 0.0000532 0.0001893 0.0000776 -0.0002899 0.0000611 -0.0003417 0.0000072 -0.0002446 0.0000456 -0.0001962 0.0000491 -0.0001737 0.0000329 -0.0000455 -0.0000499 -0.0000452 0.0000352 -0.0000220 0.0000794 -0.0001040 0.0000915 0.0000954 0.0006447 0.0002937 0.0001030 -0.0000831 0.0004161 -0.0001831 0.0000297 -0.0001962 0.0000466 -0.0004513 -0.0000036 -0.0002295 0.0000567 -0.0001273 0.0000661 -0.0000959 -0.0000322 -0.0003234 0.0004760 -0.0000804 0.0002450 -0.0006452 0.0003985 -0.0001394 -0.0000039 -0.0000823 0.0000960 -0.0002532 0.0000377 -0.0001905 -0.0001346 0.0000512 0.0001655 -0.0004407 0.0000447 -0.0003304 0.0001844 -0.0002950 0.0001074 -0.0002788 0.0001491 -0.0003526 0.0001104 -0.0001051 0.0000921 -0.0001989 0.0001372 -0.0002809 0.0000208 -0.0001868 -0.0000504 0.0000086 0.0000257 -0.0000628 0.0000578 0.0000093 0.0000305 0.0000074 0.0000454 -0.0001076 0.0000593 -0.0001379 -0.0000344 -0.0000193 0.0000239 -0.0001509 0.0000308 0.0000017 0.0000135 0.0000346 -0.0000478 0.0001532 0.0002175 -0.0003557 0.0000459 -0.0000941 -0.0000042 -0.0000699 -0.0000258 -0.0000423 0.0003366 -0.0002510 0.0000458 -0.0000711 -0.0000794 0.0001223 0.0000031 0.0000386 0.0000492 -0.0001061 0.0000754 -0.0001536 0.0000706 -0.0001438 0.0001840 -0.0001582 -0.0000512 -0.0000576 -0.0000144 0.0000934 0.0002620 -0.0003542 -0.0001454 0.0000779 0.0000878 -0.0001373 0.0000066 -0.0000369 0.0000433 -0.0001092 0.0001354 -0.0001133 0.0000447 -0.0000587 0.0000396 0.0000059 -0.0000809 -0.0000578 0.0000587 -0.0000180 0.0000080 -0.0000124 -0.0000724 -0.0000023 -0.0000579 0.0001157 -0.0000012 -0.0000537 0.0000082 -0.0000351 -0.0000049 -0.0000502 -0.0000349 -0.0000680 0.0000274 -0.0001095 0.0000840 -0.0002309 0.0000136 -0.0000025 -0.0007827 0.0006070 -0.0000334 -0.0001053 -0.0001656 0.0002627 0.0000261 -0.0000686 -0.0000916 -0.0000037 0.0000927 -0.0001579 -0.0017110 0.0013602 -0.0000306 -0.0000403 -0.0001319 0.0001427 0.0002630 -0.0003115 0.0000192 -0.0000763 -0.0002775 0.0001262
0.0001002 -0.0000361 0.0000265 -0.0001377 0.0000598 -0.0003510 0.0000673 0.0001804 0.0000614 0.0001138 0.0001081 -0.0000667 0.0001083 -0.0002875 0.0000626 -0.0000470 0.0000972 -0.0000979 0.0000585 -0.0002832 0.0000392 -0.0002230 0.0000405 -0.0003962 0.0000461 -0.0002188 0.0000626 -0.0000270 0.0000685 -0.0001936 0.0000706 0.0000469 0.0000924 -0.0003225 0.0000676 -0.0004040 0.0000203 -0.0003013 0.0001205 -0.0003300 0.0000619 -0.0002630 0.0000811 -0.0001225 0.0000644 -0.0001432 0.0000514 -0.0000726 0.0000944 -0.0001769 0.0001406 0.0000135 0.0006634 0.0003421 0.0001127 -0.0001867 0.0004450 -0.0001744 0.0000617 -0.0003560 0.0000929 -0.0005516 -0.0000220 -0.0003089 0.0000603 -0.0002447 0.0000736 -0.0002266 -0.0000228 -0.0004155 0.0005027 -0.0001273 0.0002890 -0.0006675 0.0004467 -0.0001380 -0.0000073 -0.0002284 0.0001423 -0.0004321 0.0001568 -0.0003853 -0.0001354 -0.0000645 0.0001957 -0.0006839 0.0000736 -0.0004556 0.0001095 -0.0003495 0.0001188 -0.0004021 0.0002046 -0.0003990 0.0000926 -0.0001204 0.0000864 -0.0001769 0.0002523 -0.0005118 0.0000533 -0.0003799 0.0000458 -0.0001432 0.0000529 -0.0002023 0.0000481 -0.0000816 0.0000432 -0.0001113 0.0000746 -0.0002588 0.0000506 -0.0002306 0.0000236 -0.0002018 0.0000508 -0.0002870 0.0001028 -0.0002560 0.0000400 -0.0001440 -0.0000655 0.0000325 0.0001866 -0.0003553 0.0000520 -0.0002144 0.0000097 -0.0002921 0.0000169 -0.0001767 0.0005554 -0.0005120 0.0000694 -0.0002923 0.0001281 -0.0003424 0.0000118 -0.0001753 0.0000434 -0.0002176 0.0001079 -0.0002912 0.0000502 -0.0002536 0.0002674 -0.0003281 0.0000595 -0.0001014 0.0000592 -0.0000730 0.0000754 -0.0002713 -0.0001156 -0.0001952 0.0000811 -0.0002002 0.0000138 -0.0001123 0.0000432 -0.0001452 0.0000792 -0.0001126 0.0000507 -0.0000294 0.0000570 -0.0000579 -0.0002068 0.0000531 0.0000927 -0.0000401 0.0000153 0.0000031 -0.0000811 -0.0000150 0.0000091 0.0000973 0.0000316 -0.0000623 0.0000484 -0.0000252 0.0002240 -0.0000870 0.0001209 -0.0001337 0.0002323 -0.0003534 0.0003652 -0.0004041 0.0000764 -0.0000808 -0.0006971 0.0005239 0.0001283 -0.0002480 -0.0000555 0.0000252 0.0000741 -0.0000128 -0.0000467 0.0000173 0.0000350 -0.0000757 -0.0018873 0.0014979 -0.0000233 -0.0000684 0.0000447 -0.0000138 0.0000560 -0.0000706 0.0000214 -0.0000445 -0.0002221 0.0001816
0.0001085 -0.0000012 0.0000272 -0.0000309 0.0000272 -0.0001784 0.0000507 0.0002024 0.0000736 0.0000338 0.0001174 0.0000129 0.0000950 -0.0001664 0.0000621 0.0001038 0.0001060 -0.0000158 0.0000789 -0.0002034 0.0000565 -0.0001298 0.0000457 -0.0002892 0.0000020 -0.0001604 -0.0000017 -0.0001487 0.0000961 -0.0001155 0.0000668 -0.0001470 0.0000915 -0.0002270 0.0000841 -0.0002399 0.0000423 -0.0001594 0.0001513 -0.0002324 0.0000527 -0.0001310 0.0001177 -0.0001496 0.0001754 -0.0001446 0.0000588 -0.0000036 0.0000966 -0.0001565 0.0001297 0.0000953 0.0006599 0.0005374 0.0001139 -0.0001095 0.0004670 0.0000591 0.0000833 -0.0001757 0.0001049 -0.0003607 0.0000120 -0.0002032 0.0000648 -0.0001583 0.0000547 -0.0000284 -0.0000521 -0.0002434 0.0005111 0.0002919 0.0003309 -0.0003528 0.0004758 0.0001212 0.0000043 -0.0001208 0.0001755 -0.0002581 0.0000509 -0.0002252 0.0001451 -0.0001472 0.0002030 -0.0004712 0.0000660 -0.0002694 0.0001034 -0.0002258 0.0000958 -0.0002480 0.0001360 -0.0001678 0.0000480 -0.0000706 0.0000410 -0.0001304 0.0000808 -0.0002895 0.0000671 -0.0003620 0.0000318 -0.0000563 0.0000478 -0.0001707 0.0000569 -0.0001530 0.0000673 -0.0001614 0.0000878 -0.0002863 0.0000565 -0.0002584 0.0000298 -0.0001599 0.0000704 -0.0003288 0.0001384 -0.0004355 -0.0000201 -0.0001399 0.0000989 -0.0002587 0.0003080 -0.0005147 0.0000561 -0.0002876 0.0000295 -0.0004188 0.0000271 -0.0002132 0.0002670 -0.0005934 0.0001100 -0.0004736 0.0001840 -0.0004845 0.0000766 -0.0003898 0.0000615 -0.0003357 0.0001106 -0.0003720 0.0000279 -0.0002617 0.0001296 -0.0002937 0.0000572 -0.0001983 0.0000760 -0.0001854 -0.0006345 0.0002869 -0.0005448 0.0000960 0.0000635 -0.0002214 0.0000086 -0.0001669 0.0000891 -0.0002421 0.0001318 -0.0002437 0.0000693 -0.0001948 0.0000430 -0.0002547 -0.0002732 0.0001595 0.0000415 -0.0001558 0.0000716 -0.0001607 0.0000301 -0.0001647 0.0000382 -0.0001214 0.0000127 -0.0001551 0.0000930 -0.0002399 0.0002609 -0.0002888 -0.0000573 -0.0001218 0.0002195 -0.0004454 0.0005538 -0.0006587 -0.0000144 -0.0001970 -0.0002353 -0.0002045 0.0003461 -0.0004170 0.0001662 -0.0003592 0.0001177 -0.0001811 -0.0000867 -0.0001091 0.0000138 -0.0001465 -0.0008430 0.0006086 0.0000175 -0.0001819 0.0000124 0.0000155 -0.0004973 0.0002749 0.0000552 -0.0001114 -0.0003727 0.0003175
0.0001069 -0.0000769 0.0000549 -0.0001276 0.0000371 -0.0002171 0.0000548 0.0001756 0.0000933 -0.0001574 0.0001321 -0.0000491 0.0000783 -0.0001628 0.0000894 0.0001244 0.0000944 -0.0000308 0.0000888 -0.0001917 0.0001032 -0.0001360 0.0000525 -0.0002313 -0.0000403 -0.0001298 -0.0000604 -0.0002721 0.0001088 -0.0001284 0.0000593 -0.0004400 0.0001210 -0.0002063 0.0001129 -0.0001694 0.0000946 0.0000088 0.0001080 -0.0001427 0.0000443 -0.0000874 0.0001154 -0.0001510 0.0000736 0.0000176 0.0000807 0.0000677 0.0000826 -0.0001259 0.0000875 0.0001670 0.0006524 0.0006984 0.0000931 0.0000002 0.0004810 0.0002525 0.0000801 -0.0000120 0.0001162 -0.0002207 0.0000103 -0.0001090 0.0001044 -0.0001121 0.0000310 0.0001015 -0.0000163 -0.0001643 0.0005053 0.0006848 0.0003577 -0.0000961 0.0004812 0.0003545 0.0000625 -0.0000510 0.0001669 -0.0000661 0.0000470 -0.0000465 0.0001267 0.0000299 0.0002051 -0.0002016 0.0000774 -0.0000795 0.0001587 -0.0000937 0.0000948 -0.0000613 -0.0002154 0.0001384 -0.0000854 -0.0000209 0.0001962 -0.0002493 0.0001727 -0.0002172 0.0000522 -0.0001138 0.0000362 0.0001066 0.0000434 0.0000050 0.0000836 -0.0001710 0.0000579 -0.0000766 0.0000882 -0.0002242 0.0000726 -0.0001881 0.0000231 -0.0000233 0.0000562 -0.0002144 0.0000337 -0.0002025 -0.0000360 0.0000059 0.0000195 -0.0000487 0.0003810 -0.0003659 0.0000584 -0.0001598 0.0000234 -0.0002120 0.0000277 -0.0000922 0.0006554 -0.0008402 0.0001004 -0.0002625 0.0003144 -0.0003624 0.0000876 -0.0001916 0.0000646 -0.0001716 0.0001050 -0.0001871 0.0000302 -0.0001003 0.0000192 -0.0000671 0.0001624 -0.0002250 0.0000306 -0.0000540 -0.0009874 0.0005861 -0.0002602 0.0001154 0.0000743 -0.0001107 0.0000590 -0.0000852 -0.0000060 0.0000012 0.0002112 -0.0001688 0.0000607 -0.0000013 0.0000451 -0.0000533 -0.0002232 0.0001938 0.0000429 -0.0000103 0.0000446 -0.0000166 -0.0000676 0.0000258 -0.0000385 0.0001360 0.0000026 0.0000312 0.0000747 -0.0000213 0.0000750 0.0001233 0.0003134 -0.0001607 0.0002605 -0.0003109 0.0003434 -0.0002774 -0.0001883 0.0001690 -0.0003594 0.0002384 0.0000472 -0.0000560 0.0003067 -0.0002676 0.0000300 0.0000893 0.0000081 0.0000171 0.0000043 -0.0000321 0.0000850 -0.0001102 0.0000115 -0.0000983 0.0000915 -0.0000741 -0.0002391 0.0001237 -0.0000230 0.0000161 -0.0002520 0.0002681
0.0000915 -0.0000759 0.0000628 -0.0001717 0.0000640 -0.0002769 0.0000527 0.0001475 0.0000938 -0.0002411 0.0001201 -0.0000824 0.0001163 -0.0002258 0.0000956 -0.0000018 0.0000911 -0.0000266 0.0000629 -0.0002235 0.0000715 -0.0001400 0.0000564 -0.0003414 -0.0000410 -0.0001544 -0.0000143 -0.0001308 0.0001042 -0.0001474 0.0000694 -0.0004072 0.0001251 -0.0002189 0.0001156 -0.0002498 0.0001117 0.0000129 0.0001213 -0.0002301 0.0000571 -0.0002162 0.0000821 -0.0001498 0.0000541 -0.0000021 0.0001002 0.0000478 0.0000960 -0.0001640 0.0000837 0.0001331 0.0006434 0.0007505 0.0001146 -0.0000362 0.0005142 0.0002118 0.0000545 -0.0001431 0.0001306 -0.0003033 0.0000457 -0.0002093 0.0000231 -0.0001251 0.0000249 -0.0000009 0.0000319 -0.0002406 0.0005114 0.0006226 0.0003676 -0.0001069 0.0004707 0.0003985 0.0000127 -0.0001300 0.0001458 -0.0001510 0.0002074 -0.0002115 0.0001024 -0.0000638 0.0001839 -0.0003028 0.0000687 -0.0001354 0.0001329 -0.0001173 0.0000731 -0.0000777 -0.0003615 0.0000845 -0.0001530 0.0000180 0.0001241 -0.0001927 0.0002348 -0.0002448 0.0000579 -0.0000641 0.0000879 0.0001343 0.0000544 0.0000307 0.0000812 -0.0001722 0.0000460 -0.0000542 0.0000937 -0.0002385 0.0000661 -0.0001455 0.0000952 -0.0001090 0.0000673 -0.0001752 -0.0000495 -0.0000187 0.0000299 -0.0000301 -0.0000335 0.0000259 0.0001404 -0.0000666 0.0000641 -0.0000858 0.0000218 -0.0000900 0.0000331 -0.0000313 0.0002129 -0.0004223 0.0000927 -0.0001475 0.0002855 -0.0001782 0.0001335 -0.0001385 0.0000574 -0.0000712 0.0001271 -0.0000921 0.0000530 -0.0000445 -0.0000442 0.0001167 0.0005219 -0.0004803 -0.0000307 0.0000600 -0.0001071 -0.0001960 0.0004096 -0.0004483 0.0001004 -0.0000460 0.0000817 -0.0000252 -0.0000420 0.0001527 0.0001450 0.0000316 0.0000642 0.0001503 0.0000714 0.0000994 -0.0000575 -0.0000011 0.0000118 0.0001797 0.0000191 0.0001291 -0.0000931 0.0001519 -0.0000220 0.0002285 0.0000024 0.0001653 0.0000578 0.0001424 0.0000854 0.0003083 0.0005901 -0.0001941 0.0001392 -0.0000986 0.0003518 -0.0002017 -0.0000108 0.0002428 0.0001746 0.0001000 -0.0001501 0.0001168 0.0005816 -0.0003392 0.0000010 0.0003345 0.0000700 0.0002396 -0.0000009 0.0000720 0.0000885 -0.0007107 -0.0000006 0.0000879 0.0001594 -0.0000677 0.0000634 0.0001006 0.0000163 0.0001442 -0.0000021 0.0001905
0.0000925 0.0000905 0.0000194 0.0000188 0.0000613 -0.0000796 0.0000293 0.0001878 0.0000584 -0.0001103 0.0000815 0.0001516 0.0000781 -0.0000226 0.0000695 0.0001251 0.0000874 0.0001599 0.0000461 -0.0000578 0.0000452 0.0000015 0.0000237 -0.0001449 -0.0000037 -0.0000674 -0.0000132 0.0001634 0.0000874 0.0001480 0.0000689 -0.0001712 0.0001143 -0.0000327 0.0000947 -0.0000368 0.0000893 0.0001992 0.0001009 -0.0000374 0.0000419 0.0000069 0.0000397 -0.0000379 0.0000176 0.0001545 0.0000928 0.0001647 0.0000897 -0.0000601 0.0000845 0.0002548 0.0006220 0.0009357 0.0001069 0.0001610 0.0005298 0.0004039 0.0000519 0.0000458 0.0000961 -0.0000795 -0.0000588 0.0000469 -0.0000416 0.0000446 0.0000165 0.0001874 -0.0000405 0.0000052 0.0005108 0.0007320 0.0003795 0.0000977 0.0004574 0.0005545 0.0000432 -0.0001032 0.0001242 -0.0000491 0.0000488 -0.0000023 -0.0000446 0.0001299 0.0001744 -0.0003021 0.0000523 -0.0000882 0.0001697 -0.0001224 0.0000375 -0.0000087 0.0000456 -0.0002034 0.0000781 -0.0000076 -0.0000254 -0.0000097 0.0002158 -0.0001091 0.0000349 -0.0000940 0.0000975 0.0001971 0.0000504 0.0000266 0.0001008 -0.0001845 0.0000530 -0.0000625 0.0001460 -0.0002325 0.0000835 -0.0001613 0.0002209 -0.0002992 0.0000905 -0.0001961 0.0000992 -0.0002160 0.0000308 -0.0001102 -0.0000777 0.0000753 -0.0004717 0.0004174 0.0000639 -0.0001485 0.0000478 -0.0002115 0.0000289 -0.0000432 0.0007571 -0.0011289 0.0000778 -0.0002993 -0.0001119 0.0001020 0.0000839 -0.0002686 0.0000448 -0.0001932 0.0001058 -0.0001479 0.0000751 -0.0001619 -0.0000528 0.0000906 0.0002280 -0.0003080 -0.0000051 -0.0000640 0.0003212 -0.0004829 0.0000097 -0.0001793 0.0000715 0.0000040 0.0001075 -0.0000428 0.0000465 0.0000559 0.0000891 0.0000302 0.0000707 -0.0000006 0.0000464 -0.0000341 0.0001341 -0.0002505 -0.0000017 0.0000467 -0.0000073 0.0000688 -0.0000173 0.0000349 -0.0001121 0.0001094 0.0000202 0.0000768 0.0000560 -0.0000507 0.0002054 0.0000953 0.0000654 -0.0000835 0.0001396 -0.0000826 0.0000785 -0.0000771 -0.0000024 0.0001492 -0.0000552 0.0000474 0.0001019 -0.0001132 0.0006511 -0.0004005 0.0000426 0.0002409 0.0000476 0.0002710 0.0000194 0.0000567 -0.0002372 -0.0003424 -0.0000360 0.0001762 0.0000339 0.0002389 0.0000841 0.0000349 0.0000341 0.0001223 0.0000551 0.0002032
0.0000898 0.0001709 0.0000246 0.0000430 0.0000629 0.0000136 0.0000211 0.0002094 0.0000356 -0.0000174 0.0000495 0.0002898 0.0000696 0.0000123 0.0000543 0.0002047 0.0000634 0.0002330 0.0000387 0.0000349 0.0000195 0.0000694 -0.0000109 -0.0000092 0.0000162 0.0000233 -0.0000173 0.0003236 0.0000787 0.0002789 0.0000543 -0.0000626 0.0001063 0.0000826 0.0000868 0.0001279 0.0000827 0.0003456 0.0000106 0.0001558 0.0000211 0.0001471 0.0000523 0.0000137 0.0000781 0.0001952 0.0000816 0.0002171 0.0000901 0.0000106 0.0001074 0.0003214 0.0006042 0.0010680 0.0000945 0.0003131 0.0005212 0.0005590 0.0000605 0.0002121 0.0000949 0.0000900 -0.0001456 0.0002897 0.0000167 0.0001546 0.0000414 0.0003210 -0.0001110 0.0002228 0.0005224 0.0012620 0.0003903 0.0003241 0.0003929 0.0006796 0.0000369 0.0000421 0.0000961 0.0001140 -0.0001677 0.0003117 -0.0000762 0.0003429 0.0001308 -0.0000118 0.0000742 0.0000708 0.0001674 0.0000665 0.0000062 0.0001614 0.0001028 0.0000299 -0.0001375 0.0003482 -0.0000214 0.0001397 -0.0000364 0.0001988 -0.0000030 0.0001190 0.0000373 0.0003919 0.0000371 0.0001925 0.0001107 -0.0000701 0.0000351 0.0000664 0.0001850 -0.0001549 0.0001062 -0.0000541 0.0001752 -0.0001138 0.0000845 -0.0000283 0.0000686 0.0000394 -0.0000154 0.0001287 -0.0000932 0.0003366 -0.0005747 0.0009063 0.0000632 0.0000093 0.0000652 -0.0000381 0.0000015 0.0001191 0.0008512 -0.0008537 0.0000496 -0.0000605 -0.0003602 0.0004115 0.0000041 -0.0000321 0.0000308 -0.0000599 0.0000190 0.0000120 -0.0000050 0.0000084 -0.0000149 0.0001389 0.0000346 0.0000013 -0.0000058 0.0000638 -0.0003507 0.0002420 0.0000276 0.0001231 0.0000477 0.0000874 0.0001079 -0.0000463 0.0000308 0.0001362 0.0002136 -0.0000193 0.0000538 -0.0000059 0.0000219 0.0000038 0.0002732 -0.0003422 -0.0000059 0.0000779 0.0000154 0.0000555 -0.0000153 0.0000326 -0.0001746 0.0001842 -0.0000206 0.0000990 0.0000316 -0.0000888 0.0001474 0.0001927 -0.0000619 0.0000135 0.0002140 -0.0001688 0.0000764 0.0000549 -0.0001780 0.0002690 -0.0004814 0.0003857 -0.0000180 0.0001059 0.0002577 -0.0000567 0.0000513 0.0002192 0.0000002 0.0003281 0.0000291 0.0000803 -0.0006898 0.0007937 -0.0000505 0.0002234 0.0000646 0.0002746 -0.0001169 0.0001054 -0.0000132 0.0000804 -0.0001443 0.0002756
0.0000834 0.0001506 0.0000473 -0.0000866 0.0000526 -0.0000976 0.0000426 0.0002270 0.0000392 0.0000342 0.0000512 0.0002741 0.0000906 -0.0001379 0.0000653 0.0001179 0.0000612 0.0001546 0.0000344 -0.0000227 -0.0000143 0.0000263 -0.0000228 -0.0001176 0.0000223 0.0000000 0.0000195 0.0004502 0.0000721 0.0002032 0.0000618 0.0001147 0.0000869 0.0000429 0.0001028 -0.0000027 0.0000630 0.0002376 0.0000547 0.0000312 0.0000338 -0.0000047 0.0000650 -0.0000172 0.0000510 0.0001162 0.0000803 0.0001101 0.0001152 -0.0000381 0.0001208 0.0002426 0.0005967 0.0010404 0.0001025 0.0001824 0.0005261 0.0004356 0.0000518 0.0000377 0.0000835 -0.0000110 -0.0000355 0.0001162 0.0000240 0.0001297 0.0000458 0.0002317 -0.0001328 0.0002255 0.0005374 0.0013853 0.0003726 0.0002681 0.0003432 0.0006033 0.0000033 0.0000331 0.0000930 0.0000494 -0.0000951 0.0002070 0.0002246 0.0000331 0.0001519 -0.0000393 0.0000660 0.0000927 0.0001049 0.0000914 -0.0000163 0.0001370 0.0001269 0.0001278 -0.0000320 0.0002556 0.0000148 0.0001127 0.0000053 0.0002484 -0.0000075 0.0001322 0.0000466 0.0004348 0.0000352 0.0001944 0.0000982 0.0000310 0.0000438 0.0001012 0.0001260 -0.0001216 0.0001112 -0.0000159 0.0000173 0.0000863 0.0000771 0.0000623 -0.0000744 0.0002661 -0.0000711 0.0003001 -0.0000860 0.0003985 -0.0006618 0.0010759 0.0000591 0.0001079 0.0000471 0.0000906 -0.0000184 0.0001715 -0.0002469 0.0003397 0.0000597 0.0000737 -0.0001150 0.0003938 0.0000325 0.0000979 0.0000455 0.0000201 0.0000168 0.0000893 -0.0000349 0.0001077 -0.0000741 0.0002725 0.0001133 0.0001061 0.0000021 0.0002091 -0.0009634 0.0009927 -0.0001450 0.0003994 0.0000892 0.0000962 0.0000901 -0.0000702 0.0000363 0.0001965 0.0002473 0.0000139 0.0000403 0.0001234 0.0000193 0.0001375 0.0001347 -0.0000811 0.0000327 0.0001949 0.0000783 0.0000992 -0.0000559 0.0001120 -0.0000799 0.0002716 -0.0000270 0.0001898 0.0000082 0.0000898 0.0000523 0.0003968 -0.0000703 0.0002096 0.0002449 -0.0002618 0.0002858 0.0000042 -0.0001814 0.0004248 -0.0006674 0.0006554 -0.0000846 0.0003405 -0.0000363 0.0002707 0.0000684 0.0003103 0.0000507 0.0004041 0.0000286 0.0001837 -0.0006092 0.0008002 -0.0000002 0.0003192 0.0000929 0.0002532 -0.0001140 0.0003002 0.0000141 0.0001683 -0.0002312 0.0003052
0.0000784 0.0002794 0.0000077 0.0000860 0.0000460 0.0000809 0.0000399 0.0003815 0.0000290 0.0001910 0.0000493 0.0004344 0.0000522 0.0000101 0.0000631 0.0002071 0.0000551 0.0002164 0.0000208 0.0000522 0.0000354 0.0000584 -0.0000100 -0.0001218 0.0000170 -0.0000100 0.0000411 0.0005928 0.0000686 0.0002552 0.0000735 0.0003769 0.0000760 0.0000563 0.0001067 -0.0000747 0.0000392 0.0002136 0.0001364 0.0000269 0.0000494 -0.0000720 0.0000848 -0.0000180 -0.0000032 0.0001009 0.0000749 0.0000852 0.0001483 -0.0000420 0.0000860 0.0002536 0.0005857 0.0010669 0.0001011 0.0001149 0.0005384 0.0003696 0.0000423 -0.0001175 0.0000675 -0.0000980 0.0000666 -0.0000643 0.0000027 0.0001253 0.0000259 0.0001596 -0.0001158 0.0002169 0.0004889 0.0009916 0.0003780 0.0001630 0.0003445 0.0005529 0.0000842 -0.0001870 0.0000735 -0.0001481 0.0000042 -0.0000277 0.0002227 -0.0000509 0.0001391 -0.0003147 0.0000850 -0.0000979 0.0001033 -0.0000943 -0.0000159 -0.0000403 -0.0002053 0.0003729 0.0001380 0.0000579 0.0001955 -0.0001384 0.0003106 -0.0000686 0.0000208 -0.0001248 0.0000741 0.0003146 0.0000509 0.0000128 0.0001027 0.0000202 0.0000577 0.0000300 0.0001003 -0.0001721 0.0001208 -0.0001055 0.0000414 -0.0000944 0.0001022 -0.0000584 -0.0000883 0.0000464 -0.0000467 0.0001443 0.0000361 0.0001400 -0.0004022 0.0007389 0.0000654 -0.0000494 0.0000413 -0.0001072 -0.0000114 0.0000235 0.0000408 0.0002021 0.0000938 -0.0001964 -0.0003027 0.0005005 0.0000613 -0.0001406 0.0000584 -0.0001635 0.0000507 -0.0000834 0.0000447 -0.0001087 -0.0001110 0.0001607 0.0001068 0.0000392 0.0000521 0.0000237 0.0000972 0.0001010 -0.0001005 0.0001816 0.0000537 0.0000595 -0.0000157 -0.0000369 0.0000220 0.0001298 0.0001409 0.0000942 0.0000208 0.0001186 0.0000514 0.0000246 0.0000433 0.0000318 0.0000987 0.0000420 0.0000790 0.0000883 0.0000252 0.0000086 -0.0000713 0.0002378 0.0000149 0.0001660 0.0000055 0.0001354 0.0000001 0.0003450 -0.0002110 0.0002562 0.0001776 -0.0002396 0.0000318 0.0001019 -0.0001695 0.0004723 0.0000363 0.0000219 0.0001545 0.0001792 0.0004240 -0.0001074 0.0000973 0.0002407 0.0000689 0.0003387 0.0000108 0.0002274 -0.0003389 0.0006819 -0.0000163 0.0003568 -0.0000804 0.0003774 0.0000323 0.0001991 0.0000227 0.0001869 0.0000383 0.0000907
0.0000846 0.0003423 0.0000032 0.0001805 0.0000433 0.0002031 0.0000366 0.0004324 0.0000141 0.0003191 0.0000309 0.0005680 0.0000254 0.0001257 0.0000330 0.0003074 0.0000470 0.0002666 0.0000052 0.0001456 0.0000441 0.0001292 0.0000058 0.0000003 0.0000845 -0.0000138 0.0000306 0.0006458 0.0000609 0.0003603 0.0000504 0.0005362 0.0000681 0.0001486 0.0000807 0.0000557 0.0000089 0.0003037 0.0001375 0.0001834 0.0000425 0.0000808 0.0000954 0.0000596 0.0001003 0.0001009 0.0000595 0.0001585 0.0001500 0.0000419 0.0000960 0.0003117 0.0005638 0.0011952 0.0001138 0.0001857 0.0005174 0.0005198 0.0000657 -0.0000033 0.0001045 -0.0000107 0.0000609 0.0000883 -0.0000174 0.0002518 0.0000328 0.0002747 -0.0001107 0.0003119 0.0004361 0.0012553 0.0003958 0.0004104 0.0003292 0.0008043 0.0000301 -0.0000378 0.0000879 -0.0000261 -0.0000078 0.0000962 -0.0000619 0.0002579 0.0000698 -0.0000059 0.0000921 0.0000280 0.0001088 0.0000517 -0.0000117 0.0000710 -0.0001599 0.0004391 0.0000002 0.0002812 0.0002690 -0.0000803 0.0003053 -0.0000079 0.0000406 -0.0001232 0.0000962 0.0003173 0.0000473 0.0000337 0.0001142 0.0000704 0.0000878 0.0000290 0.0001672 -0.0001897 0.0001277 -0.0001283 0.0001058 -0.0001485 0.0000913 -0.0000797 -0.0000526 -0.0000870 -0.0000239 0.0000737 0.0001328 0.0000707 -0.0001637 0.0006201 0.0000655 -0.0001222 0.0000581 -0.0002308 0.0000085 -0.0000828 -0.0007401 0.0006903 0.0000689 -0.0002925 -0.0000774 0.0002325 0.0001746 -0.0003866 0.0000490 -0.0002350 0.0000660 -0.0002152 0.0000278 -0.0001984 -0.0000184 -0.0001051 0.0002253 0.0000376 0.0000484 -0.0000894 0.0008178 -0.0005014 0.0003361 -0.0000717 0.0000303 0.0000076 -0.0001338 0.0000368 -0.0000127 0.0000675 0.0002500 -0.0000539 0.0000233 -0.0000566 0.0001009 -0.0001990 -0.0000569 0.0001586 0.0001037 -0.0001411 0.0000797 -0.0000255 0.0001060 -0.0000986 0.0000034 -0.0000866 0.0000000 0.0000362 0.0000548 -0.0001124 -0.0001109 0.0001751 -0.0002557 0.0001610 0.0002719 -0.0003332 0.0005367 -0.0004134 -0.0000224 0.0001995 -0.0003805 0.0002433 0.0001483 0.0000268 0.0004945 -0.0004480 0.0000670 0.0000056 -0.0000094 0.0002153 -0.0000251 0.0001052 -0.0010351 0.0009017 0.0000156 0.0002000 -0.0001054 0.0004342 0.0000285 -0.0000336 -0.0000100 0.0001062 0.0001293 -0.0001150
0.0000720 0.0002447 0.0000128 -0.0000092 0.0000602 -0.0000697 0.0000593 0.0003488 0.0000230 0.0002887 0.0000419 0.0004286 0.0000378 -0.0000566 0.0000149 0.0002327 0.0000555 0.0001135 0.0000426 0.0000376 0.0000704 -0.0000081 0.0000145 -0.0000476 0.0000596 -0.0000154 0.0000174 0.0005462 0.0000388 0.0003050 0.0000267 0.0005337 0.0000712 0.0001283 0.0000660 0.0000905 -0.0000003 0.0002957 0.0000205 0.0003009 0.0000344 0.0001287 0.0001044 0.0001075 0.0000703 0.0001386 0.0000636 0.0001858 0.0001434 0.0001033 0.0001150 0.0003247 0.0005409 0.0012640 0.0001137 0.0001912 0.0005230 0.0005925 0.0001219 0.0000030 0.0001362 -0.0000028 0.0000130 0.0001832 0.0000057 0.0002633 0.0000530 0.0002866 -0.0000701 0.0002352 0.0004078 0.0014984 0.0004118 0.0005769 0.0003538 0.0009442 0.0000425 0.0000258 0.0001092 0.0000952 -0.0001258 0.0002952 -0.0001384 0.0003211 0.0001204 0.0001837 0.0000842 0.0001429 0.0000987 0.0001646 0.0000091 0.0001295 0.0001902 0.0001858 0.0001654 0.0002190 0.0000949 0.0000525 0.0000377 0.0003428 0.0000665 -0.0000311 0.0001019 0.0003479 0.0000528 0.0000926 0.0001310 0.0001450 0.0001037 0.0001218 0.0001173 -0.0000551 0.0001234 -0.0000559 0.0000481 -0.0000478 0.0000597 0.0000193 -0.0000888 0.0001472 -0.0000678 0.0002352 0.0002156 0.0000405 -0.0003940 0.0007938 0.0000735 -0.0000205 0.0000832 -0.0001099 0.0000306 -0.0000693 -0.0005536 0.0004279 0.0000167 -0.0000430 0.0002825 0.0000904 0.0001193 -0.0001555 0.0000332 -0.0000284 0.0000670 -0.0000857 0.0000044 -0.0000764 0.0000892 -0.0000690 0.0001455 0.0002388 -0.0000468 0.0001681 0.0002663 0.0000284 0.0002059 0.0001942 0.0000515 0.0000482 -0.0000383 0.0000518 0.0000417 0.0001197 0.0003962 -0.0000956 0.0000459 0.0000737 0.0000725 0.0000426 -0.0000170 0.0000989 0.0001066 0.0000131 0.0000478 0.0001297 -0.0000269 0.0000724 0.0000603 0.0000127 -0.0000392 0.0001793 0.0000478 0.0000444 0.0000589 -0.0000001 0.0001244 0.0000927 0.0002872 -0.0001434 0.0002560 0.0000214 -0.0000140 0.0002104 -0.0000961 0.0004180 0.0000513 0.0002229 0.0004021 -0.0002073 0.0000475 0.0000245 0.0000352 0.0001730 0.0000408 0.0000336 -0.0013947 0.0010539 0.0000495 0.0001375 0.0000461 0.0003938 -0.0000508 0.0001007 -0.0000103 0.0000911 -0.0000483 0.0000076
0.0000650 0.0002206 0.0000151 -0.0000842 0.0000752 -0.0002171 0.0000718 0.0003384 0.0000193 0.0002899 0.0000579 0.0003483 0.0000667 -0.0001574 -0.0000002 0.0002019 0.0000425 0.0000841 0.0000534 -0.0000496 0.0000494 -0.0000986 0.0000398 -0.0002171 -0.0000128 0.0000017 0.0000318 0.0004244 0.0000295 0.0001560 0.0000141 0.0005094 0.0000613 0.0000881 0.0000842 -0.0000124 -0.0000080 0.0001665 -0.0000927 0.0003208 0.0000391 -0.0000156 0.0001312 0.0000668 0.0000495 0.0000752 0.0000606 0.0001284 0.0001704 0.0000968 0.0001168 0.0002837 0.0005231 0.0012533 0.0001175 0.0000888 0.0005506 0.0004794 0.0001538 -0.0002479 0.0001810 -0.0001658 -0.0000894 0.0001290 0.0000352 0.0001271 0.0000564 0.0000955 -0.0000846 0.0001150 0.0003818 0.0012232 0.0004202 0.0004545 0.0003778 0.0008124 0.0001349 -0.0002386 0.0001366 -0.0001423 -0.0001680 0.0001961 0.0000382 0.0000456 0.0001247 -0.0001191 0.0001054 -0.0001284 0.0001714 -0.0001239 0.0000380 -0.0001313 0.0001489 0.0001917 0.0001414 0.0000236 0.0001728 -0.0001834 -0.0001159 0.0002130 0.0001262 -0.0001906 0.0000946 0.0002548 0.0000813 -0.0000817 0.0001466 0.0001931 0.0001107 0.0001653 0.0000772 0.0000047 0.0001266 -0.0000367 0.0000772 -0.0001217 0.0000806 0.0000155 -0.0000359 0.0001529 -0.0000189 0.0002050 -0.0000060 0.0000624 -0.0004196 0.0008628 0.0001026 0.0000036 0.0001113 -0.0001024 0.0000482 -0.0000806 -0.0000945 -0.0000436 0.0000942 -0.0000573 0.0000291 0.0002580 0.0000465 -0.0000150 0.0000093 0.0000845 0.0000457 -0.0000057 0.0000661 -0.0000861 0.0001277 -0.0000065 -0.0001048 0.0004169 -0.0001546 0.0003036 -0.0000817 0.0001464 -0.0001553 0.0003465 0.0001015 0.0000080 0.0000359 -0.0000099 0.0000425 0.0001188 0.0003335 -0.0000233 0.0000832 0.0001201 0.0000117 0.0002084 0.0001380 -0.0001270 0.0001059 0.0001045 -0.0000034 0.0002357 -0.0000252 0.0001295 0.0000513 0.0001494 -0.0000300 0.0002357 0.0000073 0.0001883 0.0002481 -0.0001069 0.0000310 0.0001256 0.0000236 0.0001309 -0.0005605 0.0007451 0.0000110 0.0002045 0.0002715 0.0003680 0.0001572 0.0002795 0.0006505 -0.0001819 0.0001348 0.0000235 0.0001185 0.0001198 0.0001046 0.0000113 -0.0010296 0.0013021 -0.0000268 0.0002041 0.0001351 0.0002197 0.0001149 0.0000523 0.0000566 0.0000655 0.0000502 -0.0000087
0.0000741 0.0002820 0.0000236 0.0000286 0.0000638 -0.0000420 0.0000737 0.0003759 -0.0000189 0.0004049 0.0000228 0.0005122 0.0000248 0.0000736 -0.0000330 0.0003608 0.0000215 0.0002670 0.0000428 0.0000630 0.0000332 0.0000386 0.0000428 -0.0000588 -0.0000352 0.0000567 0.0000322 0.0005199 0.0000334 0.0002948 0.0000068 0.0006090 0.0000435 0.0002379 0.0000586 0.0001775 -0.0000415 0.0002552 0.0000234 0.0003271 0.0000284 0.0001830 0.0001581 0.0001314 -0.0000628 0.0001710 0.0000349 0.0002267 0.0001793 0.0002030 0.0001217 0.0003801 0.0005013 0.0013795 0.0001354 0.0001729 0.0005353 0.0005963 0.0001584 -0.0001279 0.0002167 -0.0000476 -0.0001039 0.0001896 -0.0000308 0.0002001 0.0000583 0.0001680 -0.0001426 0.0002143 0.0003422 0.0011982 0.0004201 0.0005443 0.0003603 0.0008486 0.0001423 -0.0002825 0.0001408 -0.0001853 -0.0002121 0.0001975 -0.0000589 0.0001561 0.0000876 -0.0001335 0.0001324 -0.0002141 0.0002193 -0.0002243 0.0000622 -0.0002190 0.0002329 -0.0000262 0.0001152 0.0000307 0.0002415 -0.0001806 0.0000488 0.0000122 0.0001183 -0.0002808 0.0001101 0.0002657 0.0001066 -0.0002006 0.0001697 0.0002248 0.0001476 0.0001535 0.0001312 -0.0000250 0.0001287 -0.0000644 0.0001422 -0.0001404 0.0001421 -0.0000715 0.0001149 -0.0001667 -0.0000385 0.0000934 -0.0002204 0.0001803 -0.0007696 0.0009904 0.0001178 -0.0000888 0.0001285 -0.0002952 0.0000842 -0.0001509 -0.0007396 0.0002327 0.0001462 -0.0002776 -0.0002895 0.0004363 0.0000266 -0.0001615 -0.0000003 0.0000013 0.0000891 -0.0001578 0.0000090 -0.0000919 -0.0000142 -0.0000292 -0.0003432 0.0005642 -0.0001559 0.0001366 -0.0001566 0.0002540 -0.0001150 0.0001166 0.0000784 -0.0000250 -0.0000314 -0.0000431 -0.0000252 0.0000643 0.0001382 -0.0000313 0.0001120 -0.0001144 0.0000165 -0.0000268 0.0001169 -0.0000518 0.0001259 -0.0000876 0.0000538 0.0000400 0.0001053 -0.0000259 0.0000464 -0.0000307 0.0000133 0.0000629 0.0000526 -0.0000465 0.0001930 -0.0001591 -0.0002364 0.0000883 -0.0001502 0.0000662 -0.0001227 0.0001974 -0.0001042 0.0002310 0.0001742 0.0003297 -0.0000730 0.0003134 0.0003464 -0.0000833 0.0002507 -0.0001961 0.0001086 0.0000139 0.0000378 0.0000054 -0.0005586 0.0009355 -0.0000300 0.0001566 0.0000553 0.0001204 0.0005455 -0.0002754 0.0000348 0.0000565 0.0002359 -0.0002168
0.0000710 0.0002927 0.0000400 0.0000478 0.0000799 0.0000105 0.0000832 0.0003644 -0.0000238 0.0004304 0.0000177 0.0005694 0.0000025 0.0002112 -0.0000347 0.0004363 0.0000383 0.0003199 0.0000459 0.0000690 0.0000484 0.0000715 0.0000238 0.0000239 -0.0000235 0.0000441 0.0000270 0.0005574 0.0000407 0.0003654 -0.0000039 0.0005992 0.0000324 0.0002928 0.0000663 0.0002633 -0.0000529 0.0003495 0.0000766 0.0003479 0.0000241 0.0002861 0.0001806 0.0001548 -0.0001430 0.0002605 0.0000292 0.0003450 0.0001739 0.0002976 0.0000839 0.0004766 0.0004739 0.0014813 0.0001472 0.0002309 0.0005069 0.0007485 0.0001759 -0.0000189 0.0002243 0.0000542 0.0000065 0.0001208 -0.0000336 0.0002331 0.0000590 0.0002756 -0.0000941 0.0002047 0.0003082 0.0014997 0.0004196 0.0007488 0.0003436 0.0009955 0.0001209 -0.0001337 0.0001601 -0.0000386 -0.0001164 0.0001585 0.0000053 0.0001250 0.0000965 0.0001777 0.0001029 0.0000030 0.0001881 -0.0000404 0.0000789 -0.0000939 -0.0001338 0.0002782 0.0000622 0.0001890 0.0000709 0.0000584 0.0001803 0.0000954 0.0001101 -0.0000875 0.0000650 0.0004298 0.0001286 -0.0000820 0.0001481 0.0003560 0.0001478 0.0003103 0.0001614 0.0000468 0.0001326 0.0000514 0.0001595 -0.0000338 0.0001506 0.0000455 -0.0000522 0.0001379 -0.0000582 0.0002177 0.0000672 0.0001265 -0.0006213 0.0006870 0.0001229 0.0000655 0.0001475 -0.0001280 0.0001102 -0.0000428 0.0003521 -0.0004233 0.0000733 0.0000291 -0.0002808 0.0005395 0.0000880 0.0000368 -0.0000275 0.0002123 0.0001204 -0.0000442 -0.0000985 0.0001922 0.0000933 0.0000317 -0.0000686 0.0003515 -0.0000635 0.0002265 0.0001657 -0.0000937 0.0001372 0.0002249 0.0000504 0.0000870 -0.0000809 0.0001125 0.0000198 0.0001519 -0.0000208 0.0001571 0.0000981 -0.0000099 0.0000272 0.0001135 0.0002067 -0.0000785 0.0000725 0.0000347 0.0000793 0.0000947 0.0001507 -0.0000422 0.0000819 -0.0000061 0.0000229 0.0000863 0.0000451 -0.0000089 0.0001216 -0.0001361 0.0000126 -0.0000211 0.0000383 -0.0000492 0.0002650 -0.0000709 -0.0002481 0.0002699 0.0009540 -0.0006389 -0.0002211 0.0002249 -0.0001388 0.0001095 0.0002892 -0.0002740 0.0001354 0.0000143 0.0000224 0.0000150 -0.0009639 0.0012360 -0.0000115 0.0001193 0.0001098 0.0000178 0.0002914 -0.0001287 0.0000001 0.0000321 0.0002052 -0.0001868
0.0000634 0.0002342 0.0000389 -0.0000531 0.0000822 -0.0001188 0.0000803 0.0003240 0.0000048 0.0003194 0.0000542 0.0004173 0.0000158 0.0001261 -0.0000116 0.0004034 0.0000496 0.0002884 0.0000389 -0.0000497 -0.0000304 0.0000446 0.0000118 -0.0001339 -0.0000406 0.0000009 0.0000434 0.0004747 0.0000174 0.0002685 -0.0000145 0.0004453 0.0000467 0.0002018 0.0001058 0.0001405 -0.0000410 0.0003008 0.0001292 0.0002365 0.0000265 0.0001102 0.0001485 0.0000989 0.0000591 0.0000764 0.0000381 0.0003083 0.0002053 0.0002528 0.0000742 0.0004163 0.0004606 0.0014621 0.0001612 0.0001531 0.0005015 0.0007176 0.0001996 -0.0002091 0.0002381 -0.0000809 0.0000632 -0.0000251 -0.0000040 0.0001151 0.0000587 0.0001473 -0.0001084 0.0001081 0.0002904 0.0015692 0.0004089 0.0007601 0.0003285 0.0009983 0.0000806 -0.0001176 0.0001780 -0.0000695 -0.0000323 0.0000823 0.0003478 -0.0003090 0.0001058 0.0001865 0.0000956 0.0000096 0.0001622 -0.0000169 0.0001177 -0.0001419 -0.0000013 0.0002953 0.0000879 0.0000909 -0.0000019 0.0000970 0.0001531 0.0000127 0.0001269 -0.0000354 0.0000229 0.0005245 0.0001288 -0.0000789 0.0001481 0.0004065 0.0001405 0.0004230 0.0001635 0.0000936 0.0001486 0.0001173 0.0001963 -0.0000397 0.0001440 0.0001384 -0.0001088 0.0003135 0.0000145 0.0002003 0.0001031 0.0000923 -0.0002854 0.0005043 0.0001304 0.0001770 0.0001662 -0.0000086 0.0001159 -0.0000017 0.0010843 -0.0007275 0.0000777 0.0001679 0.0000041 0.0003819 0.0001444 0.0001255 -0.0000428 0.0003174 0.0000971 0.0000595 -0.0001161 0.0003025 0.0001810 0.0000476 0.0000127 0.0003738 -0.0000462 0.0003325 0.0004861 -0.0004656 0.0000269 0.0003146 0.0000419 0.0001424 -0.0000108 0.0001510 0.0000801 0.0001800 -0.0001051 0.0002958 0.0001222 0.0000875 0.0000061 0.0002716 0.0001914 -0.0001106 0.0000805 0.0001173 0.0000309 0.0002211 0.0000925 0.0001065 0.0000985 0.0001382 0.0000687 0.0001315 0.0000462 0.0001274 0.0001787 0.0000092 0.0001233 0.0000847 0.0001461 -0.0000474 0.0001665 0.0001923 0.0000866 0.0001260 -0.0000254 -0.0000792 0.0000341 0.0001005 -0.0002980 0.0004041 0.0002583 -0.0001160 0.0001253 0.0002550 0.0000669 0.0000652 0.0000405 0.0007851 0.0000048 0.0001528 0.0003017 0.0000214 0.0001664 -0.0000196 0.0000368 0.0000806 0.0000307 0.0001776
0.0000618 0.0003238 -0.0000067 0.0001176 0.0000800 0.0000950 0.0000770 0.0003429 -0.0000042 0.0003419 0.0000022 0.0005984 0.0000040 0.0003379 -0.0000241 0.0006070 -0.0000023 0.0005371 0.0000470 0.0000527 -0.0000201 0.0001853 -0.0000006 0.0000530 -0.0001437 0.0001785 0.0000274 0.0006636 0.0000254 0.0004634 -0.0000157 0.0004855 0.0000483 0.0003227 0.0000676 0.0003587 -0.0000395 0.0004840 0.0001276 0.0004010 0.0000217 0.0002757 0.0001408 0.0001774 0.0001185 0.0001151 0.0000405 0.0004102 0.0002313 0.0002985 0.0000982 0.0004325 0.0004418 0.0015351 0.0001609 0.0002303 0.0005023 0.0007335 0.0002284 -0.0002379 0.0002102 -0.0000093 0.0000664 -0.0000213 0.0000003 0.0000890 0.0000759 0.0000901 -0.0001538 0.0001309 0.0002597 0.0014154 0.0004005 0.0007448 0.0003230 0.0009552 0.0001007 -0.0002304 0.0001344 -0.0001150 -0.0000272 0.0000798 0.0002549 -0.0000929 0.0000495 0.0000542 0.0001122 -0.0001049 0.0001310 -0.0001319 0.0001472 -0.0002656 0.0002912 -0.0000359 0.0002038 -0.0000223 -0.0000685 0.0001008 -0.0001915 0.0002122 0.0001006 -0.0001126 0.0000136 0.0005522 0.0001356 -0.0001934 0.0001687 0.0003603 0.0001673 0.0003987 0.0001571 0.0000793 0.0001652 0.0000834 0.0001153 -0.0001102 0.0001655 0.0000910 0.0000050 0.0000776 -0.0000305 0.0001287 -0.0000085 0.0000869 0.0000318 0.0002404 0.0001347 0.0000862 0.0001811 -0.0001688 0.0001145 -0.0000488 0.0005870 -0.0004286 0.0000884 -0.0000627 -0.0000384 0.0003207 0.0000802 -0.0000736 -0.0000184 0.0001472 0.0000949 -0.0000994 -0.0000548 0.0000832 0.0000586 -0.0000194 0.0000049 0.0004737 -0.0000579 0.0002116 0.0005684 -0.0005318 -0.0004708 0.0002465 0.0000005 0.0001220 0.0000440 0.0000694 0.0001296 0.0000492 -0.0001656 0.0002008 0.0001325 -0.0000747 0.0000460 0.0000327 0.0001995 -0.0001025 0.0001119 -0.0000674 0.0000848 0.0000368 -0.0000310 0.0001639 -0.0000263 0.0001377 0.0001000 0.0000530 0.0000399 0.0000440 0.0003181 -0.0001011 -0.0001425 0.0002248 -0.0000408 0.0000690 0.0003015 0.0001247 0.0003452 0.0000218 -0.0005617 0.0004216 0.0001166 0.0001803 -0.0000288 0.0002609 0.0002931 -0.0001446 0.0001001 0.0003319 0.0000425 0.0000802 0.0015298 -0.0003965 0.0000492 0.0001244 0.0002633 0.0000726 0.0001805 0.0000210 -0.0000099 0.0001647 -0.0000357 0.0002950
0.0000514 0.0003651 0.0000173 0.0001649 0.0000712 0.0002467 0.0000875 0.0003760 0.0000051 0.0002566 -0.0000240 0.0007203 -0.0000119 0.0004482 -0.0000040 0.0007166 -0.0000268 0.0006490 0.0000483 0.0001052 0.0000064 0.0002475 0.0000210 0.0001769 -0.0000414 0.0001368 -0.0000538 0.0007045 0.0000466 0.0005181 -0.0000491 0.0002374 0.0000259 0.0004576 0.0000675 0.0006042 0.0000059 0.0007553 0.0000384 0.0005336 0.0000063 0.0004102 0.0001544 0.0001765 0.0000567 0.0003156 0.0000633 0.0005613 0.0002239 0.0003634 0.0000862 0.0005081 0.0004074 0.0016818 0.0001535 0.0003657 0.0004882 0.0008773 0.0001941 -0.0000585 0.0001818 0.0001724 0.0000477 0.0001159 0.0000292 0.0001402 0.0000685 0.0002084 -0.0000662 0.0001754 0.0002242 0.0017406 0.0003887 0.0009388 0.0003108 0.0011429 0.0001707 -0.0001111 0.0001588 0.0000584 -0.0001048 0.0002960 0.0001689 0.0001291 -0.0000238 0.0003864 0.0001127 0.0000977 0.0001379 0.0000515 0.0001326 -0.0001012 -0.0000234 0.0003213 -0.0000961 0.0002933 -0.0000471 0.0001783 -0.0002732 0.0003924 0.0000630 0.0001344 0.0000471 0.0006983 0.0001545 -0.0000472 0.0001205 0.0004312 0.0001714 0.0005057 0.0001476 0.0001931 0.0001794 0.0001823 -0.0000696 0.0001328 0.0001753 0.0002079 -0.0000845 0.0002810 -0.0000335 0.0002644 -0.0000695 0.0003776 -0.0001289 0.0005283 0.0001388 0.0002263 0.0001872 0.0000213 0.0000951 0.0001117 -0.0001300 0.0003226 0.0000622 0.0001578 0.0001056 0.0003770 0.0000493 0.0001668 -0.0000153 0.0003015 0.0001092 0.0000101 -0.0000388 0.0001627 0.0000451 0.0001623 -0.0002966 0.0007564 -0.0001355 0.0004360 0.0010311 -0.0005878 -0.0005775 0.0005101 -0.0000029 0.0001972 0.0000741 0.0001513 0.0000743 0.0002341 -0.0001493 0.0003030 0.0000855 0.0000393 0.0000582 0.0001559 0.0002771 -0.0001591 0.0001248 -0.0000218 0.0001675 0.0000284 0.0000059 0.0001062 -0.0001055 0.0001820 0.0000817 0.0000493 0.0000158 0.0000483 0.0002265 -0.0001949 -0.0001632 0.0002029 0.0001326 -0.0000208 0.0001801 0.0000832 0.0003604 -0.0000579 -0.0001719 0.0005194 0.0000514 0.0002003 0.0003418 -0.0001461 0.0002633 -0.0001722 0.0000971 0.0003538 0.0000196 0.0000524 0.0007489 -0.0001058 -0.0000120 0.0001394 0.0000347 0.0001885 0.0000039 0.0002294 -0.0000413 0.0001786 -0.0000382 0.0001847
0.0000323 0.0003262 0.0000045 0.0000724 0.0000197 0.0001992 0.0000740 0.0003723 0.0000193 0.0001581 -0.0000124 0.0005994 0.0000178 0.0002768 0.0000035 0.0005809 -0.0000008 0.0005759 0.0000386 -0.0000008 -0.0000144 0.0001833 0.0000131 0.0000103 0.0000130 -0.0000035 -0.0000358 0.0007580 0.0000337 0.0004122 -0.0000491 0.0001715 0.0000238 0.0003950 0.0000887 0.0005108 0.0000375 0.0006892 0.0000753 0.0002764 -0.0000038 0.0002766 0.0001489 0.0000762 0.0000661 0.0002264 0.0000791 0.0005400 0.0002307 0.0003081 0.0000808 0.0004745 0.0003865 0.0017072 0.0001222 0.0003882 0.0004761 0.0009026 0.0001846 -0.0000746 0.0001985 0.0001449 0.0000025 0.0001565 0.0000445 0.0001335 0.0000415 0.0002313 -0.0000793 0.0001581 0.0001906 0.0018739 0.0003865 0.0009887 0.0003015 0.0011978 0.0001528 -0.0000263 0.0001652 0.0000520 -0.0001175 0.0003015 0.0000649 0.0001695 -0.0000103 0.0004253 0.0001283 0.0001200 0.0001586 0.0001510 0.0001052 -0.0000775 -0.0002450 0.0005662 -0.0002213 0.0004546 0.0000773 0.0001104 -0.0001553 0.0003826 0.0000659 0.0002295 0.0000795 0.0007253 0.0001612 0.0000114 0.0001525 0.0003927 0.0001784 0.0005430 0.0001559 0.0002256 0.0001808 0.0002498 0.0000256 0.0001520 0.0001604 0.0003032 -0.0001642 0.0004566 0.0000098 0.0003052 0.0000390 0.0004028 -0.0003552 0.0007264 0.0001367 0.0003100 0.0002024 0.0001143 0.0001103 0.0001554 -0.0004258 0.0010951 0.0000695 0.0002760 0.0000831 0.0005171 -0.0000036 0.0003861 -0.0000324 0.0004222 0.0001043 0.0000760 -0.0000121 0.0001881 -0.0000062 0.0002630 -0.0004483 0.0007646 -0.0001561 0.0005733 0.0009558 -0.0002630 -0.0005770 0.0008821 0.0000073 0.0002606 0.0001056 0.0001651 -0.0000003 0.0004040 -0.0000173 0.0003686 0.0000650 0.0001829 0.0000209 0.0003499 0.0000794 0.0002495 0.0001427 0.0001333 0.0001494 0.0001746 0.0000503 0.0001176 -0.0000242 0.0002947 0.0000276 0.0001975 0.0000387 0.0001935 0.0000285 0.0000615 -0.0002787 0.0005841 0.0001217 0.0000833 0.0000118 0.0001984 0.0001053 0.0002710 -0.0005793 0.0012501 0.0000380 0.0002022 0.0002614 0.0000217 0.0002350 -0.0000468 0.0000631 0.0005425 0.0000054 0.0001597 -0.0007444 0.0007432 -0.0000874 0.0002536 -0.0000009 0.0002852 -0.0000931 0.0005460 -0.0000091 0.0002025 -0.0000956 0.0002690
0.0000318 0.0004337 -0.0000100 0.0002194 0.0000123 0.0003721 0.0000143 0.0004405 -0.0000220 0.0003907 -0.0000688 0.0008066 0.0000310 0.0004512 -0.0000436 0.0006501 -0.0000065 0.0007352 0.0000324 0.0000842 -0.0000283 0.0003149 -0.0000508 0.0001981 0.0000163 0.0000903 0.0000454 0.0011491 0.0000418 0.0006437 -0.0000213 0.0006286 -0.0000079 0.0005027 0.0000228 0.0005769 -0.0000171 0.0007005 -0.0000014 0.0004751 -0.0000125 0.0004558 0.0001346 0.0001654 0.0000509 0.0002737 0.0000490 0.0005498 0.0002342 0.0003547 0.0000840 0.0004973 0.0003807 0.0017289 0.0001271 0.0004460 0.0004538 0.0009146 0.0002077 -0.0000580 0.0001864 0.0002167 -0.0000133 0.0001681 0.0000138 0.0001847 0.0000334 0.0002567 -0.0001612 0.0002284 0.0001462 0.0016572 0.0003781 0.0009293 0.0002818 0.0011480 0.0000837 -0.0000575 0.0001415 -0.0000246 -0.0000732 0.0001484 -0.0001475 0.0003986 0.0000038 0.0001925 0.0001076 0.0000024 0.0000940 0.0000773 0.0000920 -0.0001990 -0.0002464 0.0003623 -0.0001263 0.0004942 0.0001245 0.0000095 -0.0003736 0.0006024 0.0000761 0.0000777 0.0000403 0.0007316 0.0001437 -0.0001093 0.0002176 0.0002865 0.0002405 0.0004155 0.0001439 0.0001742 0.0001684 0.0002123 0.0000973 0.0000402 0.0001323 0.0002612 -0.0001042 0.0002960 -0.0000871 0.0002603 -0.0000160 0.0002631 -0.0003971 0.0006965 0.0001268 0.0001609 0.0001913 -0.0000686 0.0001496 0.0000368 0.0000903 0.0003284 0.0000894 0.0000161 -0.0004258 0.0006926 0.0000667 0.0001498 -0.0000069 0.0002059 0.0001236 -0.0001056 -0.0000203 0.0000348 -0.0000094 -0.0000320 0.0001214 0.0001994 -0.0000954 0.0003982 0.0006258 -0.0002747 -0.0001491 0.0005481 0.0000008 0.0002339 0.0000766 0.0000862 0.0000131 0.0003103 0.0000256 0.0002386 0.0000661 0.0000458 0.0000502 0.0001611 0.0000472 0.0004230 0.0001424 0.0000855 0.0001285 0.0000971 0.0000697 0.0000973 0.0000155 0.0001641 0.0000052 0.0001793 0.0000259 0.0001505 0.0001543 -0.0000445 -0.0000881 0.0004270 -0.0000427 0.0002048 -0.0003883 0.0006127 0.0000800 0.0002974 0.0001843 0.0001645 0.0000117 0.0003336 0.0002822 0.0000767 0.0002074 0.0000079 0.0000435 0.0004916 -0.0000551 0.0002426 -0.0000362 -0.0005932 0.0000052 0.0001698 0.0000750 0.0002456 -0.0001106 0.0005381 0.0000322 0.0001503 -0.0000145 0.0001661
0.0000306 0.0004941 -0.0000036 0.0002939 -0.0000083 0.0004499 0.0000287 0.0006266 -0.0000457 0.0008150 -0.0001087 0.0009825 -0.0000092 0.0006145 -0.0000727 0.0006932 -0.0000201 0.0007958 0.0000009 0.0001656 0.0000186 0.0003577 -0.0000649 0.0003395 0.0000661 0.0001037 0.0000498 0.0011927 0.0000355 0.0007182 -0.0000208 0.0008182 -0.0000197 0.0005687 -0.0000189 0.0006708 -0.0000509 0.0007212 -0.0000354 0.0006547 -0.0000188 0.0005657 0.0001307 0.0002276 0.0000317 0.0002832 -0.0000047 0.0004481 0.0002352 0.0003185 0.0000590 0.0005660 0.0004084 0.0017746 0.0001294 0.0004987 0.0004302 0.0010254 0.0001763 0.0001040 0.0001986 0.0003580 -0.0000360 0.0003244 -0.0000135 0.0003339 0.0000419 0.0003927 -0.0001534 0.0003700 0.0001080 0.0018862 0.0003528 0.0010809 0.0002586 0.0013145 0.0000546 0.0001039 0.0001702 0.0001264 -0.0001262 0.0003205 -0.0000736 0.0004354 -0.0000376 0.0004553 0.0000993 0.0001239 0.0001163 0.0001389 0.0001110 -0.0001181 -0.0000011 0.0003132 -0.0000666 0.0005414 0.0001130 0.0000962 -0.0002216 0.0005961 0.0000722 0.0002422 -0.0000442 0.0009575 0.0001368 -0.0000069 0.0002440 0.0002765 0.0002851 0.0004185 0.0001169 0.0002884 0.0001650 0.0003088 0.0000630 0.0002179 0.0001361 0.0003498 -0.0000466 0.0004368 -0.0001387 0.0004151 -0.0001096 0.0004289 -0.0000582 0.0006979 0.0001392 0.0002436 0.0001796 0.0000917 0.0001638 0.0001212 0.0007032 -0.0005061 0.0001130 0.0001999 -0.0005790 0.0009234 0.0000844 0.0002975 -0.0000058 0.0003248 0.0001570 -0.0000123 -0.0000515 0.0002123 0.0000570 0.0000529 0.0005232 0.0000104 -0.0000812 0.0005096 0.0003265 0.0000199 -0.0000435 0.0005063 -0.0000149 0.0003316 -0.0000249 0.0002197 0.0000206 0.0004202 0.0000590 0.0003434 0.0000751 0.0001070 0.0000244 0.0003294 0.0001052 0.0003630 0.0001257 0.0001430 0.0001721 0.0001421 0.0001101 0.0001792 0.0000656 0.0001440 0.0000217 0.0001647 0.0000060 0.0001831 0.0002798 -0.0001630 0.0000794 0.0003153 0.0000949 0.0001251 -0.0001295 0.0003664 0.0000258 0.0003256 0.0002830 -0.0005650 -0.0000512 0.0004269 0.0003573 0.0000131 0.0002144 -0.0000590 -0.0000174 0.0004929 -0.0000571 0.0002267 0.0011400 -0.0015047 0.0000350 0.0001068 0.0000331 0.0003059 -0.0002371 0.0004919 0.0000482 0.0001166 0.0001479 -0.0000342
0.0000252 0.0004498 -0.0000238 0.0002303 -0.0000075 0.0002536 0.0000792 0.0007472 -0.0000588 0.0011124 -0.0001036 0.0009094 -0.0000180 0.0004702 -0.0000880 0.0005579 -0.0000329 0.0007280 -0.0000106 0.0000943 0.0000223 0.0002691 -0.0000004 0.0001196 0.0000160 0.0001017 0.0000782 0.0010507 0.0000127 0.0005540 -0.0000110 0.0009013 -0.0000193 0.0004847 -0.0000311 0.0005381 -0.0000688 0.0005157 0.0000004 0.0005157 -0.0000126 0.0003808 0.0001088 0.0001941 -0.0000216 0.0001628 -0.0000252 0.0002528 0.0002099 0.0001879 0.0000283 0.0005345 0.0004124 0.0017137 0.0001236 0.0003652 0.0004252 0.0009860 0.0001633 0.0000030 0.0002005 0.0003053 -0.0000223 0.0002833 0.0000014 0.0003584 0.0000533 0.0003424 -0.0000553 0.0002811 0.0000829 0.0019519 0.0003506 0.0011124 0.0002425 0.0013206 0.0000415 0.0001201 0.0001976 0.0000452 -0.0002043 0.0004527 0.0000365 0.0003640 0.0000118 0.0004192 0.0000989 0.0000669 0.0001563 0.0000874 0.0001298 -0.0001816 0.0005276 0.0003092 -0.0000611 0.0004972 0.0000114 0.0002021 0.0001103 0.0002392 0.0000567 0.0002893 -0.0000138 0.0009492 0.0001322 0.0000113 0.0002351 0.0002945 0.0002767 0.0004227 0.0000980 0.0003477 0.0001611 0.0003581 0.0000071 0.0002871 0.0001439 0.0003980 -0.0000478 0.0005185 -0.0001288 0.0005355 0.0000412 0.0003733 -0.0000509 0.0009123 0.0001476 0.0003030 0.0001860 0.0001755 0.0001154 0.0001927 -0.0000186 0.0004907 0.0000432 0.0003742 -0.0004434 0.0008700 -0.0001067 0.0005341 -0.0000064 0.0004144 0.0001522 0.0000651 0.0000146 0.0001689 0.0000155 0.0001525 0.0003012 0.0001884 -0.0001395 0.0006038 0.0003526 0.0004366 -0.0002455 0.0006829 -0.0000401 0.0003836 -0.0000178 0.0002383 0.0000224 0.0004486 0.0000787 0.0004569 0.0000926 0.0001752 -0.0000048 0.0004712 0.0000817 0.0004296 0.0001075 0.0002639 0.0001272 0.0002816 0.0000738 0.0002846 0.0001298 0.0002109 0.0000116 0.0002734 -0.0000013 0.0003445 0.0002492 -0.0000404 -0.0000549 0.0006334 0.0002317 0.0001160 0.0002245 0.0001252 -0.0000321 0.0006565 0.0000511 0.0001774 0.0000894 0.0002817 0.0002664 0.0001303 0.0002345 -0.0000114 -0.0000355 0.0006930 -0.0000557 0.0003030 0.0010881 -0.0010734 -0.0000344 0.0002473 -0.0000959 0.0003821 -0.0003419 0.0007238 0.0000298 0.0002670 0.0001093 0.0003362
0.0000212 0.0005057 -0.0000099 0.0003188 0.0000449 0.0003541 0.0000469 0.0007711 -0.0000894 0.0011571 -0.0000932 0.0010157 -0.0000226 0.0005687 -0.0001186 0.0006891 -0.0000614 0.0008186 -0.0000109 0.0002160 -0.0000616 0.0004443 -0.0000301 0.0003086 0.0000015 0.0002537 0.0000851 0.0011376 0.0000015 0.0007157 -0.0000123 0.0010718 -0.0000391 0.0005830 -0.0000530 0.0006870 -0.0000925 0.0006246 0.0000218 0.0006313 -0.0000225 0.0005319 0.0000559 0.0003155 0.0000067 0.0002448 -0.0000131 0.0003257 0.0001821 0.0002576 0.0000479 0.0005426 0.0003566 0.0017540 0.0001174 0.0003463 0.0004057 0.0010033 0.0001630 -0.0000197 0.0001612 0.0003372 -0.0000811 0.0002953 0.0000003 0.0003592 0.0000621 0.0002838 -0.0000822 0.0003211 0.0000546 0.0017552 0.0003557 0.0010991 0.0002186 0.0012433 0.0000264 0.0000277 0.0001776 -0.0000794 -0.0001024 0.0003440 -0.0000944 0.0005197 0.0001101 0.0000815 0.0000815 -0.0000623 0.0002120 -0.0000886 0.0001311 -0.0003462 0.0005086 0.0003375 -0.0000303 0.0004130 -0.0000251 0.0002196 0.0001974 0.0000250 0.0000372 0.0001303 0.0000121 0.0008059 0.0001249 -0.0001237 0.0001950 0.0003297 0.0002470 0.0003682 0.0000876 0.0003070 0.0001769 0.0002785 0.0000526 0.0001310 0.0001347 0.0003320 -0.0000616 0.0002893 -0.0000891 0.0004226 -0.0000403 0.0002344 -0.0007463 0.0014063 0.0001430 0.0001712 0.0001891 -0.0000077 0.0001051 0.0001248 0.0000551 0.0003434 0.0000809 0.0001141 -0.0002662 0.0006006 -0.0001766 0.0004017 0.0000194 0.0001905 0.0001325 -0.0000857 0.0000244 -0.0000148 0.0000114 -0.0000865 -0.0000433 0.0005017 -0.0001467 0.0004206 0.0003286 0.0005754 -0.0001638 0.0004205 -0.0000491 0.0003176 -0.0000103 0.0001277 0.0000045 0.0003242 0.0000310 0.0002809 0.0000799 0.0000116 0.0000103 0.0002300 0.0000397 0.0005311 0.0001215 0.0001627 0.0001269 0.0001441 0.0001585 0.0001343 0.0000353 0.0001483 -0.0000086 0.0002287 0.0000057 0.0002353 0.0002902 -0.0002419 0.0002514 0.0002759 0.0000821 0.0001774 -0.0000255 0.0003399 0.0000745 0.0005242 0.0002471 0.0003499 0.0002549 0.0002488 0.0000188 0.0003591 0.0001914 -0.0000218 0.0000360 0.0005798 -0.0000742 0.0002929 0.0006435 -0.0007048 -0.0000814 0.0002836 -0.0001296 0.0003882 -0.0002263 0.0006023 -0.0000093 0.0003205 0.0000769 0.0004499
0.0000111 0.0004838 -0.0000039 0.0003264 0.0000472 0.0004109 0.0000251 0.0006906 -0.0000888 0.0010769 -0.0001125 0.0010538 -0.0000404 0.0006238 -0.0001503 0.0007220 -0.0000706 0.0007386 -0.0000264 0.0003148 -0.0000057 0.0004540 -0.0000562 0.0004705 0.0000196 0.0003040 0.0000643 0.0010451 -0.0000032 0.0007219 -0.0000291 0.0010950 -0.0000415 0.0005971 -0.0000589 0.0007544 -0.0001008 0.0006706 0.0001155 0.0005650 -0.0000349 0.0006328 0.0000780 0.0003444 0.0000463 0.0002923 -0.0000201 0.0003259 0.0001847 0.0002925 0.0000453 0.0005633 0.0003104 0.0018311 0.0000715 0.0003880 0.0003927 0.0011335 0.0001699 0.0000982 0.0001817 0.0004291 -0.0001316 0.0004585 -0.0000000 0.0004358 0.0000414 0.0004042 -0.0001158 0.0004843 0.0000292 0.0020942 0.0003279 0.0013368 0.0002049 0.0013519 0.0000174 0.0001632 0.0001330 0.0001384 -0.0000453 0.0004247 0.0000033 0.0004683 0.0000931 0.0003500 0.0001062 0.0000929 0.0001940 0.0000819 0.0001506 -0.0002651 -0.0001267 0.0006795 0.0001219 0.0003694 0.0001408 0.0001877 -0.0000137 0.0003632 0.0000282 0.0002764 0.0000351 0.0008019 0.0001628 -0.0000651 0.0001974 0.0003978 0.0002464 0.0004442 0.0000854 0.0004072 0.0001748 0.0003636 0.0001300 0.0001470 0.0001278 0.0004308 -0.0001254 0.0005370 -0.0000632 0.0005184 -0.0000218 0.0004220 -0.0006159 0.0013374 0.0001507 0.0002646 0.0002064 0.0001155 0.0001169 0.0002192 0.0003900 0.0005452 0.0001378 0.0002058 -0.0000534 0.0005843 -0.0000112 0.0004553 0.0000191 0.0002388 0.0001387 -0.0000667 0.0000081 0.0001158 0.0000840 -0.0001021 -0.0001845 0.0006115 -0.0000541 0.0003944 -0.0003361 0.0010636 -0.0004039 0.0006426 -0.0000388 0.0003282 -0.0001117 0.0001872 0.0000086 0.0003450 -0.0001609 0.0004125 0.0000791 -0.0000316 0.0000123 0.0002115 0.0000291 0.0007357 0.0001565 0.0001092 0.0001311 0.0001317 0.0001854 0.0001392 -0.0000900 0.0001670 -0.0000146 0.0001849 0.0000047 0.0001406 0.0001021 -0.0002927 0.0003379 0.0000986 -0.0001859 0.0004036 0.0001707 0.0000911 -0.0001275 0.0004692 0.0006705 -0.0000622 0.0000512 0.0004748 -0.0002173 0.0005234 0.0001381 -0.0000901 0.0000316 0.0004097 -0.0000586 0.0001897 0.0006431 0.0000733 -0.0001348 0.0002401 -0.0001095 0.0004617 -0.0002656 0.0005390 0.0000157 0.0002251 0.0002153 0.0001581
-0.0000107 0.0003721 0.0000069 0.0001815 -0.0000392 0.0002669 0.0000514 0.0005891 -0.0000765 0.0009511 -0.0001342 0.0008637 -0.0000562 0.0004126 -0.0001582 0.0005700 -0.0000950 0.0005440 -0.0000090 0.0002255 0.0000328 0.0003062 -0.0000183 0.0002817 0.0000761 0.0002339 0.0000666 0.0008004 0.0000107 0.0004453 -0.0000448 0.0010170 -0.0000476 0.0004859 -0.0000673 0.0005802 -0.0001088 0.0004853 0.0000426 0.0005017 -0.0000333 0.0004358 0.0001069 0.0002326 -0.0001492 0.0003114 -0.0000404 0.0001513 0.0001655 0.0002543 0.0000145 0.0004965 0.0002867 0.0018022 0.0000598 0.0002781 0.0003929 0.0011159 0.0001723 0.0000303 0.0002056 0.0003826 -0.0000950 0.0004719 0.0000340 0.0004274 0.0000426 0.0003574 -0.0001319 0.0004257 0.0000030 0.0022987 0.0003169 0.0013954 0.0001925 0.0013801 0.0000474 0.0001753 0.0001154 0.0001644 -0.0001281 0.0004832 -0.0000417 0.0004791 0.0000656 0.0004753 0.0001294 0.0001292 0.0001674 0.0001762 0.0001631 -0.0002518 -0.0001367 0.0006709 -0.0000036 0.0004902 0.0000836 0.0002577 -0.0001747 0.0004890 0.0000712 0.0002985 0.0000890 0.0007287 0.0001817 -0.0000752 0.0001951 0.0004594 0.0002578 0.0005076 0.0001082 0.0004725 0.0001547 0.0004566 0.0000560 0.0003070 0.0001435 0.0004834 -0.0002017 0.0007713 -0.0000750 0.0006492 -0.0001516 0.0007077 -0.0001751 0.0010008 0.0001635 0.0003428 0.0002031 0.0002587 0.0001525 0.0002611 0.0002353 0.0008816 0.0000784 0.0003980 -0.0000119 0.0006873 0.0001081 0.0005653 0.0000356 0.0003159 0.0001172 0.0000786 0.0000349 0.0001751 0.0000243 0.0000751 0.0000670 0.0003064 0.0000368 0.0004089 -0.0013572 0.0019097 -0.0005329 0.0009460 -0.0000373 0.0003449 -0.0000502 0.0002229 0.0000366 0.0003879 -0.0000117 0.0004131 0.0001008 0.0000906 0.0000325 0.0003559 0.0002975 0.0006226 0.0001226 0.0002504 0.0000868 0.0003218 0.0000392 0.0003493 -0.0001733 0.0004050 -0.0000023 0.0002900 -0.0000252 0.0003415 -0.0001550 0.0002345 0.0000651 0.0004037 -0.0000415 0.0004847 0.0002904 0.0001296 -0.0001042 0.0005633 0.0005052 0.0003869 0.0000025 0.0005057 -0.0001826 0.0005690 0.0000901 0.0001003 -0.0000020 0.0005275 -0.0000304 0.0002368 0.0005609 -0.0000888 -0.0001155 0.0002844 -0.0001923 0.0005538 -0.0000308 0.0004942 0.0000914 0.0002030 0.0002480 0.0001144
-0.0000208 0.0003602 -0.0000059 0.0002257 -0.0000752 0.0003060 0.0000534 0.0005775 -0.0000793 0.0009089 -0.0001589 0.0007703 -0.0000837 0.0003444 -0.0001625 0.0005284 -0.0001399 0.0005224 0.0000032 0.0001984 -0.0000098 0.0003456 -0.0000224 0.0001958 0.0001159 0.0002189 0.0000519 0.0006936 -0.0000022 0.0003509 -0.0000681 0.0009690 -0.0000651 0.0004553 -0.0001047 0.0005316 -0.0001238 0.0004152 -0.0000070 0.0005219 -0.0000252 0.0003112 0.0001066 0.0001902 -0.0002142 0.0002768 -0.0000388 0.0001407 0.0001752 0.0002401 0.0000020 0.0004145 0.0002614 0.0017881 0.0000841 0.0001410 0.0003758 0.0010356 0.0001621 -0.0001149 0.0002153 0.0002704 -0.0001013 0.0003713 0.0000731 0.0003294 0.0000500 0.0001927 -0.0001562 0.0003268 -0.0000351 0.0020909 0.0003159 0.0012738 0.0001716 0.0013034 0.0000794 0.0000157 0.0001176 -0.0000333 0.0000620 0.0001830 -0.0000348 0.0004247 0.0000837 0.0001572 0.0001461 -0.0000467 0.0001354 0.0000236 0.0001671 -0.0004447 -0.0001127 0.0006566 -0.0002064 0.0004205 0.0001665 0.0001301 0.0000424 0.0001345 0.0000828 0.0001020 0.0000796 0.0006309 0.0001680 -0.0002533 0.0001595 0.0004603 0.0002453 0.0004717 0.0001045 0.0004527 0.0001510 0.0003884 0.0000363 0.0003031 0.0001748 0.0003600 -0.0002796 0.0005877 -0.0000621 0.0005296 -0.0000687 0.0004347 -0.0000791 0.0008221 0.0001475 0.0002085 0.0001802 0.0001024 0.0001997 0.0001334 0.0004390 -0.0001032 0.0000961 0.0001891 -0.0001519 0.0007608 0.0001464 0.0002812 0.0000682 0.0001362 0.0001147 0.0000007 0.0000271 0.0000362 0.0001552 -0.0001546 0.0000912 0.0002166 0.0001041 0.0001832 -0.0008224 0.0015892 -0.0004248 0.0006466 -0.0000419 0.0002733 0.0000515 0.0002703 0.0000638 0.0002864 -0.0000234 0.0003189 0.0000769 0.0000857 0.0000354 0.0002725 0.0003805 0.0006654 0.0000497 0.0002329 0.0001491 0.0002186 0.0000889 0.0002957 -0.0001134 0.0003929 -0.0000013 0.0002683 -0.0000232 0.0003696 0.0000875 0.0000629 -0.0001109 0.0004961 0.0000692 0.0003830 0.0002303 0.0001519 0.0000290 0.0004085 0.0002273 0.0006076 -0.0000103 0.0004011 0.0003145 0.0000862 0.0001108 0.0000499 -0.0000232 0.0003000 -0.0000634 0.0003184 0.0003413 -0.0007289 -0.0000452 0.0003494 -0.0002692 0.0005821 0.0000218 0.0004084 0.0000068 0.0002972 0.0001830 0.0001415
-0.0000344 0.0003576 -0.0000118 0.0002672 -0.0000814 0.0003268 0.0000200 0.0005432 -0.0000733 0.0008896 -0.0001779 0.0007302 -0.0000557 0.0003498 -0.0001644 0.0005155 -0.0001323 0.0004875 -0.0000066 0.0002694 -0.0000440 0.0004084 -0.0000400 0.0003221 0.0000046 0.0003568 0.0000008 0.0006266 -0.0000277 0.0003599 -0.0001051 0.0008266 -0.0000869 0.0005015 -0.0001439 0.0006319 -0.0001331 0.0004900 0.0000160 0.0005437 -0.0000334 0.0003914 0.0001178 0.0002240 0.0000552 0.0001074 -0.0000329 0.0002287 0.0001999 0.0002734 0.0000189 0.0003541 0.0002417 0.0018070 0.0000951 0.0000820 0.0003659 0.0010271 0.0001483 -0.0001840 0.0002123 0.0002268 -0.0000638 0.0002182 0.0000118 0.0003032 0.0000274 0.0000238 -0.0001576 0.0003060 -0.0000768 0.0018763 0.0003042 0.0012173 0.0001238 0.0011244 0.0001408 -0.0001476 0.0001175 -0.0002566 -0.0000255 0.0001799 0.0003352 -0.0000512 0.0001106 -0.0001739 0.0001547 -0.0003071 0.0000109 -0.0001610 0.0002368 -0.0007103 -0.0000511 0.0005302 -0.0002378 0.0001987 0.0002176 -0.0000356 0.0000566 0.0000816 0.0000744 -0.0000608 0.0000261 0.0003308 0.0001643 -0.0004293 0.0001443 0.0003984 0.0002516 0.0004441 0.0000930 0.0004526 0.0001651 0.0003202 0.0000366 0.0001918 0.0001751 0.0002589 -0.0002214 0.0002653 -0.0000138 0.0003540 0.0001191 0.0000905 -0.0002727 0.0008788 0.0001224 0.0000583 0.0002041 -0.0001308 0.0001625 0.0000456 0.0008283 -0.0006717 0.0001477 -0.0001124 -0.0003705 0.0007672 0.0001199 0.0000206 0.0000847 -0.0000980 0.0001348 -0.0001817 0.0000970 -0.0002219 0.0003172 -0.0005405 -0.0000056 0.0001522 -0.0000059 0.0000004 0.0002211 0.0009448 -0.0001221 0.0003243 -0.0000115 0.0000846 0.0000767 0.0003042 0.0000592 0.0000575 -0.0001916 0.0001626 0.0000947 -0.0002230 0.0000353 -0.0000789 0.0003653 0.0008029 0.0000776 -0.0000831 0.0001598 -0.0000726 0.0001413 0.0001060 0.0000967 -0.0001146 -0.0000396 0.0000534 0.0000028 0.0000519 0.0003645 -0.0007237 -0.0001236 0.0000918 0.0000666 0.0001513 0.0001136 -0.0000997 0.0001718 -0.0000716 0.0005226 -0.0001010 -0.0001859 0.0005243 0.0002962 -0.0002876 0.0001697 -0.0003444 -0.0000498 -0.0001614 -0.0000662 0.0001131 0.0005287 -0.0002656 -0.0000575 0.0001311 -0.0000393 0.0002923 -0.0000750 0.0001782 -0.0000575 0.0001462 -0.0000166 0.0001381
-0.0000509 0.0002136 -0.0000061 0.0001003 -0.0000643 0.0000391 0.0000391 0.0003395 -0.0000202 0.0006907 -0.0001529 0.0005098 -0.0000350 0.0001336 -0.0001503 0.0003350 -0.0001185 0.0002552 -0.0000059 0.0002101 -0.0000236 0.0003280 -0.0000498 0.0003036 0.0000345 0.0003029 -0.0000211 0.0003356 -0.0000136 0.0001067 -0.0001151 0.0005452 -0.0001221 0.0003916 -0.0001421 0.0004637 -0.0001275 0.0003669 0.0000224 0.0004151 -0.0000445 0.0003063 0.0001103 0.0001252 0.0000552 0.0000491 -0.0000479 0.0001407 0.0001559 0.0002060 0.0000476 0.0002580 0.0002262 0.0017776 0.0000938 0.0000145 0.0003769 0.0010960 0.0001882 -0.0002235 0.0002112 0.0002022 -0.0000149 0.0001558 0.0000032 0.0002851 0.0000484 -0.0000894 -0.0001322 0.0002513 -0.0001229 0.0019468 0.0002980 0.0012600 0.0000868 0.0010372 0.0001976 -0.0002399 0.0001788 -0.0002830 -0.0002320 0.0003205 0.0001366 0.0000684 0.0001563 -0.0001931 0.0001826 -0.0004545 0.0000763 -0.0002908 0.0002944 -0.0008464 -0.0001396 0.0005767 -0.0003576 0.0001796 0.0001113 -0.0000395 0.0000498 0.0000736 0.0001438 -0.0001781 -0.0000077 -0.0000039 0.0001886 -0.0005794 0.0001491 0.0003247 0.0002503 0.0004381 0.0001247 0.0003758 0.0001776 0.0003141 0.0000361 0.0001281 0.0001712 0.0002075 -0.0000924 -0.0000196 -0.0000264 0.0003711 -0.0000570 0.0001461 -0.0007191 0.0011847 0.0001320 -0.0000388 0.0002477 -0.0002848 0.0001635 -0.0000380 0.0004278 0.0000700 0.0002062 -0.0003390 -0.0000303 0.0000542 0.0001556 -0.0001756 0.0001116 -0.0002934 0.0001815 -0.0003759 0.0002216 -0.0005226 0.0002864 -0.0007547 0.0001039 -0.0001124 -0.0001238 -0.0000738 0.0001122 0.0013125 -0.0004313 0.0005887 0.0000208 -0.0001099 0.0000323 0.0001202 -0.0000380 -0.0001170 0.0000652 -0.0002930 0.0001409 -0.0005234 0.0000824 -0.0004128 0.0004399 0.0007694 0.0001429 -0.0003954 0.0001422 -0.0002596 0.0001172 -0.0000263 0.0001109 -0.0004066 -0.0000097 -0.0002127 0.0000084 -0.0002380 0.0003350 -0.0010297 -0.0001476 -0.0002915 0.0001936 -0.0000845 -0.0004841 0.0001104 0.0001037 -0.0003030 0.0003216 -0.0005020 -0.0001312 0.0004449 -0.0001926 -0.0000470 0.0002866 -0.0007612 -0.0000249 -0.0004649 0.0000297 -0.0001973 0.0012272 -0.0012575 -0.0000618 -0.0002763 -0.0000919 -0.0000181 -0.0001916 -0.0000926 0.0000192 -0.0002016 -0.0000891 -0.0003195
-0.0000389 -0.0000766 0.0000162 -0.0001543 0.0000082 -0.0004701 0.0001149 -0.0000439 0.0000687 0.0001926 -0.0000640 -0.0000427 -0.0000647 -0.0003037 -0.0001137 -0.0001025 -0.0001311 -0.0001725 0.0000006 -0.0000259 0.0000310 0.0001267 0.0000435 -0.0001082 0.0001623 0.0000555 -0.0000042 -0.0003144 -0.0000296 -0.0003962 -0.0001246 0.0000476 -0.0001592 0.0000260 -0.0001585 -0.0000167 -0.0001046 -0.0000982 0.0001003 -0.0001091 -0.0000494 -0.0001228 0.0000477 -0.0001632 -0.0000770 -0.0001895 -0.0000484 -0.0001998 0.0001009 -0.0001128 0.0000922 0.0000424 0.0001920 0.0016395 0.0001555 -0.0002563 0.0003969 0.0010838 0.0002675 -0.0004243 0.0002467 0.0000203 0.0000105 -0.0000587 0.0000665 0.0001411 0.0000935 -0.0001910 -0.0000830 -0.0000070 -0.0001659 0.0019482 0.0002928 0.0011626 0.0000962 0.0009590 0.0001986 -0.0005178 0.0002942 -0.0002948 -0.0002256 0.0000322 -0.0000559 0.0001688 0.0002537 -0.0002332 0.0002830 -0.0006815 0.0002216 -0.0004121 0.0003432 -0.0010431 -0.0005032 0.0006779 -0.0002684 -0.0000612 0.0001360 -0.0001400 0.0002198 -0.0002430 0.0002003 -0.0002830 0.0001255 -0.0002456 0.0002718 -0.0007742 0.0001555 0.0001716 0.0002263 0.0003785 0.0000854 0.0002569 0.0001854 0.0003183 0.0002074 -0.0000330 0.0001914 0.0002148 -0.0000812 -0.0000087 -0.0000147 0.0004932 0.0001077 0.0000586 -0.0007848 0.0012689 0.0001521 -0.0000057 0.0002707 -0.0002397 0.0002259 -0.0001388 -0.0005700 0.0008586 0.0002556 -0.0002818 0.0002624 -0.0003245 0.0002690 -0.0002082 0.0001639 -0.0003237 0.0002739 -0.0005207 0.0003025 -0.0006011 0.0001665 -0.0006601 -0.0000330 -0.0002654 -0.0000977 -0.0000639 0.0003884 0.0013554 -0.0007816 0.0007566 0.0000538 -0.0002151 0.0000732 -0.0001072 0.0000019 -0.0002314 0.0000965 -0.0003343 0.0001664 -0.0006241 0.0000784 -0.0004846 0.0004144 0.0008626 0.0000996 -0.0004782 0.0001453 -0.0002989 0.0001223 -0.0000594 0.0000795 -0.0003974 0.0000454 -0.0003779 0.0000303 -0.0004072 0.0005392 -0.0013146 -0.0002404 -0.0003465 0.0001594 -0.0001370 -0.0003753 -0.0000426 -0.0002326 -0.0001969 -0.0000090 -0.0004521 -0.0000469 0.0000467 -0.0000993 -0.0001847 0.0003428 -0.0010341 0.0000449 -0.0007892 0.0001025 -0.0003402 -0.0007943 -0.0003457 -0.0000886 -0.0005276 -0.0001313 -0.0003961 -0.0000876 -0.0004547 0.0000219 -0.0003512 0.0001889 -0.0010223
-0.0000292 -0.0003671 0.0000330 -0.0003746 -0.0000047 -0.0008252 0.0001872 -0.0004667 0.0001570 -0.0003651 0.0000572 -0.0006905 -0.0000844 -0.0006629 -0.0000362 -0.0006074 -0.0001046 -0.0006353 0.0000169 -0.0002012 0.0000521 -0.0000746 0.0000909 -0.0003588 0.0001772 -0.0000942 -0.0000039 -0.0010512 -0.0000514 -0.0008544 -0.0001545 -0.0005434 -0.0001779 -0.0003264 -0.0001988 -0.0003758 -0.0000684 -0.0005495 0.0002094 -0.0006469 -0.0000506 -0.0004664 0.0000774 -0.0004570 -0.0000659 -0.0005550 -0.0000289 -0.0005991 0.0001101 -0.0004106 0.0001200 -0.0002410 0.0001852 0.0014968 0.0002198 -0.0006038 0.0004093 0.0009164 0.0003199 -0.0007869 0.0002986 -0.0002549 0.0000030 -0.0004244 0.0001612 -0.0001765 0.0001114 -0.0005475 -0.0000806 -0.0003144 -0.0001933 0.0015465 0.0002915 0.0008141 0.0001173 0.0007084 0.0002696 -0.0009903 0.0003354 -0.0006131 -0.0001326 -0.0004142 0.0000525 -0.0001977 0.0003407 -0.0006622 0.0003400 -0.0010561 0.0003482 -0.0008693 0.0004688 -0.0014569 -0.0000930 -0.0000626 -0.0000148 -0.0005787 0.0002291 -0.0004345 0.0002387 -0.0005653 0.0002709 -0.0005313 0.0001941 -0.0006685 0.0003803 -0.0011284 0.0001457 -0.0000591 0.0002015 0.0002137 0.0000599 0.0001243 0.0001927 0.0002632 0.0002139 -0.0001117 0.0002088 0.0001832 -0.0000358 -0.0001255 0.0000850 0.0004028 0.0002461 -0.0001374 -0.0001957 0.0006084 0.0001673 -0.0000128 0.0002757 -0.0001981 0.0002074 -0.0001769 0.0000004 -0.0000777 0.0003102 -0.0002703 0.0001773 -0.0003991 0.0003496 -0.0002177 0.0002078 -0.0003496 0.0003255 -0.0005622 0.0003756 -0.0006452 0.0002925 -0.0007440 0.0001357 -0.0006632 -0.0000438 -0.0001791 0.0010946 0.0010137 -0.0003931 0.0003038 0.0001099 -0.0003455 0.0001593 -0.0001101 0.0000852 -0.0003494 0.0002108 -0.0005197 0.0001718 -0.0006192 0.0000373 -0.0004854 0.0003211 0.0009302 0.0000639 -0.0004442 0.0000859 -0.0002156 0.0000687 -0.0000355 0.0002238 -0.0003495 0.0001005 -0.0003736 0.0000289 -0.0003785 0.0006866 -0.0012642 -0.0001679 -0.0002839 0.0001142 -0.0001853 -0.0001675 -0.0001865 0.0000565 -0.0004496 0.0003713 -0.0004406 0.0002800 -0.0004153 0.0002241 -0.0004148 0.0003420 -0.0010340 0.0000436 -0.0009362 0.0001426 -0.0003430 -0.0029397 0.0019268 -0.0001046 -0.0005882 0.0000576 -0.0007281 0.0001242 -0.0006557 -0.0000502 -0.0003128 0.0002124 -0.0010466
-0.0000179 -0.0005023 0.0000010 -0.0003980 0.0000106 -0.0009026 0.0002561 -0.0007138 0.0002584 -0.0007325 0.0001494 -0.0010738 -0.0000796 -0.0008494 0.0000672 -0.0009486 -0.0000823 -0.0009174 0.0000479 -0.0003021 0.0000623 -0.0001766 0.0000863 -0.0003907 0.0001266 -0.0001525 0.0000166 -0.0016225 -0.0000130 -0.0011973 -0.0001745 -0.0009236 -0.0002000 -0.0005442 -0.0002215 -0.0006253 -0.0000445 -0.0009110 0.0002797 -0.0008972 -0.0000468 -0.0006347 0.0001352 -0.0006175 -0.0001275 -0.0005302 -0.0000485 -0.0009792 0.0001375 -0.0006355 0.0001222 -0.0004612 0.0001905 0.0014398 0.0002758 -0.0008177 0.0004044 0.0007911 0.0003519 -0.0010193 0.0003208 -0.0004535 0.0000166 -0.0006177 0.0002432 -0.0004436 0.0001156 -0.0008483 -0.0000211 -0.0005255 -0.0002239 0.0013007 0.0002677 0.0005901 0.0001084 0.0005825 0.0003839 -0.0012710 0.0003280 -0.0008982 0.0000300 -0.0007172 0.0001153 -0.0005779 0.0003712 -0.0010007 0.0003261 -0.0012295 0.0004435 -0.0012502 0.0005585 -0.0016742 -0.0002111 -0.0001309 -0.0000309 -0.0007893 0.0001621 -0.0005192 0.0001403 -0.0008203 0.0003254 -0.0006864 0.0001127 -0.0012398 0.0004152 -0.0013961 0.0001654 -0.0002410 0.0001886 0.0000142 0.0000817 0.0000474 0.0001885 0.0002138 0.0000125 -0.0000191 0.0002190 0.0001142 -0.0000473 -0.0003284 0.0001053 0.0002197 0.0003429 -0.0004500 0.0002882 -0.0001193 0.0001702 -0.0000626 0.0003071 -0.0003154 0.0002181 -0.0002234 0.0009067 -0.0011763 0.0003494 -0.0004854 0.0002506 -0.0008758 0.0004617 -0.0005252 0.0002105 -0.0005127 0.0003409 -0.0006711 0.0004009 -0.0007725 0.0003591 -0.0009361 0.0003130 -0.0008862 0.0000326 -0.0004829 0.0009398 0.0011309 -0.0003011 -0.0000787 0.0000890 -0.0004888 0.0002761 -0.0001151 0.0000876 -0.0005214 0.0002808 -0.0008986 0.0002008 -0.0007559 0.0000857 -0.0007281 0.0002834 0.0008214 0.0000380 -0.0005165 0.0001258 -0.0003706 0.0000381 -0.0001317 0.0001933 -0.0004280 0.0000982 -0.0003760 0.0000574 -0.0004322 0.0004794 -0.0011689 0.0001143 -0.0004445 0.0001608 -0.0001933 -0.0001207 -0.0003703 0.0002854 -0.0007196 0.0011658 -0.0009304 0.0001046 -0.0004645 0.0004165 -0.0006551 0.0004552 -0.0012656 0.0000198 -0.0013919 0.0001366 -0.0004029 -0.0010296 0.0005290 0.0000172 -0.0007297 0.0002014 -0.0009656 0.0002026 -0.0005015 -0.0000252 -0.0003585 0.0001862 -0.0007478
0.0000068 -0.0005532 0.0000028 -0.0003947 0.0000607 -0.0009145 0.0002935 -0.0008583 0.0003712 -0.0010220 0.0002039 -0.0012349 -0.0000577 -0.0008461 0.0001745 -0.0011013 -0.0000681 -0.0010272 0.0000707 -0.0002940 0.0001361 -0.0002122 0.0000936 -0.0002846 0.0001107 -0.0001380 0.0000145 -0.0019102 -0.0000008 -0.0012187 -0.0001959 -0.0011416 -0.0002076 -0.0006342 -0.0001868 -0.0006761 0.0000105 -0.0009292 0.0002697 -0.0008207 -0.0000525 -0.0005406 0.0001481 -0.0005970 0.0000035 -0.0005226 -0.0000399 -0.0010278 0.0001497 -0.0006081 0.0001403 -0.0004988 0.0001666 0.0015097 0.0003287 -0.0007654 0.0003908 0.0009100 0.0003778 -0.0008950 0.0003283 -0.0003700 -0.0000172 -0.0005333 0.0001892 -0.0004454 0.0001104 -0.0008505 0.0000448 -0.0005157 -0.0002438 0.0013675 0.0002644 0.0006753 0.0000920 0.0007098 0.0004296 -0.0012469 0.0003538 -0.0009559 0.0002235 -0.0008512 0.0001708 -0.0006452 0.0003956 -0.0010676 0.0003597 -0.0011716 0.0005477 -0.0013918 0.0005541 -0.0016419 -0.0000846 -0.0003333 -0.0000601 -0.0008335 0.0000171 -0.0004503 0.0000442 -0.0008949 0.0003206 -0.0006879 0.0000831 -0.0014059 0.0004577 -0.0014914 0.0001780 -0.0003018 0.0001820 -0.0000788 0.0000781 0.0000351 0.0001974 0.0002209 0.0001623 -0.0000998 0.0002260 0.0000927 -0.0000144 -0.0005030 0.0001242 0.0001098 0.0005904 -0.0006817 0.0006550 -0.0004288 0.0001694 -0.0000512 0.0003293 -0.0003642 0.0002590 -0.0002555 0.0018216 -0.0022477 0.0003532 -0.0006509 -0.0000095 -0.0007744 0.0004884 -0.0007548 0.0002111 -0.0006256 0.0003165 -0.0006792 0.0004113 -0.0008327 0.0002436 -0.0008668 0.0004028 -0.0010459 0.0001764 -0.0008132 0.0005705 0.0012360 -0.0002189 -0.0003559 0.0000925 -0.0005734 0.0002873 -0.0000310 0.0001330 -0.0006340 0.0003411 -0.0011305 0.0002542 -0.0009800 0.0001088 -0.0009654 0.0003668 0.0005636 0.0000592 -0.0007423 0.0002059 -0.0006414 0.0001946 -0.0004105 0.0002511 -0.0007342 0.0000527 -0.0004532 0.0000774 -0.0006485 0.0005024 -0.0016679 0.0006018 -0.0009991 0.0004324 -0.0005128 0.0006397 -0.0011169 0.0000952 -0.0007095 0.0003151 -0.0009108 0.0000277 -0.0006824 -0.0000319 -0.0005276 0.0005297 -0.0016235 0.0000567 -0.0018567 0.0000967 -0.0005278 -0.0004287 -0.0000871 0.0000995 -0.0009289 0.0005528 -0.0012440 0.0001647 -0.0004871 -0.0000480 -0.0003772 0.0002426 -0.0006407
0.0000317 -0.0006423 0.0000218 -0.0005477 0.0000580 -0.0010622 0.0003302 -0.0010500 0.0004879 -0.0013300 0.0002899 -0.0014667 0.0000091 -0.0009501 0.0002905 -0.0012705 -0.0000391 -0.0011094 0.0000796 -0.0003677 0.0001349 -0.0002747 0.0000680 -0.0002729 0.0002296 -0.0003063 0.0000133 -0.0020230 -0.0000254 -0.0011678 -0.0001992 -0.0012585 -0.0001774 -0.0008037 -0.0001350 -0.0007555 0.0000790 -0.0008949 0.0002594 -0.0009128 -0.0000522 -0.0005143 0.0001360 -0.0005659 0.0001115 -0.0006028 0.0000130 -0.0009111 0.0001731 -0.0004971 0.0001849 -0.0004968 0.0001385 0.0015946 0.0003202 -0.0006800 0.0003754 0.0010293 0.0004113 -0.0007974 0.0003419 -0.0002934 -0.0000706 -0.0004730 0.0001501 -0.0004300 0.0001194 -0.0008032 0.0000302 -0.0004450 -0.0002453 0.0016232 0.0002658 0.0008722 0.0001072 0.0008736 0.0004224 -0.0011232 0.0003523 -0.0007882 0.0002470 -0.0007909 0.0001566 -0.0006157 0.0003682 -0.0008231 0.0003960 -0.0009609 0.0005416 -0.0012153 0.0005613 -0.0014900 0.0008582 -0.0010328 0.0000801 -0.0009728 0.0001196 -0.0005337 0.0001680 -0.0009129 0.0003384 -0.0005548 0.0001148 -0.0013515 0.0004971 -0.0014067 0.0001606 -0.0002151 0.0001463 0.0000254 0.0000775 0.0001444 0.0001877 0.0003594 0.0001347 0.0000917 0.0002008 0.0002322 0.0001389 -0.0004800 0.0001834 0.0001695 0.0006299 -0.0004786 0.0004300 0.0000426 0.0001723 0.0001022 0.0002956 -0.0001342 0.0002409 -0.0001062 0.0012041 -0.0018974 0.0003592 -0.0005370 0.0001626 -0.0008120 0.0006191 -0.0007661 0.0002084 -0.0004998 0.0003006 -0.0005673 0.0004020 -0.0006956 0.0003096 -0.0007695 0.0003126 -0.0009216 0.0000812 -0.0007558 0.0003024 0.0013401 -0.0000182 -0.0005580 0.0000970 -0.0005130 0.0002687 0.0001170 0.0001561 -0.0005794 0.0004288 -0.0012581 0.0002678 -0.0010269 0.0001105 -0.0010208 0.0004453 0.0003868 0.0001435 -0.0008821 0.0001741 -0.0006980 0.0003818 -0.0005838 0.0004353 -0.0009318 0.0000676 -0.0004940 0.0000356 -0.0007411 0.0004358 -0.0016472 0.0004840 -0.0010538 0.0004770 -0.0006770 0.0007766 -0.0012844 0.0002893 -0.0007606 -0.0001931 -0.0008442 0.0004543 -0.0009670 -0.0002230 -0.0002439 0.0004781 -0.0016644 0.0001342 -0.0017724 0.0001299 -0.0006287 -0.0010656 0.0001761 0.0000065 -0.0009173 0.0004242 -0.0011708 0.0002740 -0.0007025 -0.0000609 -0.0003717 0.0001093 -0.0004970
0.0000578 -0.0006495 0.0000205 -0.0006663 0.0000844 -0.0012113 0.0003904 -0.0011298 0.0005956 -0.0014645 0.0003643 -0.0015581 0.0000248 -0.0011002 0.0003734 -0.0013508 0.0000238 -0.0011149 0.0000990 -0.0005809 0.0001194 -0.0004516 0.0000795 -0.0004971 0.0002922 -0.0004998 0.0000959 -0.0019471 -0.0000064 -0.0011879 -0.0001834 -0.0010420 -0.0001485 -0.0010001 -0.0001520 -0.0009950 0.0001000 -0.0010938 0.0002945 -0.0011483 -0.0000286 -0.0007179 0.0001108 -0.0006311 0.0000700 -0.0006991 0.0000253 -0.0009454 0.0001660 -0.0005599 0.0002044 -0.0005131 0.0001124 0.0015562 0.0003264 -0.0007703 0.0003447 0.0009528 0.0004237 -0.0009922 0.0003370 -0.0004736 -0.0000158 -0.0006681 0.0002464 -0.0006076 0.0001580 -0.0008393 0.0000446 -0.0005978 -0.0002623 0.0016044 0.0002541 0.0008166 0.0001181 0.0008223 0.0003623 -0.0011904 0.0004129 -0.0008903 0.0000674 -0.0008275 0.0001846 -0.0007744 0.0003204 -0.0007940 0.0003976 -0.0009731 0.0004642 -0.0011106 0.0005626 -0.0014678 0.0004992 -0.0008200 -0.0001513 -0.0008521 0.0000638 -0.0004947 0.0004319 -0.0010956 0.0003471 -0.0004797 0.0001949 -0.0014603 0.0004866 -0.0013308 0.0001702 -0.0001375 0.0001173 0.0000876 0.0000659 0.0002221 0.0001644 0.0004463 -0.0000872 0.0002609 0.0001818 0.0003160 0.0000803 -0.0003288 0.0002107 0.0001785 0.0003125 -0.0002449 0.0004715 -0.0001944 0.0001587 0.0002470 0.0002734 0.0000164 0.0002400 -0.0000084 -0.0000945 -0.0005535 0.0003739 -0.0003911 0.0005542 -0.0010738 0.0006941 -0.0007254 0.0002007 -0.0003764 0.0003318 -0.0004659 0.0003854 -0.0005047 0.0004368 -0.0007996 0.0000914 -0.0006466 -0.0000465 -0.0005767 0.0000900 0.0011343 -0.0000477 -0.0003952 0.0001217 -0.0004019 0.0002460 0.0002984 0.0001413 -0.0004157 0.0002872 -0.0010539 0.0002494 -0.0009163 0.0000951 -0.0008946 0.0005558 0.0004031 0.0001446 -0.0007839 0.0001357 -0.0006142 0.0003282 -0.0004809 0.0003603 -0.0006613 0.0001091 -0.0003984 0.0000249 -0.0006318 0.0003689 -0.0014476 0.0001309 -0.0008114 0.0004678 -0.0005537 -0.0000227 -0.0005287 0.0002332 -0.0005272 0.0010840 -0.0012388 0.0003709 -0.0006719 0.0000363 -0.0002778 0.0004780 -0.0014907 0.0001734 -0.0014238 0.0002096 -0.0005943 -0.0011108 0.0001370 -0.0000435 -0.0006981 0.0000039 -0.0007867 0.0004689 -0.0006585 0.0000216 -0.0003193 0.0000839 -0.0002357
0.0000815 -0.0004674 0.0000288 -0.0005812 0.0001101 -0.0010644 0.0004515 -0.0010161 0.0006678 -0.0013484 0.0004224 -0.0013845 -0.0000048 -0.0010012 0.0004295 -0.0011996 0.0000946 -0.0009442 0.0000996 -0.0006663 0.0000886 -0.0004884 0.0000992 -0.0005993 0.0002924 -0.0005790 0.0001670 -0.0017004 0.0000038 -0.0010230 -0.0001920 -0.0007503 -0.0001403 -0.0009682 -0.0001248 -0.0009796 0.0000837 -0.0010990 0.0003135 -0.0010856 -0.0000173 -0.0007371 0.0001377 -0.0006233 -0.0000323 -0.0006349 0.0000020 -0.0009040 0.0001691 -0.0005215 0.0001826 -0.0004155 0.0000963 0.0015884 0.0003350 -0.0007495 0.0003308 0.0008816 0.0004143 -0.0011017 0.0003350 -0.0006231 -0.0000253 -0.0007857 0.0002730 -0.0006701 0.0001670 -0.0008558 0.0000836 -0.0006955 -0.0002960 0.0013427 0.0002385 0.0006612 0.0000903 0.0007190 0.0003608 -0.0013129 0.0004646 -0.0012072 0.0001510 -0.0010636 0.0004466 -0.0011178 0.0003418 -0.0011064 0.0003614 -0.0011418 0.0004862 -0.0012567 0.0005359 -0.0015307 0.0003382 -0.0008618 -0.0000417 -0.0009549 0.0000232 -0.0004745 0.0001268 -0.0008999 0.0003360 -0.0006223 0.0001923 -0.0015305 0.0004981 -0.0014240 0.0001888 -0.0000785 0.0001274 0.0000503 0.0000573 0.0002330 0.0001686 0.0003694 -0.0000599 0.0000875 0.0001832 0.0002190 0.0000888 -0.0005226 0.0001788 0.0000689 0.0002724 -0.0004173 0.0006684 -0.0006507 0.0001524 0.0001848 0.0002523 -0.0001380 0.0002435 -0.0001181 0.0004120 -0.0009285 0.0003913 -0.0006286 0.0003707 -0.0010242 0.0006358 -0.0010165 0.0002319 -0.0005659 0.0002968 -0.0005312 0.0003410 -0.0005220 0.0003120 -0.0008245 -0.0001825 -0.0004149 0.0000564 -0.0007922 0.0011302 0.0003807 -0.0000236 -0.0005303 0.0001644 -0.0003377 0.0001669 0.0002409 0.0001042 -0.0003217 0.0003566 -0.0010747 0.0002273 -0.0009294 0.0000778 -0.0009277 0.0006273 0.0002795 0.0001362 -0.0008412 0.0002206 -0.0007328 0.0003106 -0.0004807 0.0002257 -0.0004675 0.0001156 -0.0003821 0.0000480 -0.0005940 0.0004286 -0.0015296 0.0003302 -0.0009434 0.0006102 -0.0006230 0.0000265 -0.0003719 0.0001578 -0.0004461 0.0009552 -0.0009795 0.0003408 -0.0005993 0.0002593 -0.0005361 0.0004939 -0.0013848 0.0000576 -0.0012653 0.0001815 -0.0003660 0.0002953 -0.0003918 0.0000468 -0.0004988 0.0000120 -0.0005495 0.0004101 -0.0004152 -0.0000359 -0.0002217 0.0000829 -0.0000612
0.0001022 -0.0002573 0.0000308 -0.0004208 0.0000894 -0.0008081 0.0004751 -0.0008645 0.0007090 -0.0011672 0.0004668 -0.0010778 0.0000075 -0.0007777 0.0004478 -0.0009230 0.0001026 -0.0006808 0.0000837 -0.0005673 0.0000022 -0.0002846 0.0000750 -0.0004306 0.0002513 -0.0005121 0.0001900 -0.0012802 -0.0000070 -0.0006485 -0.0001933 -0.0004485 -0.0001244 -0.0007811 -0.0000518 -0.0007386 0.0000666 -0.0008487 0.0003283 -0.0008290 -0.0000259 -0.0004906 0.0001295 -0.0004554 0.0000156 -0.0005181 -0.0000111 -0.0006380 0.0001471 -0.0003007 0.0001768 -0.0001724 0.0000607 0.0017765 0.0003381 -0.0005202 0.0003114 0.0010440 0.0003909 -0.0008300 0.0003369 -0.0004845 -0.0000529 -0.0005367 0.0002819 -0.0004663 0.0001997 -0.0005971 0.0000463 -0.0004785 -0.0003359 0.0014644 0.0002127 0.0008352 0.0000431 0.0008186 0.0002994 -0.0011166 0.0004705 -0.0010482 0.0002661 -0.0010784 0.0006351 -0.0011541 0.0003623 -0.0010078 0.0002792 -0.0010078 0.0004919 -0.0010673 0.0004990 -0.0013225 0.0007102 -0.0010634 0.0001912 -0.0009813 0.0000523 -0.0003452 -0.0002952 -0.0005300 0.0003078 -0.0006082 0.0000654 -0.0016135 0.0004914 -0.0013980 0.0001910 0.0000527 0.0001130 0.0001664 0.0000735 0.0002452 0.0001501 0.0003622 0.0000886 -0.0000607 0.0001666 0.0001887 0.0002086 -0.0006653 0.0001766 0.0000231 0.0004024 -0.0003917 0.0006036 -0.0002936 0.0001368 0.0000811 0.0002526 -0.0002997 0.0001974 -0.0002456 0.0007665 -0.0014116 0.0003876 -0.0008778 0.0004656 -0.0012185 0.0006766 -0.0013946 0.0002495 -0.0007420 0.0002544 -0.0007249 0.0002866 -0.0006063 0.0002508 -0.0007834 -0.0001653 -0.0005224 0.0001502 -0.0009355 0.0014999 0.0003447 -0.0001495 -0.0006649 0.0001164 -0.0002930 0.0000808 -0.0000132 0.0000247 -0.0002918 0.0002262 -0.0011120 0.0002112 -0.0010575 0.0001497 -0.0012016 0.0004289 0.0002695 0.0001332 -0.0010094 0.0002552 -0.0009225 0.0004078 -0.0005606 0.0002361 -0.0006561 0.0000635 -0.0004656 0.0000621 -0.0007353 0.0004167 -0.0016535 0.0004433 -0.0012352 0.0006737 -0.0006501 -0.0002471 -0.0003255 0.0002645 -0.0006596 0.0004962 -0.0009625 -0.0000009 -0.0002791 0.0001334 -0.0006049 0.0004259 -0.0015021 -0.0001861 -0.0019015 0.0001295 -0.0002601 0.0002108 -0.0004402 0.0000419 -0.0004129 0.0004817 -0.0007457 0.0003244 -0.0003396 -0.0001669 -0.0002533 0.0000965 -0.0003731
0.0001140 -0.0001660 0.0000366 -0.0004419 0.0000652 -0.0007926 0.0004709 -0.0007821 0.0007476 -0.0010984 0.0004676 -0.0007949 0.0000264 -0.0005939 0.0004417 -0.0007748 0.0001043 -0.0005464 0.0000927 -0.0004806 0.0000884 -0.0002134 0.0000520 -0.0003044 0.0002710 -0.0004706 0.0002099 -0.0009048 -0.0000008 -0.0004203 -0.0001767 -0.0002432 -0.0000732 -0.0005871 -0.0000079 -0.0005244 0.0000766 -0.0006389 0.0002798 -0.0005898 -0.0000117 -0.0003092 0.0001535 -0.0003296 0.0001096 -0.0005685 0.0000034 -0.0003423 0.0001492 -0.0000568 0.0001758 0.0000267 0.0000169 0.0019058 0.0003051 -0.0003791 0.0002900 0.0011574 0.0003701 -0.0007241 0.0002970 -0.0003990 -0.0000136 -0.0003567 0.0002700 -0.0003907 0.0001840 -0.0004912 0.0001223 -0.0003558 -0.0003764 0.0017104 0.0002011 0.0009924 -0.0000137 0.0008503 0.0003222 -0.0009006 0.0004374 -0.0008898 0.0002649 -0.0008665 0.0004175 -0.0008785 0.0003623 -0.0007930 0.0001931 -0.0008583 0.0004253 -0.0009161 0.0004464 -0.0010531 0.0003248 -0.0008259 0.0001667 -0.0007666 0.0000889 -0.0003069 0.0000729 -0.0008056 0.0002359 -0.0004084 -0.0001552 -0.0022561 0.0004752 -0.0011855 0.0001908 0.0001959 0.0001120 0.0003142 0.0000819 0.0003702 0.0001158 0.0004702 0.0001761 0.0000001 0.0001366 0.0002642 0.0000623 -0.0002674 0.0001591 0.0001115 0.0003792 -0.0002093 0.0004609 0.0002215 0.0001084 0.0001323 0.0002359 -0.0001625 0.0001439 -0.0002573 0.0013265 -0.0014548 0.0003719 -0.0006331 0.0003248 -0.0009285 0.0006693 -0.0011820 0.0002296 -0.0005109 0.0002188 -0.0005763 0.0002693 -0.0004192 0.0003376 -0.0006635 -0.0000722 -0.0005012 0.0001800 -0.0007140 0.0011145 0.0004568 0.0000773 -0.0008543 0.0000743 -0.0002534 0.0001211 -0.0000755 -0.0000197 -0.0001706 0.0001866 -0.0008762 0.0001785 -0.0007865 0.0001805 -0.0010060 0.0002607 0.0002748 0.0001535 -0.0007937 0.0002041 -0.0007341 0.0004678 -0.0005696 0.0002225 -0.0004973 0.0000069 -0.0002624 0.0000820 -0.0005028 0.0005679 -0.0015246 0.0002768 -0.0010418 0.0005914 -0.0004252 -0.0004905 -0.0003006 0.0002086 -0.0005057 0.0005067 -0.0008831 -0.0002023 -0.0000376 -0.0001676 -0.0003621 0.0003576 -0.0013837 -0.0003286 -0.0022183 0.0000423 -0.0001755 -0.0002649 -0.0008571 0.0000188 -0.0003861 0.0003274 -0.0005050 -0.0000805 -0.0000427 -0.0001016 -0.0001478 0.0000610 -0.0005266
0.0001216 -0.0000058 0.0000386 -0.0003604 0.0000944 -0.0007091 0.0004733 -0.0005508 0.0007395 -0.0007798 0.0004293 -0.0004260 0.0000489 -0.0003491 0.0004305 -0.0005808 0.0001224 -0.0003687 0.0001168 -0.0003915 0.0001462 -0.0002004 0.0000395 -0.0002191 0.0002991 -0.0004556 0.0002357 -0.0005736 -0.0000110 -0.0003003 -0.0001634 -0.0001306 -0.0000232 -0.0003454 -0.0000009 -0.0003112 0.0000780 -0.0004704 0.0002341 -0.0003733 0.0000259 -0.0002478 0.0001844 -0.0002160 0.0001072 -0.0006027 0.0000125 -0.0001552 0.0001884 0.0001534 0.0001569 0.0001101 -0.0000009 0.0018869 0.0002356 -0.0003857 0.0002589 0.0010159 0.0003254 -0.0009537 0.0002585 -0.0006374 0.0000796 -0.0005067 0.0001938 -0.0004515 0.0001115 -0.0006604 0.0001192 -0.0003690 -0.0004102 0.0015487 0.0001667 0.0008391 -0.0000726 0.0006492 0.0003994 -0.0009337 0.0003549 -0.0011273 0.0004235 -0.0008559 0.0003870 -0.0011545 0.0002960 -0.0009713 0.0001043 -0.0009687 0.0002824 -0.0010383 0.0003636 -0.0010119 0.0002357 -0.0008416 0.0002215 -0.0008792 0.0001498 -0.0004295 0.0003486 -0.0012208 0.0001781 -0.0004754 -0.0003341 -0.0028379 0.0004475 -0.0011026 0.0001603 0.0003485 0.0001354 0.0003807 0.0000668 0.0005461 0.0000918 0.0005105 0.0001186 0.0000401 0.0001339 0.0002383 -0.0000260 -0.0000522 0.0001519 0.0000062 0.0000782 0.0000501 0.0003245 0.0004638 0.0000931 0.0001431 0.0001696 -0.0001041 0.0000869 -0.0002835 0.0016427 -0.0013318 0.0003462 -0.0005053 0.0002306 -0.0006318 0.0006706 -0.0011314 0.0002076 -0.0003509 0.0001539 -0.0004369 0.0002153 -0.0002720 0.0001633 -0.0005283 0.0003706 -0.0006546 0.0001746 -0.0005505 0.0010196 -0.0000792 0.0003168 -0.0011446 0.0000473 -0.0002793 0.0000944 -0.0000515 0.0000250 -0.0002016 0.0002672 -0.0007311 0.0001641 -0.0005839 0.0001259 -0.0008072 0.0000997 0.0002388 0.0001663 -0.0006967 0.0001804 -0.0006073 0.0003146 -0.0004862 0.0001126 -0.0002770 0.0000219 -0.0001696 0.0000961 -0.0003153 0.0003245 -0.0010871 0.0001875 -0.0010020 0.0004072 -0.0001596 0.0002290 -0.0009533 0.0001721 -0.0004433 0.0007354 -0.0008261 0.0000689 -0.0001461 -0.0002508 -0.0004067 0.0003184 -0.0013451 -0.0004168 -0.0023348 -0.0000018 -0.0001471 0.0003815 -0.0014996 -0.0000246 -0.0003646 -0.0001074 -0.0001793 -0.0001744 0.0000529 0.0000147 -0.0000306 -0.0001387 -0.0002793
0.0001079 0.0002044 0.0000238 -0.0001322 0.0000816 -0.0003525 0.0004630 -0.0003265 0.0006978 -0.0003479 0.0003680 0.0000777 0.0000748 0.0000697 0.0004054 -0.0002271 0.0001441 -0.0001420 0.0001169 -0.0001271 0.0000846 0.0000406 0.0000303 0.0001979 0.0002852 -0.0002540 0.0002350 -0.0002436 -0.0000252 -0.0000588 -0.0001528 0.0000470 0.0000032 0.0000023 0.0000168 0.0001966 0.0000735 -0.0000635 0.0002402 -0.0000116 0.0000224 0.0000921 0.0001716 0.0000774 0.0000727 -0.0003868 0.0000246 0.0002253 0.0002153 0.0004903 0.0001844 0.0004498 -0.0000363 0.0020603 0.0002308 -0.0001686 0.0003323 0.0011302 0.0002585 -0.0005851 0.0002481 -0.0002594 0.0001020 -0.0001312 0.0000969 -0.0002844 0.0000043 -0.0005924 0.0000877 0.0001193 -0.0004626 0.0019243 0.0001374 0.0008045 -0.0000723 0.0007964 0.0003545 -0.0004607 0.0003239 -0.0006906 0.0004029 -0.0005009 0.0003741 -0.0009528 0.0002346 -0.0006102 0.0001010 -0.0006134 0.0001843 -0.0006246 0.0002725 -0.0006176 0.0005770 -0.0006988 0.0002634 -0.0007637 0.0001097 -0.0002443 0.0001879 -0.0007707 0.0001958 -0.0001813 -0.0004037 -0.0025831 0.0004135 -0.0008507 0.0002698 0.0000010 0.0000684 0.0008190 -0.0000058 0.0004048 0.0000838 0.0005599 0.0001498 0.0002814 0.0001357 0.0003329 0.0000189 0.0001051 0.0000156 -0.0001057 -0.0000533 0.0001848 0.0002603 0.0008118 0.0001066 0.0004967 0.0001587 0.0000769 0.0000492 0.0000721 0.0006277 -0.0005159 0.0003444 -0.0004136 0.0003756 -0.0004750 0.0007129 -0.0011876 0.0001934 -0.0003381 0.0000899 -0.0003299 0.0001606 -0.0001461 0.0000506 -0.0003790 0.0006326 -0.0006814 0.0001233 -0.0004580 0.0006781 -0.0003096 0.0002957 -0.0007705 0.0000374 -0.0002259 0.0000598 0.0001451 -0.0000107 -0.0001650 0.0001180 -0.0006850 0.0001420 -0.0006415 0.0001032 -0.0008749 0.0001806 0.0002070 0.0001456 -0.0008082 0.0001578 -0.0006438 0.0002457 -0.0004654 0.0000788 -0.0003480 0.0000359 -0.0002021 0.0000654 -0.0003603 0.0000911 -0.0010410 0.0000564 -0.0010896 0.0003124 0.0000398 -0.0001079 -0.0009285 0.0001598 -0.0005415 0.0005937 -0.0009462 -0.0001098 0.0001214 -0.0004719 -0.0002427 0.0002946 -0.0015139 -0.0005461 -0.0027754 -0.0000307 -0.0002022 0.0002636 -0.0005984 -0.0001146 -0.0003591 -0.0000003 -0.0002192 -0.0000571 0.0000676 0.0000575 -0.0000356 -0.0000614 -0.0002991
0.0000744 0.0002980 0.0000250 -0.0000312 0.0000120 -0.0001858 0.0004232 -0.0002330 0.0006514 -0.0002268 0.0003475 0.0003423 0.0000921 0.0003372 0.0003876 -0.0000349 0.0001575 0.0000248 0.0001168 0.0000747 0.0000752 0.0000617 0.0000462 0.0003799 0.0002716 0.0000190 0.0002338 -0.0002150 -0.0000475 -0.0000473 -0.0001458 0.0000940 0.0000386 0.0003308 0.0000777 0.0005409 0.0000600 0.0001975 0.0003189 0.0002103 0.0000319 0.0003051 0.0001753 0.0002647 -0.0000184 -0.0001267 0.0000293 0.0005657 0.0002802 0.0005964 0.0001954 0.0005781 -0.0000670 0.0021028 0.0001898 -0.0000591 0.0003154 0.0009783 0.0001879 -0.0003571 0.0001985 -0.0000079 0.0001044 0.0002036 0.0000453 -0.0001089 -0.0000976 -0.0005402 0.0001989 0.0004638 -0.0003846 0.0026301 0.0001531 0.0011324 -0.0001507 0.0009132 0.0004011 0.0000323 0.0002534 -0.0006058 0.0003625 0.0000161 0.0002199 -0.0006514 0.0001886 -0.0003293 0.0001044 -0.0003836 0.0000494 -0.0005015 0.0002240 -0.0003260 0.0003859 -0.0001171 0.0001245 -0.0004634 0.0000372 -0.0000150 0.0000984 -0.0004917 0.0001459 0.0001385 -0.0007663 -0.0031897 0.0003641 -0.0005799 0.0000016 -0.0000479 0.0000730 0.0014729 0.0000608 0.0006042 0.0000042 0.0007834 0.0000911 0.0006801 0.0001184 0.0005178 0.0000143 0.0004423 -0.0001168 0.0001063 0.0000064 0.0002347 0.0000045 0.0012085 0.0000709 0.0010018 0.0001569 0.0004308 0.0000317 0.0002920 0.0002627 -0.0000534 0.0003366 -0.0000279 0.0001029 0.0000479 0.0006636 -0.0007444 0.0001534 -0.0000821 0.0000551 -0.0000617 0.0000948 0.0001930 0.0000965 -0.0000617 0.0002089 -0.0001682 0.0000474 -0.0001536 0.0007760 -0.0005843 0.0001907 -0.0002615 -0.0000266 -0.0001327 0.0002480 0.0004856 -0.0000649 0.0000635 -0.0000799 -0.0005287 0.0000815 -0.0003879 0.0000826 -0.0005684 0.0002245 0.0002265 0.0000934 -0.0005240 0.0001451 -0.0003963 0.0002493 -0.0003619 -0.0000644 0.0000215 0.0000079 0.0000356 0.0000553 -0.0000723 0.0002145 -0.0008662 -0.0000957 -0.0007212 0.0001284 0.0003172 -0.0006720 -0.0005497 -0.0000325 -0.0001621 -0.0004164 -0.0003622 -0.0001754 0.0002948 -0.0000360 -0.0002504 0.0001919 -0.0012201 -0.0009135 -0.0033900 -0.0001112 -0.0000235 -0.0004974 0.0007548 -0.0000895 -0.0002380 0.0000320 -0.0000729 -0.0001644 0.0002452 0.0000425 0.0000471 -0.0000711 -0.0000759
0.0000274 0.0002950 0.0000169 0.0000725 -0.0000161 -0.0000890 0.0003483 -0.0001294 0.0005701 -0.0001597 0.0002579 0.0003939 0.0000709 0.0004557 0.0003614 0.0001042 0.0001437 0.0002160 0.0001209 0.0001696 0.0000352 -0.0000378 0.0000393 0.0002811 0.0001850 0.0002434 0.0002313 -0.0001794 -0.0000891 -0.0000194 -0.0001296 0.0001379 0.0000685 0.0005148 0.0000968 0.0005101 0.0000355 0.0003144 0.0002716 0.0003084 0.0000610 0.0002372 0.0002030 0.0002290 -0.0000118 -0.0000959 0.0000177 0.0006833 0.0002934 0.0006235 0.0000836 0.0002558 -0.0001527 0.0018286 0.0001044 -0.0002190 0.0002078 0.0013548 0.0001069 -0.0005774 0.0002733 0.0000254 0.0000866 0.0000652 0.0000638 -0.0000606 -0.0000858 -0.0005280 0.0001554 0.0003697 -0.0001840 0.0031238 0.0003096 0.0018975 -0.0004005 0.0005954 0.0003868 0.0000267 0.0001610 -0.0010906 0.0005039 -0.0000338 0.0003389 -0.0009483 0.0001432 -0.0005744 0.0000294 -0.0004389 -0.0001181 -0.0008415 0.0001616 -0.0004862 0.0002110 0.0000547 -0.0001154 -0.0002763 -0.0000411 0.0000419 -0.0000990 -0.0005869 0.0000626 0.0000199 -0.0010448 -0.0040129 0.0003242 -0.0006105 -0.0003338 0.0004270 0.0000371 0.0013686 0.0001781 0.0009688 -0.0000126 0.0008801 0.0000365 0.0006460 0.0000981 0.0004329 0.0000162 0.0003444 -0.0001037 0.0002226 -0.0000514 0.0002785 -0.0003138 0.0013129 0.0000187 0.0008817 0.0001073 0.0004310 -0.0000025 0.0002230 0.0010349 -0.0003422 0.0003020 -0.0000228 -0.0000297 0.0001747 0.0006092 -0.0005968 0.0001323 -0.0000077 0.0000386 -0.0000091 0.0000887 0.0002147 0.0000890 -0.0000281 0.0003637 -0.0001083 0.0000003 -0.0000999 0.0001818 -0.0000358 0.0002304 -0.0003410 -0.0000793 -0.0001112 0.0002923 0.0008130 -0.0000467 0.0002129 -0.0001978 -0.0003151 0.0000264 -0.0001875 0.0000552 -0.0003784 0.0000682 0.0004817 0.0001140 -0.0004096 0.0001225 -0.0002255 0.0001143 -0.0000795 -0.0000757 0.0002604 0.0000104 0.0001971 0.0000463 0.0000402 0.0002571 -0.0007058 0.0003073 -0.0006659 0.0002314 0.0003766 -0.0001352 -0.0008507 -0.0002612 0.0003011 -0.0006688 0.0002263 0.0002867 0.0000301 0.0002215 -0.0001109 0.0001198 -0.0007767 -0.0012251 -0.0037647 -0.0001428 0.0002309 0.0004774 0.0000654 -0.0000984 0.0000532 -0.0000246 0.0001020 -0.0001588 0.0004555 -0.0000343 0.0001812 -0.0000917 0.0002815
-0.0000070 0.0003504 -0.0000089 0.0001619 -0.0000231 0.0002920 0.0002649 -0.0000360 0.0004904 0.0000413 0.0001511 0.0005697 0.0000355 0.0007008 0.0002931 0.0002622 0.0000988 0.0003538 0.0000418 0.0003892 -0.0000490 0.0002336 -0.0000072 0.0006487 0.0000104 0.0005652 0.0002241 0.0001671 -0.0001347 0.0002325 -0.0000978 0.0003613 0.0000568 0.0006539 0.0000558 0.0008134 -0.0000047 0.0005504 0.0001274 0.0006032 0.0000349 0.0004677 0.0001862 0.0003874 0.0000018 0.0000360 -0.0000008 0.0008436 0.0002406 0.0008311 0.0000773 0.0002860 -0.0001834 0.0020103 0.0000973 -0.0000958 0.0002245 0.0017633 0.0000462 -0.0002802 0.0002599 0.0002946 0.0000308 0.0002906 0.0000617 0.0000987 -0.0000734 -0.0003151 0.0001319 0.0004923 -0.0003523 0.0027372 0.0002761 0.0018775 -0.0003520 0.0007805 0.0003390 0.0000270 0.0001312 -0.0008721 0.0003502 0.0000655 0.0002693 -0.0007795 0.0001527 -0.0005618 -0.0000020 -0.0003672 -0.0001121 -0.0007655 0.0001306 -0.0004551 0.0004027 0.0000244 -0.0001582 -0.0000427 0.0000427 0.0001107 -0.0001661 -0.0004109 0.0000907 0.0001662 -0.0011300 -0.0038938 0.0002942 -0.0005338 -0.0002283 0.0005255 -0.0000598 0.0009664 0.0001553 0.0009583 0.0000400 0.0008222 0.0001040 0.0006027 0.0000641 0.0003648 -0.0000233 0.0002837 -0.0001221 0.0002809 -0.0002017 0.0003123 -0.0000010 0.0008958 0.0000043 0.0006240 0.0000837 0.0003344 -0.0000312 0.0003638 0.0004999 -0.0001267 0.0002884 -0.0002076 0.0002058 -0.0002362 0.0006209 -0.0007076 0.0001384 -0.0000932 0.0000371 -0.0000435 0.0001547 0.0000318 -0.0000918 0.0000414 0.0005101 -0.0001449 0.0000443 -0.0002340 0.0000224 0.0003454 0.0001344 -0.0001925 -0.0001146 -0.0000162 0.0003347 0.0008987 -0.0000783 0.0002699 -0.0001732 -0.0003541 0.0000211 -0.0002583 0.0000363 -0.0004308 0.0001175 0.0005217 0.0001013 -0.0005231 0.0000777 -0.0002112 0.0000453 0.0001036 -0.0000741 0.0001298 -0.0000248 0.0001476 0.0000221 -0.0001162 0.0002159 -0.0008266 0.0003321 -0.0006390 0.0003859 0.0002674 0.0000549 -0.0009042 -0.0000126 0.0001610 0.0000313 0.0001077 0.0004259 -0.0001587 -0.0002152 0.0001595 0.0000455 -0.0006943 -0.0011963 -0.0038475 -0.0001203 0.0001938 0.0013170 -0.0009422 -0.0001082 0.0001126 -0.0001692 0.0002517 -0.0002348 0.0005396 -0.0000619 0.0001974 -0.0001203 0.0002834
-0.0000073 0.0003400 -0.0000430 0.0001753 -0.0000206 0.0002645 0.0002422 -0.0000509 0.0004230 0.0001273 0.0001296 0.0006126 -0.0000213 0.0007626 0.0002188 0.0002962 0.0000820 0.0003671 -0.0000140 0.0004850 -0.0000773 0.0003077 -0.0000564 0.0008238 0.0000225 0.0006083 0.0002363 0.0005044 -0.0001168 0.0002572 -0.0000653 0.0004752 0.0000461 0.0006854 0.0000148 0.0009072 -0.0000268 0.0005849 -0.0000137 0.0008034 0.0000148 0.0005418 0.0001747 0.0004506 0.0000463 0.0000745 -0.0000207 0.0008660 0.0001836 0.0008137 0.0000841 0.0004588 -0.0001380 0.0022724 0.0000685 0.0000642 0.0001792 0.0012870 0.0000064 -0.0000024 0.0000739 0.0001590 0.0000475 0.0004799 0.0000679 0.0002569 -0.0000710 -0.0000897 0.0001297 0.0006040 -0.0006486 0.0020444 0.0000735 0.0013385 -0.0001722 0.0011792 0.0002498 0.0002074 0.0000909 -0.0004909 0.0002893 0.0001927 0.0001583 -0.0006017 0.0001023 -0.0002530 -0.0000559 -0.0003051 -0.0000371 -0.0005961 0.0001611 -0.0002772 -0.0000216 0.0004765 -0.0001700 0.0001497 0.0000590 0.0002107 -0.0001188 -0.0002105 0.0000806 0.0003775 -0.0012316 -0.0036517 0.0002456 -0.0003286 -0.0002412 0.0005155 -0.0000765 0.0008733 0.0001191 0.0009248 0.0000139 0.0007354 0.0000219 0.0007063 0.0000351 0.0003777 -0.0002233 0.0004124 -0.0001144 0.0004188 -0.0001613 0.0003458 0.0003425 0.0004197 -0.0000373 0.0004725 0.0000772 0.0002238 -0.0000726 0.0003105 -0.0006537 0.0007160 0.0002233 -0.0002326 -0.0000306 -0.0001785 0.0005632 -0.0006566 0.0001417 -0.0001192 0.0000556 -0.0001002 0.0001846 -0.0000261 -0.0001447 0.0001287 0.0005299 -0.0002985 0.0000817 -0.0002348 0.0010076 -0.0005287 0.0002482 -0.0002037 -0.0000864 -0.0000536 0.0003843 0.0007328 -0.0001170 0.0002548 -0.0001123 -0.0005646 0.0000495 -0.0003392 0.0000506 -0.0004492 0.0002176 0.0004044 0.0000534 -0.0004484 0.0000731 -0.0001936 0.0001605 0.0000235 -0.0000839 -0.0000151 -0.0000833 0.0000683 0.0000381 -0.0001853 0.0001390 -0.0007775 0.0003616 -0.0008304 0.0002758 0.0003459 -0.0008876 -0.0000568 0.0000264 -0.0000336 0.0005871 -0.0001268 0.0002416 -0.0001018 -0.0000361 -0.0002927 0.0000444 -0.0008164 -0.0012790 -0.0039922 -0.0001204 0.0001181 0.0000344 0.0003759 -0.0000668 0.0000490 -0.0001612 0.0002622 -0.0000656 0.0002752 -0.0000247 0.0001338 -0.0002529 0.0002664
-0.0000077 0.0002407 -0.0000277 0.0001153 -0.0000736 -0.0000548 0.0002347 -0.0001032 0.0003476 0.0000812 0.0001147 0.0004213 -0.0000557 0.0005436 0.0001638 0.0002479 0.0000762 0.0002914 0.0000052 0.0003617 -0.0000820 0.0001379 -0.0000595 0.0004919 0.0001229 0.0003703 0.0002258 0.0006058 -0.0000891 0.0000917 -0.0000546 0.0003697 0.0000506 0.0005415 -0.0000027 0.0005165 -0.0000238 0.0003860 -0.0000806 0.0006775 0.0000141 0.0002568 0.0001436 0.0003061 -0.0000715 0.0000844 -0.0000388 0.0006652 0.0001545 0.0006198 0.0000293 0.0003531 -0.0001599 0.0021379 0.0000495 -0.0000226 0.0001190 0.0010070 0.0000198 -0.0001650 -0.0000207 -0.0000477 0.0000117 0.0003090 0.0000805 0.0002014 -0.0000590 -0.0000847 0.0000264 0.0004597 -0.0007070 0.0018135 0.0000450 0.0011829 -0.0002050 0.0010621 0.0002000 0.0002158 0.0000557 -0.0004541 0.0002764 0.0001558 0.0002725 -0.0006916 0.0001316 -0.0001915 -0.0001185 -0.0003454 0.0000430 -0.0006114 0.0001920 -0.0002418 -0.0001341 0.0003750 -0.0000180 -0.0000051 0.0000211 0.0002114 -0.0001986 -0.0000641 0.0000702 0.0003428 -0.0011735 -0.0036892 0.0002496 -0.0002552 -0.0002538 0.0004025 -0.0001291 0.0007650 0.0000816 0.0008445 -0.0000091 0.0006321 0.0000753 0.0006259 0.0000334 0.0003429 -0.0002830 0.0005406 -0.0000663 0.0004682 0.0000065 0.0004106 0.0004717 0.0002695 -0.0000716 0.0004412 0.0000494 0.0002921 -0.0000340 0.0001938 -0.0003288 0.0004234 0.0001741 -0.0000163 0.0001822 -0.0000438 0.0004826 -0.0003954 0.0001321 0.0000615 0.0000396 -0.0000150 0.0001635 0.0001135 -0.0000537 0.0001644 0.0002048 0.0000955 0.0000193 -0.0000395 0.0012146 -0.0008508 0.0002670 -0.0000612 -0.0000554 -0.0000541 0.0002039 0.0007882 -0.0000730 0.0002941 -0.0000228 -0.0004070 0.0000576 -0.0001868 0.0000553 -0.0002506 0.0000974 0.0004586 0.0000484 -0.0002541 0.0000651 -0.0000576 0.0001976 0.0000452 0.0000791 -0.0000477 -0.0001331 0.0001046 0.0000273 -0.0001124 0.0001000 -0.0006192 0.0006268 -0.0010960 0.0002260 0.0004530 -0.0004651 -0.0003175 -0.0001472 0.0000523 -0.0000810 -0.0000758 0.0000705 0.0000659 0.0000710 -0.0003837 0.0000531 -0.0007653 -0.0011906 -0.0037964 -0.0001640 0.0001508 -0.0002929 0.0007908 -0.0000884 0.0000559 0.0000796 0.0000731 -0.0000735 0.0002894 0.0000162 0.0001152 -0.0001600 0.0001942
-0.0000255 0.0002575 0.0000059 0.0000152 -0.0001468 -0.0001261 0.0002138 -0.0000715 0.0002884 0.0000689 0.0001013 0.0003535 -0.0000503 0.0003551 0.0001082 0.0002301 0.0000304 0.0002369 -0.0000086 0.0002706 -0.0001252 0.0000952 -0.0000411 0.0002551 0.0000657 0.0002967 0.0001893 0.0006374 -0.0001211 0.0000634 -0.0000504 0.0002997 0.0000252 0.0004341 -0.0000444 0.0002723 -0.0000171 0.0002857 0.0000750 0.0004124 -0.0000003 0.0001059 0.0000752 0.0002691 -0.0001760 0.0001512 -0.0000465 0.0005179 0.0001145 0.0005063 0.0000170 0.0003215 -0.0001983 0.0019950 0.0000507 -0.0000312 0.0000686 0.0008605 0.0000531 -0.0003288 -0.0000462 -0.0001942 -0.0000263 0.0001736 0.0000533 0.0000981 -0.0000705 -0.0001481 -0.0000175 0.0002733 -0.0007683 0.0013312 0.0000325 0.0009765 -0.0002391 0.0008827 0.0001922 0.0000138 0.0000457 -0.0005818 0.0000874 0.0001589 0.0000758 -0.0005723 0.0001762 -0.0004497 -0.0001109 -0.0005657 0.0000282 -0.0007013 0.0001989 -0.0003755 0.0002631 -0.0002237 0.0001390 -0.0002640 0.0000332 0.0001380 -0.0000347 -0.0003659 0.0000800 0.0001457 -0.0011110 -0.0037392 0.0002235 -0.0003404 -0.0002347 0.0002606 -0.0001508 0.0006128 0.0000464 0.0007567 -0.0000395 0.0005063 0.0002041 0.0003779 0.0000275 0.0002328 -0.0001693 0.0005166 -0.0000636 0.0004315 -0.0002075 0.0005292 0.0002649 0.0003351 -0.0000997 0.0003711 0.0000265 0.0002931 0.0000170 0.0000693 0.0000274 0.0000850 0.0002163 0.0000136 0.0004521 -0.0000881 0.0004670 -0.0003374 0.0001213 0.0001655 0.0000170 0.0000567 0.0001288 0.0001774 0.0000727 0.0001738 -0.0001508 0.0004341 -0.0000076 0.0000663 0.0009441 -0.0007562 -0.0002533 0.0003277 -0.0000987 0.0000032 0.0000166 0.0008413 -0.0001023 0.0003457 0.0000211 -0.0001668 0.0000226 0.0000129 0.0000072 -0.0000305 -0.0002265 0.0006278 -0.0000030 -0.0000449 0.0000826 0.0000869 0.0000852 0.0001632 0.0000004 0.0002279 -0.0001714 0.0002388 0.0000182 0.0000794 -0.0001120 -0.0001232 -0.0001720 -0.0001389 0.0001221 0.0005052 0.0000358 -0.0005774 -0.0002006 0.0002357 0.0000743 -0.0003902 -0.0000954 0.0002485 -0.0002644 0.0001476 0.0000966 -0.0005954 -0.0012064 -0.0034076 -0.0001344 0.0001590 0.0000876 0.0005115 -0.0000997 0.0001368 -0.0000407 0.0000777 -0.0001434 0.0004327 -0.0001450 0.0003852 -0.0001169 0.0002187
