-0.0000000 -0.0000000 -0.0000000 -0.0000000 -0.0000000 -0.0000000 -0.0000000 -0.0000000 -0.0000000 -0.0000000 -0.0000000 -0.0000000 -0.0000000 -0.0000000 -0.0000000 -0.0000000 -0.0000000 -0.0000000 -0.0000000 -0.0000000 -0.0000000 -0.0000000 -0.0000000 -0.0000000 -0.0000000 -0.0000000 -0.0000000 -0.0000000 -0.0000000 -0.0000000 -0.0000000 -0.0000000 -0.0000000 -0.0000000 -0.0000000 -0.0000000 -0.0000000 -0.0000000 -0.0000000 -0.0000000
-0.0000000 -0.0000000 -0.0000000 -0.0000000 -0.0000000 -0.0000000 -0.0000000 -0.0000000 -0.0000000 -0.0000000 -0.0000000 -0.0000000 -0.0000000 -0.0000000 -0.0000000 -0.0000000 -0.0000000 -0.0000000 -0.0000000 -0.0000000 -0.0000000 -0.0000000 -0.0000000 -0.0000000 -0.0000000 -0.0000000 -0.0000000 -0.0000000 -0.0000000 -0.0000000 -0.0000000 -0.0000000 -0.0000000 -0.0000000 -0.0000000 -0.0000000 -0.0000000 -0.0000000 -0.0000000 -0.0000000
-0.0000036 0.0000357 0.0000346 0.0000042 0.0000057 -0.0000035 -0.0000000 -0.0000064 -0.0000255 0.0000094 -0.0000085 0.0000130 -0.0004137 0.0005061 -0.0000194 0.0000459 -0.0001223 0.0006492 -0.0000549 0.0000561 -0.0000063 -0.0000329 -0.0000238 0.0000327 -0.0000081 0.0000028 0.0060780 -0.0081185 0.0033273 -0.0062940 -0.0033159 0.0060551 -0.0000030 0.0000144 0.0000405 -0.0000532 0.0027263 -0.0060629 0.0004833 -0.0038516
0.0000050 -0.0000759 0.0000314 -0.0000552 0.0000304 -0.0002792 -0.0000026 -0.0002303 0.0000548 -0.0001276 0.0000039 -0.0001225 -0.0002202 0.0000587 -0.0000604 0.0000083 0.0009365 -0.0001421 -0.0001800 0.0000403 -0.0000019 -0.0002440 -0.0000298 -0.0000849 0.0000047 -0.0000772 -0.0012437 0.0014562 -0.0024998 0.0082366 0.0034089 0.0022169 0.0000031 -0.0000421 -0.0000093 -0.0001117 -0.0180470 0.0129449 -0.0115328 -0.0015382
0.0000115 -0.0002063 -0.0000289 -0.0001368 0.0000148 -0.0003714 0.0000131 -0.0003345 0.0000821 -0.0001948 0.0000008 -0.0001998 -0.0000738 0.0000042 -0.0000648 -0.0000633 0.0018216 -0.0011453 -0.0001642 0.0000162 0.0000107 -0.0002567 0.0000065 -0.0001535 0.0000206 -0.0001018 0.0011018 -0.0086402 -0.0059723 0.0151806 -0.0055892 0.0149144 0.0000117 -0.0000598 0.0000912 -0.0002301 -0.0041200 -0.0053560 -0.0081479 0.0046859
0.0000125 -0.0001905 -0.0000050 -0.0001947 0.0000128 -0.0002915 0.0000131 -0.0002578 0.0000622 -0.0002017 -0.0000057 -0.0001765 -0.0004552 0.0003836 -0.0000458 -0.0000807 0.0001605 0.0004974 0.0000178 -0.0001548 0.0000033 -0.0001850 0.0000758 -0.0002347 0.0000176 -0.0000845 0.0072200 -0.0139213 -0.0064642 0.0060966 -0.0100706 0.0047116 0.0000103 -0.0000203 0.0001988 -0.0002260 0.0359493 -0.0810196 -0.0028417 0.0032088
0.0000160 -0.0001467 0.0000314 -0.0001702 0.0000179 -0.0001854 0.0000056 -0.0001464 -0.0000110 -0.0001503 0.0000036 -0.0001309 -0.0003412 -0.0002831 0.0000205 -0.0001424 0.0007548 -0.0012282 -0.0000159 -0.0000966 0.0000079 -0.0001254 0.0000856 -0.0002511 0.0000016 -0.0000486 0.0212863 -0.0439968 0.0040763 -0.0126199 0.0138349 -0.0259104 0.0000270 0.0000013 0.0000926 -0.0001492 0.0152269 -0.0190718 -0.0109531 0.0159084
0.0000193 -0.0000651 0.0000168 -0.0000909 0.0000124 -0.0000159 0.0000145 -0.0000113 0.0001285 -0.0002423 0.0000033 -0.0000487 0.0002242 -0.0005660 0.0000459 -0.0001344 0.0009106 -0.0018647 -0.0000605 -0.0000509 0.0000096 -0.0000277 0.0000729 -0.0001547 -0.0000068 -0.0000012 0.0130642 -0.0316398 0.0104725 -0.0230936 0.0037711 -0.0005208 0.0000219 0.0000570 0.0000675 -0.0000891 0.0007384 0.0043466 -0.0128583 0.0183657
0.0000172 0.0000227 -0.0000339 0.0000279 0.0000093 0.0001572 0.0000200 0.0001211 0.0001244 -0.0001553 -0.0000027 0.0000385 0.0004943 -0.0003357 -0.0000029 -0.0000235 0.0010098 -0.0011310 0.0000322 -0.0000792 -0.0000221 0.0001048 -0.0000718 0.0001389 -0.0000044 0.0000422 -0.0271566 0.0151007 -0.0041066 0.0045229 -0.0097634 0.0076918 0.0000200 0.0001061 0.0001018 -0.0000168 -0.0100993 0.0094970 -0.0006221 0.0035583
-0.0000010 0.0001329 -0.0000501 0.0001270 0.0000044 0.0003148 0.0000150 0.0002449 -0.0000446 0.0000949 -0.0000065 0.0001385 -0.0000090 0.0003034 -0.0000651 0.0001787 -0.0001763 0.0003537 0.0000139 0.0001182 -0.0000153 0.0002118 0.0001175 0.0000420 0.0000031 0.0000825 -0.0196429 0.0148401 -0.0020381 -0.0009983 -0.0077112 0.0098810 0.0000289 0.0001436 0.0001005 0.0000161 0.0035097 0.0002072 -0.0030042 0.0004542
-0.0000136 0.0002351 0.0000038 0.0001458 -0.0000091 0.0004800 0.0000110 0.0003532 -0.0002002 0.0003210 -0.0000147 0.0002301 0.0001965 0.0004801 0.0000180 0.0002195 -0.0003894 0.0004119 -0.0001704 0.0004250 -0.0000365 0.0002718 0.0001610 -0.0000150 0.0000128 0.0001124 -0.0043358 0.0032198 0.0125639 -0.0247882 0.0019447 0.0004508 0.0000286 0.0001534 0.0000974 0.0000245 0.0088055 -0.0067942 0.0149321 -0.0429476
-0.0000062 0.0001607 -0.0000083 0.0001476 0.0000027 0.0001995 0.0000019 0.0001177 -0.0001595 0.0002060 -0.0000188 0.0001175 -0.0004686 0.0007377 0.0000848 0.0000805 0.0005235 -0.0002464 -0.0002720 0.0004204 -0.0000632 0.0000791 -0.0000909 0.0001432 0.0000114 0.0000621 0.0032923 -0.0037862 0.0067080 -0.0093583 0.0103454 -0.0127547 0.0000181 0.0000893 0.0001255 -0.0000975 0.0032617 -0.0192719 0.0011292 0.0025274
0.0000031 -0.0000528 -0.0000062 0.0000024 0.0000317 -0.0002892 0.0000116 -0.0002754 -0.0000488 -0.0001084 0.0000009 -0.0001225 -0.0011134 0.0008020 -0.0000093 -0.0000290 0.0017583 -0.0011735 -0.0001418 0.0000492 -0.0000254 -0.0001681 -0.0002055 0.0002316 0.0000039 -0.0000234 0.0072059 -0.0064255 -0.0010041 -0.0014065 0.0020687 -0.0017951 0.0000303 0.0000010 0.0000167 -0.0001000 0.0007246 -0.0083606 -0.0045126 0.0128114
0.0000121 -0.0001523 -0.0000011 -0.0001121 0.0000403 -0.0003356 0.0000158 -0.0002823 -0.0000357 -0.0002152 0.0000109 -0.0001818 -0.0005010 0.0003712 -0.0000726 -0.0000395 0.0010840 -0.0006413 0.0000906 -0.0002040 -0.0000145 -0.0001736 -0.0000768 0.0000475 0.0000067 -0.0000469 0.0006683 -0.0049235 -0.0085019 0.0116136 -0.0045041 -0.0052910 0.0000230 0.0000021 -0.0001370 0.0000183 0.0032886 -0.0074925 -0.0151845 0.0160910
0.0000198 -0.0001594 -0.0000603 -0.0000550 0.0000332 -0.0002559 0.0000148 -0.0001891 -0.0000107 -0.0002133 0.0000116 -0.0001792 0.0003246 -0.0003490 -0.0000370 -0.0000725 -0.0026158 0.0017458 0.0000732 -0.0001406 -0.0000143 -0.0001124 0.0000124 -0.0001017 0.0000056 -0.0000370 -0.0093503 0.0020769 -0.0093789 0.0150304 -0.0106342 0.0131337 0.0000372 0.0000044 -0.0000716 -0.0000612 -0.0041327 0.0026316 -0.0220435 0.0282027
0.0000129 -0.0000973 -0.0000452 -0.0000553 0.0000209 -0.0001203 0.0000259 -0.0000914 0.0000175 -0.0001037 0.0000002 -0.0001232 0.0005218 -0.0005318 0.0000393 -0.0001332 -0.0010731 0.0005358 -0.0000830 -0.0000195 -0.0000098 -0.0000281 0.0000274 -0.0000464 0.0000081 -0.0000149 -0.0102336 0.0121762 0.0017225 -0.0030295 -0.0000899 0.0041315 0.0000418 0.0000235 -0.0000697 0.0000141 -0.0011719 0.0031383 -0.0123085 0.0227433
0.0000095 -0.0000033 0.0000058 -0.0000416 0.0000079 0.0000548 0.0000249 0.0000379 -0.0000072 0.0000312 -0.0000297 -0.0000011 0.0007795 -0.0005536 0.0000380 0.0000026 0.0010954 -0.0010906 0.0001387 -0.0001661 -0.0000145 0.0000661 -0.0000021 0.0000385 0.0000176 0.0000163 -0.0140897 0.0156801 0.0028239 -0.0024685 -0.0010821 0.0022538 0.0000175 0.0000852 -0.0001158 0.0001352 0.0053094 -0.0125597 -0.0123878 0.0286321
0.0000144 0.0000765 0.0000219 0.0000283 -0.0000159 0.0002329 0.0000100 0.0001764 0.0000209 0.0000477 -0.0000195 0.0000796 0.0004100 -0.0002188 -0.0000087 0.0001325 0.0018626 -0.0012456 0.0000020 0.0000928 -0.0000070 0.0001631 0.0000383 0.0000540 0.0000218 0.0000569 0.0056813 -0.0005278 -0.0014264 -0.0009541 -0.0136296 0.0182473 0.0000238 0.0001340 0.0000005 0.0001283 -0.0093272 0.0160138 -0.0043596 0.0208881
0.0000012 0.0001824 0.0000105 0.0001187 -0.0000139 0.0003394 0.0000012 0.0002715 -0.0000516 0.0001477 -0.0000002 0.0001115 -0.0000982 0.0001723 0.0000049 0.0001302 -0.0000386 0.0005177 -0.0001718 0.0002352 -0.0000208 0.0001083 0.0000792 0.0000201 0.0000291 0.0000377 0.0080755 -0.0005759 -0.0049269 -0.0038156 -0.0056946 0.0013248 0.0000379 0.0001146 -0.0001355 0.0001551 0.0005756 0.0068441 0.0085368 -0.0026031
-0.0000026 0.0000829 -0.0000093 0.0000326 0.0000051 0.0000268 0.0000174 -0.0000171 -0.0001169 0.0001678 -0.0000070 -0.0000293 0.0004558 -0.0006208 0.0000267 0.0000170 -0.0030663 0.0034145 0.0000803 -0.0001174 -0.0000381 -0.0001081 -0.0000286 0.0000290 0.0000186 -0.0000353 -0.0010175 0.0056043 -0.0078803 -0.0038823 0.0067716 -0.0300169 0.0000321 0.0000364 -0.0002144 -0.0000137 0.0059007 0.0019583 0.0083246 -0.0112912
0.0000057 -0.0001277 -0.0000501 -0.0000978 0.0000143 -0.0003574 0.0000191 -0.0003465 -0.0000128 -0.0000648 -0.0000232 -0.0001996 0.0007864 -0.0010541 0.0000556 -0.0001292 -0.0006535 0.0005419 0.0001917 -0.0002694 -0.0000159 -0.0002243 -0.0000213 -0.0000547 0.0000092 -0.0000843 0.0072347 -0.0126292 -0.0147467 0.0149789 0.0104297 -0.0376355 0.0000254 0.0000139 -0.0000393 -0.0002046 -0.0120527 0.0222929 0.0077407 -0.0183634
0.0000103 -0.0001680 -0.0000427 -0.0001354 0.0000135 -0.0003521 0.0000199 -0.0003199 0.0000483 -0.0002261 -0.0000029 -0.0002309 0.0002285 -0.0002479 0.0000212 -0.0001603 0.0031239 -0.0035673 0.0001433 -0.0002763 -0.0000044 -0.0002098 0.0000885 -0.0001532 0.0000174 -0.0000938 0.0008991 -0.0056881 -0.0108917 0.0167057 0.0043658 -0.0157936 0.0000415 0.0000314 0.0001369 -0.0003092 -0.0055900 0.0061030 0.0128295 -0.0212799
0.0000298 -0.0001520 0.0000024 -0.0001709 0.0000058 -0.0002459 0.0000427 -0.0002353 0.0000724 -0.0003027 0.0000140 -0.0002181 -0.0002821 0.0002899 -0.0000836 -0.0000773 0.0029921 -0.0019419 -0.0001467 -0.0000799 -0.0000181 -0.0001373 0.0001167 -0.0001357 0.0000275 -0.0000870 -0.0139071 0.0131218 0.0004121 -0.0021905 0.0004184 0.0021089 0.0000523 0.0000520 0.0000402 -0.0001574 0.0119821 -0.0201468 0.0146970 -0.0203932
0.0000363 -0.0000858 0.0000257 -0.0001326 0.0000096 -0.0000893 0.0000418 -0.0000920 0.0000341 -0.0002036 -0.0000208 -0.0001078 0.0001184 -0.0001776 -0.0000050 -0.0000959 0.0024170 -0.0014287 -0.0000276 -0.0000785 -0.0000357 -0.0000203 -0.0000368 -0.0000317 0.0000339 -0.0000559 0.0084903 -0.0113916 -0.0025721 -0.0060578 0.0098895 -0.0116193 0.0000664 0.0000842 -0.0001290 0.0001005 0.0124582 -0.0130436 -0.0027512 0.0095261
0.0000267 0.0000315 0.0000128 -0.0000079 0.0000229 0.0000855 0.0000328 0.0000702 0.0000647 -0.0001013 -0.0000386 0.0000049 -0.0000814 -0.0002036 0.0001005 -0.0000729 0.0021456 -0.0019367 0.0002274 -0.0001461 -0.0000389 0.0000868 -0.0000795 0.0000536 0.0000502 -0.0000220 0.0095816 -0.0166261 0.0064196 -0.0192818 0.0144689 -0.0243048 0.0000778 0.0001353 0.0000355 0.0000638 0.0022262 0.0078215 -0.0068071 0.0173998
0.0000200 0.0001629 0.0000346 0.0000771 0.0000099 0.0002875 0.0000360 0.0002233 0.0000568 0.0000597 -0.0000195 0.0000859 0.0003908 -0.0004455 0.0000592 0.0000419 0.0005539 -0.0005042 0.0000778 -0.0000322 -0.0000265 0.0001894 -0.0000667 0.0001233 0.0000395 0.0000322 -0.0012368 -0.0055404 -0.0032704 0.0049641 0.0028806 -0.0044829 0.0001001 0.0001811 -0.0000304 0.0001320 -0.0081535 0.0122215 0.0027319 0.0013158
0.0000131 0.0002822 0.0000741 0.0001318 0.0000029 0.0004257 0.0000319 0.0003291 -0.0000703 0.0002837 -0.0000277 0.0001732 0.0011676 -0.0009073 0.0000027 0.0001532 -0.0016913 0.0012424 -0.0000668 0.0000462 -0.0000330 0.0001217 -0.0001002 0.0000902 0.0000249 0.0000398 0.0050738 -0.0076397 -0.0151533 0.0206468 -0.0006461 -0.0014979 0.0001062 0.0001925 -0.0001510 0.0000929 -0.0005337 0.0015122 0.0051200 0.0017181
0.0000180 0.0001616 0.0000342 0.0000843 0.0000369 0.0000904 0.0000364 0.0000357 -0.0000985 0.0002204 -0.0000389 0.0000479 0.0004092 -0.0002513 -0.0000442 0.0001249 -0.0027190 0.0015470 -0.0002642 0.0001882 -0.0000542 -0.0001035 0.0000087 -0.0001388 0.0000264 -0.0000402 0.0066296 -0.0023560 -0.0034610 0.0034750 -0.0055232 -0.0050561 0.0000850 0.0001235 -0.0001494 -0.0000758 0.0028589 0.0074833 0.0072097 -0.0046240
0.0000363 -0.0000792 -0.0000224 -0.0000631 0.0000471 -0.0003185 0.0000421 -0.0003207 -0.0000437 -0.0000143 -0.0000126 -0.0001872 0.0002035 -0.0003222 -0.0000128 -0.0001898 -0.0013930 -0.0002463 -0.0001624 -0.0000794 -0.0000491 -0.0002085 0.0000557 -0.0001991 0.0000326 -0.0001081 -0.0008550 0.0025579 -0.0074721 0.0062969 0.0022629 -0.0051923 0.0000722 0.0000756 -0.0001251 -0.0001546 0.0028388 -0.0010417 0.0004163 -0.0093574
0.0000399 -0.0001339 -0.0000748 -0.0000901 0.0000360 -0.0003308 0.0000464 -0.0003070 0.0000350 -0.0001604 0.0000112 -0.0002370 0.0003855 -0.0008951 0.0000183 -0.0002468 -0.0015414 -0.0000424 -0.0000398 -0.0002509 -0.0000324 -0.0001922 0.0001083 -0.0002260 0.0000465 -0.0001289 -0.0058528 0.0066027 -0.0119335 0.0044086 0.0071873 -0.0009712 0.0000740 0.0001332 -0.0000350 -0.0002101 -0.0004291 -0.0155597 -0.0075818 0.0052981
0.0000449 -0.0001202 -0.0000742 -0.0000731 0.0000550 -0.0002652 0.0000546 -0.0002132 0.0000339 -0.0001365 -0.0000007 -0.0001715 -0.0007377 0.0001766 -0.0000668 -0.0000751 -0.0019732 0.0006874 -0.0001878 -0.0000162 -0.0000368 -0.0001126 -0.0000678 -0.0001033 0.0000611 -0.0001267 -0.0015255 0.0061744 0.0019885 0.0025996 0.0084242 -0.0091647 0.0000933 0.0001724 -0.0001204 -0.0000511 -0.0012765 -0.0083870 -0.0075822 0.0128709
0.0000293 -0.0000386 0.0000004 -0.0000830 0.0000492 -0.0001149 0.0000475 -0.0000641 0.0000054 -0.0001247 -0.0000016 -0.0000775 -0.0013019 0.0010138 -0.0001668 0.0000464 0.0003587 -0.0001579 -0.0002101 0.0000827 -0.0000303 -0.0000159 -0.0002359 0.0000916 0.0000737 -0.0001042 -0.0079638 0.0062876 -0.0017126 0.0168016 0.0077418 -0.0231997 0.0001068 0.0001725 -0.0001315 -0.0000104 0.0047036 -0.0229486 -0.0019637 0.0063477
0.0000179 0.0000581 0.0000319 -0.0000481 0.0000224 0.0000797 0.0000476 0.0000942 -0.0000272 -0.0000652 0.0000128 0.0000303 -0.0004596 0.0004519 -0.0001557 0.0001130 0.0020144 -0.0015894 -0.0002853 0.0001692 -0.0000258 0.0000922 -0.0001824 0.0001344 0.0000678 -0.0000436 -0.0035838 -0.0138498 -0.0094663 0.0178796 0.0142209 -0.0355770 0.0001166 0.0002115 -0.0000633 0.0000939 0.0154822 -0.0433383 -0.0044459 -0.0053369
0.0000225 0.0001399 -0.0000165 0.0000803 0.0000130 0.0002554 0.0000435 0.0002449 -0.0001073 0.0001938 0.0000008 0.0001618 -0.0006163 0.0005139 -0.0001278 0.0001975 0.0021020 -0.0021749 -0.0002607 0.0001730 -0.0000185 0.0001978 -0.0001930 0.0001876 0.0000578 0.0000277 -0.0145355 0.0123162 -0.0004748 0.0014699 0.0189785 -0.0340563 0.0001226 0.0002571 -0.0000566 0.0001958 0.0136405 -0.0326379 -0.0057269 -0.0034695
0.0000058 0.0002541 -0.0000739 0.0001999 0.0000108 0.0004206 0.0000272 0.0003973 0.0000020 0.0001899 -0.0000240 0.0002816 -0.0001978 0.0001202 -0.0001758 0.0003686 -0.0003911 -0.0003330 -0.0000449 0.0001207 -0.0000345 0.0001765 -0.0001669 0.0002308 0.0000483 0.0000491 -0.0141046 0.0161088 0.0108883 -0.0214596 0.0085797 -0.0236125 0.0001077 0.0002361 -0.0001417 0.0001355 0.0120177 -0.0183815 0.0058894 -0.0165561
-0.0000026 0.0001529 -0.0000161 0.0000958 0.0000350 0.0001403 0.0000259 0.0001234 -0.0000493 0.0001353 -0.0000179 0.0001550 0.0009912 -0.0005740 -0.0001031 0.0002506 -0.0024631 0.0019090 0.0001151 -0.0000970 -0.0000571 -0.0000505 -0.0001528 0.0001849 0.0000471 -0.0000320 -0.0104658 0.0066959 -0.0063260 0.0092030 -0.0076336 0.0054244 0.0000830 0.0001048 -0.0001779 -0.0000063 0.0088562 -0.0005313 0.0061658 -0.0081381
-0.0000009 -0.0001171 0.0000109 -0.0001270 0.0000672 -0.0003128 0.0000335 -0.0002988 -0.0000999 0.0000219 0.0000012 -0.0000838 0.0005516 -0.0000469 -0.0000186 -0.0000843 0.0006182 -0.0003632 0.0000250 -0.0002360 -0.0000360 -0.0002588 -0.0001458 0.0000183 0.0000539 -0.0001427 -0.0020421 -0.0004478 -0.0115288 0.0185886 -0.0013537 0.0051968 0.0000416 -0.0000129 -0.0001372 -0.0000859 -0.0002892 0.0138297 0.0062733 -0.0036742
-0.0000048 -0.0002204 0.0000032 -0.0002472 0.0000669 -0.0003603 0.0000324 -0.0003347 0.0001363 -0.0003252 -0.0000049 -0.0001389 -0.0004870 0.0004849 -0.0000149 -0.0001453 0.0010044 -0.0012568 -0.0000250 -0.0002760 -0.0000203 -0.0002981 -0.0000238 -0.0002103 0.0000483 -0.0001827 0.0003710 -0.0074805 -0.0035006 -0.0029350 0.0052458 -0.0007337 0.0000109 -0.0000310 -0.0001670 -0.0000415 -0.0110346 0.0064897 0.0201242 -0.0397136
-0.0000145 -0.0002034 0.0000448 -0.0002659 0.0000641 -0.0003062 0.0000340 -0.0002773 0.0001234 -0.0003975 0.0000009 -0.0001582 -0.0005130 0.0003572 -0.0000565 -0.0000863 -0.0019638 0.0016583 -0.0001062 -0.0001344 -0.0000096 -0.0002628 -0.0000066 -0.0002378 0.0000469 -0.0001738 0.0061197 -0.0173661 0.0019106 -0.0322074 0.0098217 -0.0073429 0.0000230 -0.0000413 -0.0000770 -0.0001309 -0.0086091 -0.0186885 0.0127344 -0.0221679
-0.0000089 -0.0001491 -0.0000022 -0.0001442 0.0000519 -0.0001847 0.0000367 -0.0001752 -0.0001289 -0.0001085 0.0000008 -0.0001281 0.0000157 -0.0000097 -0.0000158 -0.0001368 -0.0006020 0.0006080 -0.0000441 -0.0000990 -0.0000232 -0.0001567 -0.0001161 -0.0001069 0.0000520 -0.0001558 0.0027595 -0.0126276 0.0091113 -0.0311702 0.0077591 -0.0161354 0.0000290 -0.0000334 0.0000501 -0.0001071 -0.0029687 0.0005084 0.0015587 -0.0035418
-0.0000014 -0.0000647 -0.0000185 -0.0000724 0.0000327 -0.0000139 0.0000163 -0.0000237 -0.0000877 0.0000125 -0.0000051 -0.0000463 -0.0000546 0.0000320 -0.0000048 -0.0001204 -0.0005264 -0.0001181 0.0002141 -0.0002717 -0.0000354 -0.0000318 -0.0000845 -0.0000911 0.0000476 -0.0001073 0.0026923 -0.0000144 0.0133989 -0.0243615 -0.0001734 -0.0116568 0.0000226 0.0000060 0.0000040 0.0000613 0.0024874 0.0014923 -0.0046100 0.0004181
-0.0000084 -0.0000016 0.0000177 -0.0000609 0.0000532 -0.0000163 -0.0000027 -0.0000223 -0.0000155 -0.0000316 -0.0000162 -0.0000309 0.0000207 -0.0000047 -0.0001111 0.0000291 -0.0024566 0.0014424 0.0001186 -0.0001036 -0.0000373 -0.0001103 0.0000049 -0.0002541 0.0000576 -0.0001390 0.0113269 -0.0107844 0.0080660 -0.0120799 0.0099383 -0.0234970 0.0000141 -0.0000219 -0.0000837 -0.0000159 0.0132371 -0.0214965 -0.0041875 -0.0075641
-0.0000091 -0.0001173 0.0000105 -0.0001190 0.0000694 -0.0003169 0.0000052 -0.0002985 -0.0001063 -0.0000475 0.0000074 -0.0001948 0.0001597 -0.0003636 -0.0000742 -0.0001055 -0.0017089 0.0009474 0.0000807 -0.0002568 -0.0000375 -0.0003126 -0.0001551 -0.0002128 0.0000631 -0.0002463 0.0050111 -0.0126206 -0.0039816 0.0017368 0.0054531 -0.0080024 0.0000010 -0.0000682 0.0000162 -0.0002722 0.0007619 -0.0092216 0.0108121 -0.0245448
-0.0000106 -0.0002700 -0.0000115 -0.0002734 0.0000508 -0.0005065 0.0000120 -0.0004751 -0.0000938 -0.0001854 0.0000170 -0.0003167 -0.0009151 0.0003127 0.0000497 -0.0003147 -0.0003679 -0.0008342 0.0001147 -0.0005167 -0.0000131 -0.0003595 -0.0003070 -0.0000589 0.0000673 -0.0002726 -0.0071526 -0.0023610 -0.0080659 -0.0040462 0.0028761 0.0069638 0.0000001 -0.0000862 0.0001874 -0.0004091 -0.0169517 0.0210850 0.0030476 -0.0015069
-0.0000034 -0.0002773 -0.0000275 -0.0002873 0.0000393 -0.0004626 0.0000037 -0.0004330 -0.0000455 -0.0002486 0.0000014 -0.0003118 -0.0004029 -0.0003460 -0.0000025 -0.0002496 -0.0008941 0.0001580 -0.0000842 -0.0003035 0.0000027 -0.0003027 -0.0000553 -0.0002681 0.0000790 -0.0002503 -0.0075113 0.0052147 0.0119514 -0.0253548 -0.0013059 0.0109854 0.0000013 -0.0000624 0.0002305 -0.0004144 -0.0003487 0.0035028 -0.0086281 0.0108280
-0.0000018 -0.0002263 -0.0000808 -0.0001859 0.0000470 -0.0003672 -0.0000013 -0.0003369 -0.0000361 -0.0002410 0.0000039 -0.0002804 -0.0000108 -0.0003097 0.0000247 -0.0002485 -0.0009254 0.0007695 -0.0001690 -0.0001691 -0.0000078 -0.0001954 -0.0000106 -0.0001879 0.0000829 -0.0002202 0.0034625 -0.0060043 0.0117145 -0.0202808 -0.0139827 0.0170519 0.0000043 -0.0000033 0.0000986 -0.0002668 0.0032724 -0.0115318 -0.0000129 -0.0108552
0.0000004 -0.0001398 -0.0000544 -0.0001536 0.0000614 -0.0001913 -0.0000120 -0.0001813 -0.0000431 -0.0001482 -0.0000065 -0.0001832 -0.0003162 0.0001057 0.0000882 -0.0002651 0.0014564 -0.0016844 -0.0001246 -0.0001898 -0.0000164 -0.0000792 -0.0000593 -0.0001178 0.0000873 -0.0001746 0.0063502 -0.0174080 -0.0082028 0.0014609 -0.0066661 -0.0043078 0.0000331 0.0000311 -0.0000219 -0.0000671 -0.0198273 0.0180290 0.0069147 -0.0093471
-0.0000083 -0.0000397 0.0000149 -0.0001911 0.0000522 -0.0000019 -0.0000125 -0.0000322 0.0000216 -0.0001435 -0.0000190 -0.0000750 -0.0000243 -0.0003471 -0.0000176 -0.0000930 0.0043569 -0.0042244 -0.0001670 0.0000717 0.0000028 0.0000051 0.0000290 -0.0002142 0.0000828 -0.0001231 -0.0078366 -0.0075316 -0.0076316 0.0137140 0.0022403 -0.0234766 0.0000687 0.0000837 -0.0001248 0.0001364 -0.0121908 0.0139420 0.0074353 -0.0064313
-0.0000221 0.0000585 -0.0000253 -0.0000472 0.0000306 0.0001902 -0.0000105 0.0001215 0.0000356 -0.0000756 -0.0000185 0.0000369 -0.0000190 -0.0000751 0.0000238 -0.0000275 0.0009767 -0.0014837 -0.0001859 0.0001564 -0.0000009 0.0001172 0.0000285 -0.0000796 0.0000750 -0.0000859 -0.0071412 -0.0061289 -0.0039845 0.0075736 -0.0077051 0.0043391 0.0000737 0.0001385 -0.0001492 0.0002342 -0.0052939 0.0071078 -0.0004044 0.0014033
-0.0000238 0.0001213 0.0000019 0.0000450 0.0000512 0.0001613 -0.0000335 0.0001047 0.0000620 -0.0000357 -0.0000171 0.0000619 -0.0003140 0.0002365 -0.0000351 -0.0000118 -0.0009862 0.0003881 -0.0002257 0.0002221 -0.0000196 -0.0000131 -0.0000320 -0.0000897 0.0000783 -0.0001218 0.0046071 -0.0129744 -0.0149087 0.0106261 -0.0012594 -0.0053495 0.0000576 0.0001174 -0.0000790 0.0000288 -0.0049263 0.0018811 -0.0101479 0.0164738
-0.0000221 -0.0000394 -0.0000257 -0.0000293 0.0000718 -0.0002362 -0.0000352 -0.0002476 0.0000746 -0.0002239 -0.0000184 -0.0001231 -0.0009285 0.0007361 -0.0000995 -0.0000805 0.0012211 -0.0007384 -0.0001347 0.0000136 -0.0000075 -0.0003075 -0.0001116 -0.0001685 0.0000765 -0.0002272 0.0100000 -0.0217063 -0.0067885 0.0100507 0.0048748 -0.0068943 0.0000575 0.0000434 -0.0000999 -0.0001578 0.0001991 -0.0032372 -0.0046283 0.0082755
-0.0000126 -0.0002758 -0.0000654 -0.0001557 0.0000559 -0.0005263 -0.0000047 -0.0005226 -0.0000724 -0.0002927 0.0000075 -0.0003259 -0.0004336 0.0003983 -0.0000465 -0.0002075 0.0003378 0.0005032 0.0000519 -0.0003767 -0.0000086 -0.0003743 -0.0002051 -0.0001675 0.0000827 -0.0003039 0.0025651 -0.0245045 -0.0031984 0.0023580 -0.0016200 0.0116318 0.0000508 0.0000074 0.0000029 -0.0002759 0.0059914 0.0042908 -0.0037038 0.0036900
-0.0000170 -0.0003126 -0.0000652 -0.0002455 0.0000529 -0.0005213 0.0000042 -0.0005162 -0.0000780 -0.0003374 0.0000069 -0.0003393 0.0002471 -0.0002012 -0.0000599 -0.0003019 0.0023895 -0.0026167 0.0000380 -0.0003824 -0.0000138 -0.0003546 -0.0001972 -0.0002225 0.0001042 -0.0003376 -0.0097961 -0.0004395 0.0060986 -0.0180363 -0.0006880 0.0113551 0.0000602 0.0000409 0.0000774 -0.0003329 0.0081152 0.0005331 -0.0018493 0.0059889
-0.0000196 -0.0002720 -0.0000470 -0.0002566 0.0000485 -0.0004147 -0.0000050 -0.0004011 -0.0000383 -0.0003412 -0.0000013 -0.0002898 0.0003693 -0.0005267 0.0000349 -0.0004741 0.0010773 -0.0024153 -0.0000154 -0.0003985 0.0000048 -0.0002883 -0.0000648 -0.0002627 0.0001053 -0.0003144 -0.0098606 0.0117118 -0.0004340 0.0056534 0.0061012 -0.0046473 0.0001309 0.0001607 0.0001107 -0.0003300 -0.0038767 0.0031922 0.0013024 0.0071696
-0.0000119 -0.0002040 0.0000063 -0.0002289 0.0000470 -0.0002464 -0.0000089 -0.0002272 0.0000050 -0.0002510 0.0000095 -0.0002021 -0.0002417 -0.0000251 0.0000344 -0.0004132 -0.0010332 -0.0000308 -0.0000561 -0.0003479 -0.0000005 -0.0001472 -0.0000026 -0.0003160 0.0001015 -0.0002463 -0.0070982 0.0038685 -0.0088137 0.0235591 -0.0011650 -0.0018754 0.0002136 0.0003967 0.0002332 -0.0003767 0.0041232 -0.0105950 -0.0001859 0.0008371
-0.0000144 -0.0001152 -0.0000103 -0.0001221 0.0000532 -0.0000651 0.0000024 -0.0000634 0.0000247 -0.0001404 0.0000094 -0.0000813 -0.0006927 0.0003301 -0.0001709 -0.0000617 0.0002286 -0.0010242 -0.0002255 -0.0000847 -0.0000156 -0.0000248 0.0000316 -0.0002808 0.0001193 -0.0001946 -0.0000035 -0.0014684 -0.0063330 0.0099908 -0.0100606 0.0121914 0.0003759 0.0008412 0.0003016 -0.0003764 0.0240231 -0.0363324 0.0056364 -0.0048798
-0.0000209 -0.0000093 -0.0000296 0.0000135 0.0000455 0.0001434 0.0000207 0.0001231 -0.0000119 -0.0000222 0.0000109 0.0000484 -0.0007462 0.0000426 -0.0001990 0.0000520 0.0023080 -0.0027792 -0.0003136 0.0001202 -0.0000071 0.0000766 -0.0001349 -0.0000291 0.0001317 -0.0001193 0.0015034 -0.0000063 -0.0129823 0.0066040 -0.0054942 0.0006586 0.0005585 0.0012658 0.0001173 -0.0002228 0.0209559 -0.0326733 0.0164456 -0.0204431
-0.0000110 0.0001058 -0.0000545 0.0001275 0.0000377 0.0003475 0.0000209 0.0003337 0.0000332 0.0000279 0.0000195 0.0001850 -0.0005889 -0.0000371 -0.0000283 -0.0000985 0.0033688 -0.0036764 -0.0001297 0.0001858 -0.0000166 0.0002028 -0.0000914 -0.0000864 0.0001335 -0.0000242 0.0032623 -0.0017061 -0.0112621 0.0072915 0.0071410 -0.0099675 0.0006092 0.0014044 -0.0002326 0.0000944 0.0050811 -0.0150437 0.0254190 -0.0351555
-0.0000086 0.0002454 -0.0000723 0.0002866 0.0000344 0.0005411 0.0000155 0.0004978 0.0000439 0.0001015 -0.0000042 0.0002995 -0.0000727 -0.0000112 0.0000463 -0.0000578 0.0017208 -0.0026264 0.0001174 0.0001537 -0.0000313 0.0001595 0.0001381 -0.0002123 0.0001374 0.0000288 0.0006981 -0.0012833 -0.0128233 0.0150268 0.0095803 -0.0078929 0.0005651 0.0013234 -0.0002161 0.0000148 0.0067780 -0.0165688 0.0066820 0.0010607
-0.0000110 0.0001639 -0.0001006 0.0003552 0.0000561 0.0002678 0.0000183 0.0001776 0.0000994 0.0000748 -0.0000129 0.0001571 -0.0002716 0.0000422 0.0000309 -0.0001328 0.0011581 -0.0013154 0.0000362 0.0001690 -0.0000271 -0.0001167 0.0001813 -0.0001634 0.0001732 0.0000113 0.0001315 -0.0023154 -0.0163125 0.0223227 0.0029176 -0.0120896 0.0005345 0.0011992 -0.0000635 -0.0003154 -0.0017337 0.0062808 -0.0077846 0.0091179
0.0000027 -0.0000885 -0.0000748 0.0001641 0.0000828 -0.0001780 0.0000284 -0.0002491 0.0001302 -0.0000865 0.0000255 -0.0001141 0.0001906 -0.0009022 -0.0000907 -0.0002891 -0.0027515 0.0020007 -0.0000110 0.0002143 -0.0000360 -0.0002802 0.0001435 -0.0002250 0.0001997 -0.0000116 0.0118028 -0.0145907 0.0053655 -0.0026897 0.0005870 -0.0114708 0.0006631 0.0013462 -0.0002433 -0.0002813 -0.0082737 0.0154309 0.0028814 -0.0033041
0.0000076 -0.0001786 -0.0000527 0.0000425 0.0000981 -0.0002005 0.0000259 -0.0002307 0.0001376 -0.0002825 0.0000389 -0.0001616 0.0005002 -0.0013692 -0.0001403 -0.0004049 -0.0035243 0.0017707 0.0000700 0.0001158 -0.0000364 -0.0003223 -0.0000538 -0.0001124 0.0001874 -0.0000015 0.0157070 -0.0150854 0.0074702 -0.0143967 0.0026020 -0.0072619 0.0007938 0.0014790 -0.0003000 -0.0002087 0.0021171 -0.0120749 0.0031508 0.0046429
-0.0000073 -0.0001787 -0.0001052 -0.0000015 0.0001220 -0.0000944 0.0000251 -0.0001349 0.0001127 -0.0003471 0.0000339 -0.0001035 0.0003684 -0.0007739 -0.0000972 -0.0005093 -0.0009321 -0.0003517 0.0000310 0.0000467 -0.0000178 -0.0003390 -0.0000904 -0.0000523 0.0002007 0.0000148 0.0109518 -0.0095744 -0.0073677 -0.0141634 0.0025711 -0.0075955 0.0008000 0.0014294 -0.0001562 -0.0003426 0.0000488 -0.0100196 -0.0041912 0.0112126
0.0000026 -0.0001600 -0.0001403 -0.0000180 0.0001223 0.0000724 0.0000240 -0.0000285 0.0000235 -0.0001784 0.0000319 -0.0000286 0.0005625 -0.0007998 -0.0000414 -0.0005229 0.0003804 -0.0020544 0.0001246 0.0000843 -0.0000192 -0.0002703 0.0000216 -0.0001059 0.0002190 0.0001046 0.0080052 -0.0151882 -0.0040395 -0.0012475 0.0022440 0.0027928 0.0006936 0.0012063 -0.0002153 -0.0003493 -0.0058446 0.0036810 0.0005526 0.0048925
0.0000015 -0.0000933 -0.0001423 0.0000968 0.0000999 0.0002914 0.0000171 0.0000853 -0.0000807 0.0000802 0.0000411 0.0000292 0.0003389 -0.0008698 -0.0000579 -0.0004775 0.0012959 -0.0021002 0.0001556 0.0002603 -0.0000242 -0.0001765 0.0000103 -0.0000777 0.0002235 0.0002474 0.0020473 -0.0049371 -0.0045576 0.0033401 0.0010796 0.0111335 0.0005138 0.0008059 -0.0002717 -0.0002987 -0.0126074 0.0108336 0.0079503 -0.0083217
-0.0000070 -0.0000039 -0.0001308 0.0001691 0.0000891 0.0004856 0.0000018 0.0002249 -0.0000466 0.0001096 0.0000484 0.0001133 -0.0002585 -0.0002633 -0.0001543 -0.0002857 0.0004128 -0.0003974 -0.0000814 0.0006480 -0.0000150 -0.0001907 -0.0001021 0.0000998 0.0002410 0.0003375 0.0121885 -0.0087851 0.0067424 -0.0122691 -0.0013317 0.0033211 0.0003934 0.0004991 -0.0002601 -0.0003310 -0.0252280 0.0193414 -0.0041097 0.0063253
-0.0000037 -0.0000767 -0.0001450 0.0001483 0.0001138 0.0002676 -0.0000109 0.0000423 0.0000079 0.0000366 0.0000581 0.0000296 -0.0006646 0.0000879 -0.0001727 -0.0002736 0.0004364 -0.0000094 -0.0001876 0.0006931 -0.0000154 -0.0003711 -0.0000558 0.0000497 0.0002570 0.0003117 0.0157051 -0.0112576 -0.0001418 0.0030691 0.0079405 -0.0263156 0.0003207 0.0003078 -0.0000701 -0.0005086 -0.0066293 0.0034906 -0.0110588 0.0078803
0.0000008 -0.0002528 -0.0001090 0.0000533 0.0001286 -0.0000671 -0.0000014 -0.0002389 -0.0000666 0.0000148 0.0000519 -0.0001222 -0.0002115 -0.0002392 -0.0000722 -0.0004967 -0.0018178 0.0009905 0.0001039 0.0002150 -0.0000178 -0.0004683 0.0000854 -0.0001998 0.0002668 0.0002576 0.0011566 -0.0021341 -0.0181194 0.0204295 0.0028643 -0.0090469 0.0003022 0.0002700 -0.0000570 -0.0005822 -0.0004738 0.0055557 -0.0231287 0.0107801
0.0000028 -0.0002960 -0.0001056 -0.0000123 0.0001241 -0.0000740 0.0000030 -0.0002049 0.0000125 -0.0001453 0.0000502 -0.0001289 0.0004491 -0.0007939 0.0000221 -0.0005710 -0.0015042 0.0002374 0.0000736 0.0002004 -0.0000120 -0.0004503 0.0000533 -0.0001510 0.0002694 0.0002638 0.0023483 -0.0069097 -0.0111142 0.0024967 -0.0032552 0.0017679 0.0002849 0.0002801 -0.0002288 -0.0004855 -0.0016168 0.0058967 -0.0051657 -0.0008082
0.0000073 -0.0002845 -0.0001186 -0.0000228 0.0001131 0.0000105 -0.0000069 -0.0001029 0.0000136 -0.0001454 0.0000524 -0.0001020 0.0002325 -0.0010908 -0.0000755 -0.0004119 0.0009038 -0.0013356 -0.0000002 0.0003484 -0.0000259 -0.0003759 -0.0001464 0.0001258 0.0002629 0.0003016 0.0140868 -0.0246991 0.0047244 -0.0120430 -0.0061391 0.0012345 0.0002728 0.0002242 -0.0002489 -0.0003819 -0.0012445 0.0006575 0.0130064 -0.0276163
0.0000223 -0.0002498 -0.0000981 -0.0000186 0.0001105 0.0001421 -0.0000206 0.0000306 0.0000060 -0.0001472 0.0000625 -0.0000452 -0.0003384 -0.0003876 -0.0001028 -0.0003173 -0.0006531 -0.0001801 0.0002075 0.0002769 -0.0000307 -0.0002713 -0.0000877 0.0001406 0.0002667 0.0003351 0.0139925 -0.0249430 0.0092955 -0.0154765 -0.0059271 0.0104292 0.0002594 0.0001507 -0.0001492 -0.0003641 -0.0019915 0.0002254 0.0129818 -0.0330869
0.0000129 -0.0001563 -0.0000471 -0.0000508 0.0001038 0.0003061 -0.0000270 0.0001731 -0.0000005 -0.0000510 0.0000465 0.0000487 -0.0002986 0.0001761 -0.0000069 -0.0003544 0.0003401 -0.0005783 0.0000761 0.0004423 -0.0000220 -0.0002402 0.0000785 0.0000446 0.0002711 0.0003455 0.0021140 -0.0037188 0.0064442 -0.0229203 -0.0062928 0.0112694 0.0001976 0.0000442 0.0000403 -0.0004961 -0.0111455 0.0112910 0.0026022 -0.0087146
0.0000068 -0.0001856 -0.0000766 0.0000062 0.0001074 0.0001314 -0.0000357 -0.0000165 0.0000241 -0.0001115 0.0000432 -0.0000641 0.0001377 -0.0003635 -0.0000603 -0.0004184 0.0007643 -0.0008605 -0.0001277 0.0006081 -0.0000289 -0.0004073 0.0001416 -0.0000764 0.0002644 0.0002909 -0.0013551 0.0053490 0.0071821 -0.0055297 -0.0077995 0.0107769 0.0001002 -0.0001163 0.0000235 -0.0005678 0.0007788 0.0006113 -0.0080515 0.0061015
0.0000283 -0.0003713 -0.0001353 -0.0000418 0.0001186 -0.0002212 -0.0000443 -0.0003467 -0.0000180 -0.0002749 0.0000628 -0.0002668 0.0001675 -0.0007870 -0.0001336 -0.0005221 0.0007280 -0.0016084 -0.0000420 0.0004591 -0.0000310 -0.0005770 0.0001572 -0.0002811 0.0002645 0.0002277 0.0092504 -0.0047104 0.0049010 0.0003130 -0.0019445 0.0120907 0.0000602 -0.0002411 -0.0000342 -0.0005946 0.0104934 -0.0151707 -0.0053610 -0.0033694
0.0000386 -0.0004590 -0.0001063 -0.0001941 0.0001171 -0.0002592 -0.0000246 -0.0003765 -0.0000890 -0.0002506 0.0000586 -0.0003060 0.0002011 -0.0009518 -0.0001993 -0.0004109 0.0001491 -0.0011739 0.0000680 0.0003034 -0.0000260 -0.0005598 0.0000375 -0.0002462 0.0002836 0.0002066 0.0076228 -0.0130046 -0.0049954 -0.0001332 0.0073153 0.0028386 0.0000762 -0.0002774 -0.0000410 -0.0005817 0.0094996 -0.0209637 0.0074872 -0.0117175
0.0000305 -0.0004149 -0.0000212 -0.0002441 0.0001153 -0.0001561 -0.0000169 -0.0002935 -0.0000137 -0.0002841 0.0000541 -0.0002850 0.0007238 -0.0015749 -0.0002200 -0.0004061 -0.0015502 -0.0001522 0.0000408 0.0003360 -0.0000230 -0.0005044 0.0000243 -0.0002072 0.0002742 0.0002220 -0.0108027 0.0156967 0.0010328 -0.0096998 0.0066606 -0.0070931 0.0000434 -0.0002610 -0.0000270 -0.0005656 -0.0003633 -0.0054751 0.0044874 -0.0016049
0.0000138 -0.0003351 -0.0000325 -0.0001619 0.0000956 0.0000106 -0.0000398 -0.0001583 -0.0001082 -0.0001773 0.0000476 -0.0002166 -0.0000226 -0.0009255 -0.0000408 -0.0005416 0.0003339 -0.0027796 -0.0000864 0.0005273 -0.0000202 -0.0003977 -0.0000167 -0.0000804 0.0002466 0.0002734 -0.0104824 0.0121554 -0.0062002 0.0010890 -0.0171059 0.0062360 0.0000394 -0.0002519 -0.0001030 -0.0004969 0.0061752 -0.0106812 -0.0083702 0.0123158
0.0000131 -0.0002473 -0.0000973 -0.0000235 0.0000906 0.0001844 -0.0000420 -0.0000026 -0.0002235 0.0000116 0.0000408 -0.0001274 0.0003395 -0.0011142 -0.0000044 -0.0003998 -0.0007448 0.0001276 -0.0000973 0.0006403 -0.0000165 -0.0002889 0.0000194 -0.0000445 0.0002493 0.0003070 -0.0092138 -0.0026181 0.0028237 -0.0031386 -0.0004676 -0.0121855 0.0000521 -0.0002732 -0.0002076 -0.0003418 0.0097419 -0.0209080 -0.0062100 0.0072984
0.0000158 -0.0001528 -0.0000872 0.0000381 0.0000874 0.0003647 -0.0000525 0.0001639 -0.0000756 0.0000217 0.0000427 -0.0000222 0.0005726 -0.0010921 -0.0001651 -0.0001462 0.0001532 0.0003485 0.0000583 0.0005350 -0.0000305 -0.0002221 0.0001080 -0.0001378 0.0002457 0.0003460 -0.0131817 0.0084948 0.0095192 -0.0030032 0.0015411 -0.0024555 0.0000374 -0.0003126 -0.0001458 -0.0003115 -0.0024479 -0.0094990 0.0113455 -0.0261297
0.0000141 -0.0002027 -0.0001133 0.0000584 0.0001061 0.0001287 -0.0000539 -0.0000544 0.0000550 -0.0001279 0.0000512 -0.0001039 -0.0003873 -0.0002181 -0.0002088 -0.0001978 0.0006255 -0.0012511 0.0001353 0.0003843 -0.0000517 -0.0003729 0.0000220 -0.0001687 0.0002323 0.0003006 -0.0082457 -0.0032176 0.0021660 0.0017591 -0.0049376 0.0101387 0.0000023 -0.0003779 -0.0001112 -0.0004111 -0.0013374 -0.0048417 0.0131199 -0.0246412
0.0000198 -0.0003913 -0.0001333 -0.0000697 0.0001339 -0.0003223 -0.0000363 -0.0004446 0.0000112 -0.0002651 0.0000601 -0.0003194 -0.0005796 -0.0002851 -0.0001736 -0.0004628 -0.0017481 0.0002271 0.0000865 0.0001888 -0.0000317 -0.0006301 -0.0002087 -0.0000160 0.0002419 0.0001873 -0.0042763 0.0113435 -0.0201325 0.0217972 -0.0071985 0.0049500 -0.0000061 -0.0004447 -0.0001483 -0.0005215 -0.0045236 0.0046311 0.0062422 -0.0020590
0.0000221 -0.0004910 -0.0001114 -0.0002423 0.0001344 -0.0003954 -0.0000307 -0.0004813 0.0000922 -0.0004032 0.0000939 -0.0004279 -0.0009056 -0.0002880 -0.0001193 -0.0005540 -0.0018201 -0.0002161 0.0001365 0.0000511 -0.0000312 -0.0006598 -0.0001009 -0.0001435 0.0002409 0.0001607 0.0040400 0.0071757 -0.0211531 0.0299377 -0.0121863 0.0087685 0.0000012 -0.0004867 -0.0000961 -0.0006426 -0.0003769 -0.0016230 0.0013515 0.0056380
0.0000398 -0.0005159 -0.0000475 -0.0002946 0.0001333 -0.0003151 -0.0000252 -0.0004132 0.0001417 -0.0004615 0.0000829 -0.0004100 -0.0005567 -0.0006166 -0.0000641 -0.0005256 0.0018087 -0.0031163 0.0001891 0.0000902 -0.0000356 -0.0006062 0.0000395 -0.0002908 0.0002312 0.0001998 0.0182404 -0.0189393 -0.0061773 0.0142215 -0.0167070 0.0202523 -0.0000340 -0.0005564 -0.0001219 -0.0005427 0.0100400 -0.0145112 0.0092749 -0.0157559
0.0000387 -0.0004724 -0.0000339 -0.0002570 0.0001241 -0.0001629 -0.0000248 -0.0003132 0.0000701 -0.0003870 0.0000630 -0.0003456 -0.0003549 -0.0006881 -0.0000570 -0.0005204 0.0037881 -0.0034610 0.0001160 0.0001990 -0.0000057 -0.0005731 0.0000357 -0.0002718 0.0002338 0.0002330 0.0135332 -0.0160796 0.0044036 0.0062744 -0.0049734 0.0132387 -0.0000708 -0.0005768 -0.0001413 -0.0004065 0.0045648 -0.0008500 0.0116874 -0.0122134
0.0000275 -0.0003712 -0.0000330 -0.0002286 0.0001119 0.0000219 -0.0000498 -0.0001498 0.0000245 -0.0002870 0.0000745 -0.0002882 -0.0003982 -0.0002712 -0.0000908 -0.0004118 0.0022197 -0.0019832 0.0000855 0.0003108 0.0000064 -0.0004708 0.0000807 -0.0002349 0.0002357 0.0002587 -0.0000460 -0.0018490 0.0016055 0.0004767 -0.0022837 0.0061277 -0.0000684 -0.0005466 -0.0000429 -0.0004250 -0.0065188 0.0114793 0.0026268 0.0031476
0.0000286 -0.0002520 -0.0000201 -0.0001597 0.0001000 0.0002050 -0.0000687 0.0000093 -0.0000257 -0.0001437 0.0000599 -0.0001908 -0.0005519 0.0002464 -0.0001648 -0.0001869 0.0009102 -0.0014320 0.0001236 0.0004287 0.0000041 -0.0003394 -0.0000658 0.0000380 0.0002160 0.0003268 0.0047723 -0.0067389 -0.0265029 0.0108817 -0.0121587 0.0011243 -0.0000576 -0.0005731 0.0000308 -0.0004810 -0.0018166 -0.0048275 -0.0042898 0.0144315
0.0000169 -0.0001208 -0.0000386 -0.0000398 0.0000979 0.0003833 -0.0000664 0.0001607 -0.0001151 0.0000677 0.0000529 -0.0000784 -0.0008052 -0.0000144 -0.0001865 -0.0000738 0.0004062 0.0000295 0.0002116 0.0005219 0.0000089 -0.0002226 -0.0000607 0.0000641 0.0001927 0.0004047 -0.0014597 0.0007730 -0.0044957 -0.0000548 -0.0115351 0.0039025 -0.0000666 -0.0005606 0.0000043 -0.0003636 -0.0059583 0.0013428 -0.0097101 0.0287667
0.0000108 -0.0000199 -0.0000565 0.0000749 0.0000902 0.0005843 -0.0000824 0.0003446 0.0000566 0.0000376 0.0000484 0.0000560 -0.0004124 -0.0004612 -0.0000948 -0.0000624 -0.0003351 0.0003226 0.0001325 0.0006437 -0.0000042 -0.0001010 0.0001188 -0.0000975 0.0001963 0.0004429 0.0019055 -0.0027105 0.0004357 0.0116520 0.0006308 0.0068949 -0.0000672 -0.0005430 0.0000089 -0.0002262 -0.0010096 0.0052455 -0.0022830 0.0134788
0.0000216 -0.0000354 -0.0000881 0.0001756 0.0001016 0.0003963 -0.0001000 0.0001939 0.0002338 -0.0000989 0.0000451 0.0000060 -0.0002421 -0.0004348 -0.0000490 -0.0001161 0.0004794 -0.0015480 0.0000212 0.0005930 -0.0000285 -0.0002771 0.0002321 -0.0002276 0.0002097 0.0003845 0.0050757 -0.0024079 -0.0038777 0.0194782 0.0090877 -0.0021747 -0.0000739 -0.0006053 -0.0000040 -0.0003314 0.0085253 -0.0160946 0.0018339 -0.0013575
0.0000321 -0.0002364 -0.0000632 -0.0000036 0.0001124 -0.0000858 -0.0000910 -0.0001832 0.0000885 -0.0001837 0.0000748 -0.0002372 -0.0001991 -0.0005688 -0.0000434 -0.0003008 0.0007347 -0.0013645 0.0002382 0.0002409 -0.0000241 -0.0005846 0.0001983 -0.0003450 0.0002050 0.0002961 -0.0098443 0.0137175 -0.0057781 0.0062412 0.0082147 -0.0018648 -0.0000861 -0.0006527 -0.0000911 -0.0004442 0.0020387 -0.0084557 -0.0021436 -0.0032915
0.0000243 -0.0004064 -0.0000257 -0.0002476 0.0000927 -0.0002438 -0.0000722 -0.0003081 0.0000207 -0.0002963 0.0000851 -0.0003513 -0.0006826 0.0001109 0.0000153 -0.0005285 0.0000783 0.0000788 0.0003929 -0.0000204 0.0000024 -0.0006417 0.0002497 -0.0004845 0.0002040 0.0002619 0.0002785 -0.0038460 0.0056137 -0.0105093 0.0040945 -0.0028118 -0.0000753 -0.0007004 -0.0000534 -0.0005056 0.0025236 -0.0047943 0.0199923 -0.0455978
0.0000376 -0.0004403 0.0000004 -0.0002817 0.0000909 -0.0002268 -0.0000646 -0.0002847 0.0001462 -0.0004564 0.0000877 -0.0003526 -0.0015920 0.0008983 -0.0000622 -0.0005574 0.0022558 -0.0026123 0.0002995 0.0000353 0.0000148 -0.0005963 0.0002232 -0.0002921 0.0002100 0.0002579 0.0123177 -0.0231110 0.0118953 -0.0155297 0.0004212 -0.0102611 -0.0000851 -0.0006914 -0.0000950 -0.0004077 0.0082054 -0.0207998 0.0132697 -0.0405676
0.0000429 -0.0003896 0.0000212 -0.0002722 0.0000864 -0.0001234 -0.0000607 -0.0001939 0.0000681 -0.0003652 0.0000818 -0.0003061 -0.0008393 0.0000684 -0.0001042 -0.0004192 0.0004850 -0.0028447 0.0001280 0.0002259 0.0000109 -0.0005069 0.0000813 -0.0001156 0.0001903 0.0003004 0.0085339 -0.0217243 0.0049031 -0.0073886 -0.0127814 0.0223151 -0.0001041 -0.0006294 -0.0000511 -0.0003202 0.0055416 -0.0164457 -0.0046680 0.0000029
0.0000207 -0.0002721 0.0000220 -0.0001818 0.0000797 0.0000617 -0.0000588 -0.0000404 -0.0000871 -0.0001149 0.0000749 -0.0002335 -0.0013728 0.0003978 -0.0000037 -0.0004038 0.0016590 -0.0039240 0.0000093 0.0003934 0.0000075 -0.0003883 0.0000497 -0.0001692 0.0001783 0.0003391 0.0055757 0.0019303 -0.0020819 -0.0019617 -0.0205561 0.0266043 -0.0000820 -0.0005983 0.0000771 -0.0003343 0.0127975 -0.0248043 -0.0012467 0.0039183
0.0000079 -0.0001476 -0.0000341 -0.0000587 0.0000661 0.0002531 -0.0000753 0.0001386 -0.0000844 -0.0000214 0.0000858 -0.0001474 -0.0012468 0.0002582 -0.0000299 -0.0003265 0.0029639 -0.0035164 0.0001208 0.0004071 0.0000247 -0.0002766 0.0000998 -0.0001356 0.0001688 0.0003959 0.0042285 0.0024055 0.0020969 -0.0053670 0.0018928 -0.0090933 -0.0000635 -0.0005825 -0.0001151 -0.0000803 0.0060762 -0.0179548 -0.0081840 0.0188460
0.0000097 -0.0000394 -0.0000574 0.0000416 0.0000368 0.0004614 -0.0000851 0.0003120 0.0001126 -0.0000591 0.0000741 -0.0000060 0.0001246 -0.0005365 -0.0000569 -0.0001880 -0.0019441 0.0010157 0.0001132 0.0005662 0.0000306 -0.0001534 0.0000974 -0.0000810 0.0001537 0.0004733 0.0049345 -0.0212907 -0.0011125 -0.0005418 0.0002652 0.0011925 -0.0000668 -0.0005844 -0.0001616 -0.0000156 -0.0220924 0.0223309 -0.0028507 0.0117377
0.0000076 0.0000015 -0.0000201 0.0001223 0.0000513 0.0003831 -0.0000902 0.0002365 0.0001611 -0.0001124 0.0000462 0.0000333 -0.0008622 0.0003723 -0.0000786 -0.0001980 -0.0009894 0.0005228 0.0000544 0.0006187 -0.0000019 -0.0002400 0.0001146 -0.0000558 0.0001733 0.0004274 0.0020717 -0.0047640 -0.0126138 0.0091453 -0.0056924 0.0097405 -0.0000883 -0.0006503 -0.0001792 -0.0001661 0.0042961 -0.0014735 0.0086559 -0.0209989
0.0000078 -0.0001273 -0.0000002 -0.0000007 0.0000726 0.0000088 -0.0000970 -0.0000509 0.0000883 -0.0002346 0.0000357 -0.0001085 -0.0006496 -0.0001440 -0.0000944 -0.0003098 0.0011518 -0.0013153 0.0001618 0.0003562 -0.0000080 -0.0004665 0.0000935 -0.0000679 0.0001794 0.0003370 0.0025218 -0.0014675 -0.0069235 0.0115579 -0.0008435 0.0027874 -0.0001158 -0.0007407 -0.0002823 -0.0001988 0.0249608 -0.0426270 -0.0042356 -0.0054809
0.0000157 -0.0002647 -0.0000097 -0.0001082 0.0000555 -0.0001552 -0.0000799 -0.0001656 0.0000330 -0.0002798 0.0000464 -0.0002085 0.0001408 -0.0010385 0.0000858 -0.0004803 0.0003339 -0.0010874 0.0001527 0.0002321 0.0000112 -0.0004997 0.0001277 -0.0002852 0.0001589 0.0003367 0.0000846 0.0008727 0.0050291 -0.0034087 -0.0063597 0.0057808 -0.0001210 -0.0007584 -0.0001100 -0.0003064 0.0148044 -0.0284793 -0.0048550 0.0014352
0.0000116 -0.0002700 -0.0000841 -0.0000385 0.0000592 -0.0001311 -0.0000778 -0.0001109 0.0000358 -0.0002319 0.0000689 -0.0002182 -0.0000125 -0.0006915 0.0000956 -0.0004688 -0.0020208 0.0009298 0.0000762 0.0002918 0.0000253 -0.0004363 0.0001466 -0.0003057 0.0001602 0.0003523 -0.0112754 0.0090820 0.0145604 -0.0336334 -0.0140942 0.0124678 -0.0001264 -0.0007252 -0.0001469 -0.0002981 0.0077273 -0.0146032 -0.0054008 0.0100059
0.0000118 -0.0002192 -0.0000637 -0.0000682 0.0000733 -0.0000438 -0.0000890 0.0000022 -0.0000048 -0.0001033 0.0000618 -0.0001455 -0.0011967 0.0002379 -0.0000594 -0.0003008 -0.0012939 -0.0000318 0.0000904 0.0003506 0.0000308 -0.0003367 0.0001349 -0.0001278 0.0001483 0.0003874 -0.0162076 0.0029299 -0.0018120 -0.0037216 -0.0167232 0.0160095 -0.0001235 -0.0007340 -0.0002969 -0.0001084 0.0097514 -0.0106538 0.0003313 -0.0067245
0.0000079 -0.0001109 -0.0000073 -0.0000426 0.0000551 0.0001580 -0.0000930 0.0001615 -0.0000141 0.0000039 0.0000350 -0.0000197 -0.0017386 0.0007579 -0.0000339 -0.0002448 -0.0006903 0.0001235 0.0002254 0.0004033 0.0000233 -0.0001930 0.0000896 0.0000250 0.0001359 0.0004405 -0.0042443 -0.0075107 0.0057292 -0.0011164 -0.0076980 0.0183191 -0.0001209 -0.0007410 -0.0001345 -0.0000480 -0.0028304 0.0072434 -0.0010720 -0.0163576
0.0000158 -0.0000134 0.0000179 0.0000331 0.0000283 0.0003586 -0.0000962 0.0003228 0.0000476 0.0000555 0.0000547 0.0000556 0.0000421 -0.0005362 0.0000199 -0.0002073 -0.0006629 0.0008895 0.0002693 0.0004810 0.0000267 -0.0000738 0.0000789 0.0000788 0.0001297 0.0004932 -0.0084217 0.0037779 0.0044320 -0.0019426 -0.0000372 0.0099489 -0.0001392 -0.0007024 0.0000984 -0.0001467 -0.0202154 0.0246388 -0.0164111 0.0014917
0.0000219 0.0000726 0.0000008 0.0001461 0.0000245 0.0004916 -0.0001027 0.0004441 -0.0000065 0.0001951 0.0000435 0.0001355 0.0013770 -0.0018467 0.0001351 -0.0002237 0.0004341 0.0008837 0.0001947 0.0005340 0.0000264 -0.0001387 0.0001869 -0.0001034 0.0001346 0.0005032 -0.0159222 0.0156976 -0.0028806 -0.0009687 -0.0042350 0.0098985 -0.0001766 -0.0007653 -0.0000256 -0.0000615 -0.0082588 0.0103864 -0.0117038 -0.0094499
0.0000144 -0.0000119 -0.0000735 0.0001954 0.0000545 0.0001665 -0.0001052 0.0001752 0.0000569 0.0001077 0.0000236 0.0000347 0.0013664 -0.0020682 0.0001435 -0.0002849 -0.0003121 0.0011474 0.0001064 0.0005890 0.0000212 -0.0003117 0.0002044 -0.0001423 0.0001500 0.0004304 -0.0167826 0.0058340 0.0024880 -0.0046930 -0.0139330 0.0148475 -0.0002145 -0.0009404 -0.0002391 -0.0000007 -0.0074004 0.0107178 -0.0110853 0.0157942
0.0000112 -0.0001806 -0.0000925 0.0000605 0.0000783 -0.0002420 -0.0000935 -0.0001612 0.0000647 -0.0000840 0.0000411 -0.0001408 0.0005727 -0.0012740 0.0000768 -0.0003704 0.0003193 -0.0009512 0.0001222 0.0004107 0.0000342 -0.0003626 0.0000765 0.0000236 0.0001356 0.0004014 0.0103548 -0.0426406 -0.0040398 0.0030966 -0.0062641 0.0042113 -0.0002288 -0.0010369 -0.0001311 -0.0001833 -0.0052630 0.0038120 -0.0075136 0.0127163
0.0000212 -0.0002010 -0.0000755 -0.0000336 0.0000613 -0.0002206 -0.0000792 -0.0001357 0.0001114 -0.0001788 0.0000510 -0.0001538 -0.0002173 -0.0002246 0.0000256 -0.0003872 0.0002492 -0.0013085 0.0001454 0.0001824 0.0000503 -0.0003027 -0.0000294 0.0000916 0.0001445 0.0004131 -0.0016636 -0.0055000 -0.0160911 0.0184937 -0.0063479 0.0044526 -0.0002547 -0.0010378 -0.0000395 -0.0002707 -0.0012409 0.0009526 0.0074073 -0.0040685
0.0000242 -0.0001456 -0.0000130 -0.0000637 0.0000480 -0.0000873 -0.0000763 -0.0000248 0.0000124 -0.0000279 0.0000630 -0.0000977 0.0003833 -0.0008225 0.0000558 -0.0003248 -0.0006814 -0.0000511 -0.0000251 0.0003425 0.0000578 -0.0002101 0.0001440 -0.0000164 0.0001702 0.0004231 -0.0046042 0.0030142 -0.0035690 0.0084895 -0.0076100 0.0056449 -0.0002769 -0.0010503 -0.0000020 -0.0002603 -0.0079050 0.0158870 0.0010854 0.0045162
0.0000110 -0.0000450 0.0000307 -0.0000013 0.0000435 0.0000902 -0.0000720 0.0001193 -0.0000196 0.0000698 0.0000526 0.0000057 0.0003586 -0.0010707 0.0000917 -0.0002083 0.0000835 -0.0013225 0.0000895 0.0004348 0.0000804 -0.0001178 0.0002212 0.0000358 0.0001675 0.0004620 0.0032878 -0.0084345 -0.0039678 0.0153506 -0.0039890 -0.0013918 -0.0002957 -0.0010506 -0.0000189 -0.0001168 -0.0100724 0.0024490 -0.0115609 0.0104320
0.0000133 0.0000520 0.0000299 0.0001104 0.0000197 0.0003030 -0.0000688 0.0002827 0.0002263 -0.0001059 0.0000578 0.0000930 -0.0005786 0.0001543 0.0001332 -0.0001560 0.0007458 -0.0013253 0.0003642 0.0003410 0.0000682 0.0000056 0.0000483 0.0002297 0.0001565 0.0005018 -0.0120228 0.0151843 -0.0058470 0.0218064 -0.0106503 0.0016049 -0.0003311 -0.0010170 -0.0000278 0.0000204 0.0061742 -0.0214520 -0.0030390 0.0039320
0.0000256 0.0001501 0.0000559 0.0002044 0.0000015 0.0005219 -0.0000856 0.0004769 0.0003192 -0.0001773 0.0000542 0.0002204 -0.0003396 0.0006115 0.0001872 -0.0001023 0.0011729 -0.0013792 0.0003025 0.0004860 0.0000195 0.0001061 0.0001120 0.0001510 0.0001393 0.0005426 0.0074019 -0.0074261 0.0027032 -0.0049532 0.0014303 -0.0035960 -0.0003375 -0.0010243 -0.0000415 0.0000658 0.0027944 -0.0044480 -0.0158313 0.0193944
0.0000254 0.0001078 0.0000459 0.0002392 0.0000422 0.0002448 -0.0000847 0.0002689 0.0001755 -0.0000487 0.0000501 0.0001684 0.0006034 -0.0003302 0.0000631 -0.0000733 0.0008717 -0.0018613 0.0003129 0.0004617 0.0000324 -0.0000626 0.0002202 0.0000170 0.0001458 0.0004977 0.0167447 -0.0277397 -0.0004752 -0.0154346 0.0051448 -0.0090535 -0.0003693 -0.0011079 -0.0000409 -0.0000432 -0.0052140 0.0088048 -0.0065002 0.0108023
0.0000196 -0.0000557 0.0000097 0.0001219 0.0000682 -0.0001962 -0.0000635 -0.0000767 -0.0000630 0.0001198 0.0000611 0.0000080 0.0002326 -0.0001580 0.0000829 -0.0002951 0.0001284 -0.0002160 0.0003781 0.0001850 0.0000622 -0.0002396 0.0001245 0.0000469 0.0001730 0.0004220 -0.0047161 0.0115636 -0.0036927 -0.0030078 -0.0165079 0.0186712 -0.0004439 -0.0012359 -0.0000938 -0.0000281 -0.0054350 0.0148897 -0.0059929 0.0102110
0.0000315 -0.0001161 0.0000593 -0.0000148 0.0000429 -0.0001729 -0.0000462 -0.0000102 -0.0001467 0.0001498 0.0000831 0.0000121 0.0000058 -0.0001664 0.0001352 -0.0003520 -0.0009610 0.0014602 0.0000891 0.0003990 0.0000818 -0.0001994 0.0001921 0.0001267 0.0001885 0.0004293 0.0000824 0.0045654 0.0025190 -0.0125177 -0.0048956 0.0099194 -0.0004721 -0.0013015 -0.0002599 0.0001293 -0.0048226 0.0076988 -0.0123683 0.0157016
0.0000305 -0.0000891 0.0000775 0.0000065 0.0000372 -0.0000491 -0.0000223 0.0001122 -0.0000368 -0.0000076 0.0000841 0.0000870 0.0011245 -0.0015022 0.0001372 -0.0003261 -0.0008892 0.0015409 -0.0000903 0.0005922 0.0000961 -0.0001221 0.0003762 0.0000410 0.0001887 0.0004561 0.0007804 -0.0166363 0.0259123 -0.0444527 0.0053935 -0.0152106 -0.0004870 -0.0013361 -0.0002189 0.0000340 -0.0015167 -0.0164437 -0.0050888 -0.0001884
0.0000228 -0.0000062 0.0000154 0.0001130 0.0000288 0.0001143 -0.0000122 0.0002370 0.0000278 0.0000527 0.0000618 0.0001737 0.0005779 -0.0005062 0.0001476 -0.0003115 0.0020411 -0.0016096 -0.0001205 0.0006240 0.0000972 -0.0000221 0.0002902 0.0000677 0.0001676 0.0005083 0.0114426 -0.0395119 0.0151624 -0.0088605 -0.0050798 -0.0318699 -0.0005556 -0.0014449 -0.0001041 0.0000371 0.0092944 -0.0291024 -0.0018146 -0.0013720
0.0000281 0.0001027 0.0000210 0.0002183 0.0000149 0.0003176 -0.0000259 0.0004197 0.0000181 0.0002385 0.0000656 0.0002769 -0.0000002 0.0004721 0.0000954 -0.0000968 0.0018316 -0.0019384 -0.0000915 0.0007651 0.0000984 0.0001048 0.0000570 0.0003491 0.0001633 0.0005737 0.0184710 -0.0249571 0.0109017 -0.0040543 0.0075108 -0.0315938 -0.0006020 -0.0015514 -0.0000884 0.0001927 0.0029231 -0.0082444 0.0123950 -0.0167148
0.0000107 0.0002217 -0.0000280 0.0003862 0.0000075 0.0004955 -0.0000437 0.0005992 0.0000179 0.0002723 0.0000507 0.0004047 0.0008978 -0.0008787 0.0001438 0.0000076 0.0013675 -0.0017878 0.0001580 0.0006510 0.0000929 0.0001156 0.0000760 0.0003098 0.0001794 0.0006283 0.0140601 -0.0184912 0.0063712 -0.0120521 0.0036684 -0.0116291 -0.0005225 -0.0014139 -0.0000120 0.0001480 0.0012467 -0.0015889 0.0102207 -0.0217573
0.0000057 0.0001195 0.0000036 0.0003072 0.0000118 0.0002366 -0.0000563 0.0003998 0.0000065 0.0001413 0.0000620 0.0002843 0.0006668 -0.0008670 0.0002094 -0.0002270 0.0019193 -0.0025700 0.0001258 0.0005307 0.0000944 -0.0000510 0.0002210 0.0001901 0.0001853 0.0006246 0.0042843 -0.0274562 -0.0171482 0.0139401 -0.0070179 0.0042009 -0.0004526 -0.0013170 0.0000146 0.0000743 0.0130797 -0.0166827 -0.0131038 0.0079555
0.0000235 -0.0000981 0.0000441 0.0001456 0.0000327 -0.0001578 -0.0000302 0.0000887 0.0000259 -0.0000129 0.0000907 0.0001084 0.0000781 -0.0000234 0.0000852 -0.0003212 0.0001665 -0.0004618 -0.0000349 0.0004006 0.0001092 -0.0001305 0.0002681 0.0001650 0.0001890 0.0005815 -0.0026787 -0.0103853 0.0049932 -0.0154721 0.0017385 0.0026880 -0.0005433 -0.0015222 -0.0000702 0.0001943 0.0159570 -0.0287690 0.0056529 -0.0063991
0.0000376 -0.0000999 -0.0000173 0.0001868 0.0000218 -0.0001316 -0.0000090 0.0001285 0.0000585 -0.0000219 0.0000845 0.0001253 0.0003734 -0.0003188 -0.0000712 -0.0001003 -0.0011630 0.0005581 0.0000625 0.0003312 0.0001103 -0.0000839 0.0001323 0.0002722 0.0001992 0.0005700 -0.0024890 -0.0098198 0.0076857 -0.0198825 0.0072368 -0.0045898 -0.0006282 -0.0016554 -0.0000584 0.0001551 0.0050904 -0.0121817 0.0116558 -0.0167661
0.0000337 -0.0000180 0.0000185 0.0001536 0.0000115 0.0000043 -0.0000249 0.0002438 0.0001029 -0.0001195 0.0000712 0.0001739 0.0006637 -0.0006457 0.0000881 -0.0002262 -0.0011000 0.0001971 0.0001391 0.0002113 0.0001282 -0.0000216 0.0001589 0.0003947 0.0002043 0.0005933 0.0034627 -0.0210529 -0.0158757 0.0097320 0.0015803 0.0029044 -0.0006178 -0.0015487 -0.0000132 0.0000851 0.0022025 -0.0132926 0.0083142 -0.0059457
0.0000192 0.0000477 0.0000452 0.0001435 0.0000071 0.0001749 -0.0000376 0.0003863 -0.0000153 0.0000280 0.0000551 0.0002711 0.0003833 -0.0005207 0.0002321 -0.0003435 0.0008260 0.0000943 0.0001361 0.0002675 0.0001459 0.0000786 0.0001810 0.0003926 0.0001921 0.0006366 0.0210768 -0.0477397 -0.0178773 0.0058646 -0.0028686 0.0155346 -0.0006306 -0.0015477 -0.0000423 0.0002684 0.0128785 -0.0175121 0.0140660 -0.0134941
0.0000219 0.0001361 -0.0000016 0.0002541 0.0000057 0.0003569 -0.0000551 0.0005579 -0.0000149 0.0002022 0.0000603 0.0003598 -0.0001418 0.0000262 0.0001376 -0.0000510 0.0016876 -0.0001385 0.0002175 0.0005073 0.0001267 0.0001737 0.0001183 0.0003723 0.0001798 0.0006683 0.0032831 -0.0067109 0.0103481 -0.0193520 0.0005253 0.0080826 -0.0006868 -0.0017163 0.0001163 0.0002066 0.0015117 0.0098586 0.0107887 -0.0121864
0.0000202 0.0001167 0.0000611 0.0002419 0.0000216 0.0001542 -0.0000588 0.0003525 0.0001116 0.0000349 0.0000762 0.0002612 0.0006100 -0.0005469 0.0000516 -0.0000122 0.0005798 -0.0007460 0.0002757 0.0004011 0.0001140 0.0000283 0.0001601 0.0002840 0.0001833 0.0006073 -0.0173945 0.0118294 0.0094000 -0.0067207 0.0015742 0.0081586 -0.0006066 -0.0015866 0.0001818 0.0000458 -0.0208734 0.0302549 0.0089666 -0.0194731
0.0000289 -0.0000949 0.0001527 0.0000542 0.0000197 -0.0002501 -0.0000477 -0.0000030 0.0000835 -0.0001491 0.0000670 0.0000790 0.0004807 -0.0002935 -0.0000146 -0.0001724 -0.0002993 -0.0008767 0.0000989 0.0002580 0.0001119 -0.0001909 0.0001963 0.0001568 0.0001777 0.0005006 -0.0136679 0.0127428 0.0041098 -0.0001999 -0.0025708 0.0151247 -0.0004392 -0.0012656 -0.0001136 0.0001583 0.0051065 -0.0042929 0.0096537 -0.0258866
0.0000287 -0.0002339 0.0000558 0.0000290 0.0000243 -0.0003366 -0.0000500 -0.0000529 0.0000552 -0.0002340 0.0000736 0.0000064 -0.0004415 0.0004420 0.0000671 -0.0004067 -0.0022693 0.0007860 0.0001483 -0.0000131 0.0001255 -0.0002227 0.0002210 0.0002115 0.0001611 0.0004779 -0.0050990 0.0132485 -0.0038550 0.0071455 -0.0083866 0.0211982 -0.0001745 -0.0006924 -0.0000945 0.0001773 0.0093378 -0.0149622 0.0065635 -0.0091516
-0.0000033 -0.0002829 -0.0000080 0.0001085 0.0000201 -0.0003108 -0.0000470 -0.0000217 0.0001104 -0.0003296 0.0000872 0.0000038 -0.0008745 0.0008578 0.0001193 -0.0005607 -0.0016273 0.0004129 0.0001484 -0.0001192 0.0001461 -0.0001564 0.0001379 0.0003016 0.0001333 0.0004601 -0.0016895 0.0058626 -0.0158182 0.0224402 -0.0124106 0.0258839 0.0000763 -0.0001862 -0.0000428 0.0002586 0.0053297 -0.0025221 -0.0030298 0.0111152
-0.0000132 -0.0002964 0.0000694 0.0000665 -0.0000132 -0.0002271 -0.0000339 0.0000512 0.0002247 -0.0004752 0.0000598 0.0000519 -0.0014784 0.0015587 0.0001532 -0.0005074 0.0004796 -0.0002504 -0.0000900 0.0000977 0.0001291 -0.0000262 0.0001671 0.0001131 0.0001272 0.0004043 0.0063023 -0.0037819 -0.0172711 0.0238275 -0.0188522 0.0280628 0.0000436 -0.0001853 -0.0001292 0.0004846 0.0135717 -0.0117057 -0.0090303 0.0095283
-0.0000151 -0.0001843 0.0001185 0.0000688 -0.0000258 -0.0000354 -0.0000508 0.0001896 0.0001950 -0.0003299 0.0000319 0.0001330 -0.0004996 0.0006397 0.0001837 -0.0003935 -0.0019475 0.0030444 -0.0000666 0.0001968 0.0001280 0.0000805 0.0002533 0.0001407 0.0001370 0.0003608 0.0157098 -0.0221431 -0.0033629 -0.0003964 -0.0123931 0.0133886 -0.0000972 -0.0003571 -0.0000404 0.0004685 0.0043702 -0.0073554 0.0130563 -0.0211821
-0.0000217 -0.0001130 0.0000611 0.0001396 0.0000057 -0.0001198 -0.0000861 0.0001018 -0.0000156 -0.0000074 0.0000548 0.0000671 0.0003222 -0.0000833 0.0001274 -0.0003548 -0.0016566 0.0031078 0.0001722 -0.0000830 0.0001318 -0.0000446 0.0001962 0.0002189 0.0001171 0.0002711 0.0124752 -0.0214845 0.0189057 -0.0323132 -0.0075977 0.0117367 -0.0001499 -0.0005385 -0.0000912 0.0003771 -0.0095360 -0.0037682 0.0089910 -0.0074170
-0.0000152 -0.0002466 0.0000740 0.0000311 0.0000087 -0.0004692 -0.0000866 -0.0002407 0.0000321 -0.0001847 0.0000613 -0.0001314 -0.0001775 0.0001616 0.0001146 -0.0003941 0.0009980 0.0006697 0.0002271 -0.0002793 0.0001136 -0.0002623 0.0000671 0.0001373 0.0001047 0.0001428 0.0026184 -0.0117754 0.0086824 -0.0164349 -0.0047481 0.0085349 -0.0001382 -0.0005521 -0.0000530 0.0002090 0.0011294 -0.0105418 -0.0102488 0.0170923
-0.0000013 -0.0004022 0.0000934 -0.0000580 -0.0000180 -0.0006206 -0.0000897 -0.0003743 0.0001720 -0.0005278 0.0000450 -0.0002302 -0.0001363 0.0000935 0.0000283 -0.0003377 -0.0006367 0.0008952 0.0001215 -0.0002886 0.0001248 -0.0002858 0.0000853 0.0001125 0.0001094 0.0000679 -0.0032508 -0.0055614 -0.0091218 -0.0079387 0.0043364 -0.0065783 -0.0001736 -0.0005616 -0.0000275 0.0001169 0.0002739 0.0043926 -0.0043106 0.0087506
-0.0000056 -0.0004040 0.0000691 -0.0000446 -0.0000239 -0.0006001 -0.0000997 -0.0003527 0.0001874 -0.0005752 0.0000271 -0.0002216 0.0002902 -0.0001573 0.0000181 -0.0003003 -0.0011448 0.0006235 0.0000978 -0.0003415 0.0001396 -0.0002204 0.0001769 0.0000755 0.0001103 0.0000592 -0.0035433 -0.0018862 -0.0015141 -0.0142321 0.0024064 0.0008702 -0.0001453 -0.0004318 -0.0000601 0.0001799 0.0042254 -0.0041576 0.0132280 -0.0241641
-0.0000145 -0.0003677 0.0000832 -0.0000520 -0.0000437 -0.0004919 -0.0000876 -0.0002725 0.0001533 -0.0004700 0.0000125 -0.0001711 0.0002451 -0.0002614 0.0000638 -0.0003085 -0.0010984 0.0007860 -0.0000602 -0.0000836 0.0001537 -0.0000638 0.0002487 0.0000479 0.0001085 0.0001161 -0.0127748 0.0024817 -0.0101480 0.0017111 0.0044116 -0.0066961 -0.0000399 -0.0001507 0.0000865 0.0001714 0.0090536 -0.0179893 0.0093631 -0.0207183
-0.0000042 -0.0003051 0.0001326 0.0000005 -0.0000616 -0.0002930 -0.0000995 -0.0000778 0.0001126 -0.0003822 0.0000047 -0.0001057 -0.0002342 0.0000683 0.0001052 -0.0002800 -0.0008582 0.0002701 -0.0000375 0.0000402 0.0001745 0.0001664 0.0002482 0.0002582 0.0001133 0.0001906 0.0058817 -0.0201286 -0.0200751 0.0212422 0.0102535 -0.0153811 -0.0003333 -0.0006546 0.0000167 0.0003263 -0.0070557 0.0077963 -0.0119735 0.0166090
-0.0000062 -0.0001639 0.0001326 0.0000797 -0.0000565 -0.0002231 -0.0001240 0.0000586 0.0001764 -0.0002111 -0.0000113 -0.0000385 -0.0000415 -0.0001558 0.0001011 -0.0000567 0.0012667 -0.0025167 0.0001268 0.0001164 0.0001795 0.0001962 0.0001801 0.0003375 0.0001322 0.0001537 0.0159669 -0.0309087 -0.0131792 0.0177410 0.0015641 -0.0058767 -0.0009951 -0.0021170 -0.0002007 0.0004259 -0.0058163 0.0044549 -0.0119323 0.0271206
0.0000064 -0.0001706 0.0001104 0.0000251 -0.0000457 -0.0005816 -0.0001002 -0.0001473 0.0001970 -0.0000640 -0.0000159 -0.0000635 0.0006985 -0.0006208 0.0000979 0.0000897 0.0005973 -0.0021016 0.0002403 0.0001648 0.0001744 0.0001200 0.0001549 0.0002402 0.0001541 0.0000487 0.0125755 -0.0209965 0.0026552 -0.0093024 -0.0024604 -0.0063119 -0.0014664 -0.0033540 -0.0001429 0.0002818 -0.0059300 -0.0002970 -0.0013130 0.0107781
0.0000384 -0.0002347 0.0001974 -0.0001106 -0.0000468 -0.0009369 -0.0000587 -0.0003256 0.0002199 -0.0002023 -0.0000114 -0.0001184 0.0011186 -0.0007813 0.0001810 0.0000941 0.0003496 -0.0004235 0.0002455 0.0001185 0.0001900 0.0001500 0.0001021 0.0003805 0.0001641 -0.0000013 0.0118770 -0.0176247 0.0200808 -0.0404875 -0.0000840 -0.0024299 -0.0016158 -0.0036950 0.0001191 0.0000367 -0.0328230 0.0230670 0.0072511 -0.0191490
0.0000866 -0.0000844 0.0002739 -0.0001534 -0.0000455 -0.0007896 -0.0000342 -0.0002301 0.0003059 -0.0003540 -0.0000065 -0.0001857 0.0009700 -0.0011479 0.0002081 0.0001629 -0.0001521 0.0006071 0.0002073 0.0001605 0.0002118 0.0001136 0.0002290 0.0003307 0.0001539 -0.0000006 -0.0005292 0.0121948 0.0039576 -0.0045072 -0.0018496 0.0005124 -0.0014181 -0.0031958 0.0000884 0.0000550 -0.0061736 0.0071050 0.0000268 -0.0154075
0.0001456 0.0001320 0.0002647 -0.0000686 -0.0000404 -0.0004408 -0.0000156 -0.0000942 0.0001725 -0.0001642 0.0000115 -0.0002700 0.0007263 -0.0006501 0.0002307 0.0000557 -0.0002476 0.0001783 0.0002422 0.0001912 0.0002246 0.0000879 0.0003126 0.0002904 0.0001407 0.0000475 -0.0137490 0.0266500 -0.0145865 0.0235580 0.0077201 -0.0271227 -0.0010626 -0.0022852 0.0000514 0.0002661 0.0073981 -0.0120438 -0.0002970 -0.0015162
0.0001522 0.0002963 0.0002042 0.0000733 -0.0000381 -0.0001471 -0.0000075 0.0001291 0.0000370 0.0000740 0.0000101 -0.0001850 0.0007056 -0.0000803 0.0002097 0.0000825 -0.0003441 -0.0001149 0.0000774 0.0003607 0.0002214 0.0002101 0.0003131 0.0003098 0.0001456 0.0001127 0.0006631 -0.0007844 -0.0082266 0.0159702 0.0011659 -0.0240785 -0.0008783 -0.0017825 0.0001129 0.0003794 0.0065077 -0.0165514 -0.0032127 0.0029737
0.0001285 0.0003745 0.0002314 0.0001021 -0.0000295 0.0000005 0.0000033 0.0003062 0.0000297 0.0002261 -0.0000044 -0.0000276 0.0005019 0.0000567 0.0001861 0.0002644 -0.0016884 0.0021387 0.0000199 0.0003662 0.0002067 0.0002410 0.0002295 0.0004253 0.0001563 0.0001321 0.0134803 -0.0105256 0.0015078 0.0004755 0.0100969 -0.0206701 -0.0009257 -0.0018364 -0.0000671 0.0003674 -0.0106981 0.0101383 0.0033582 -0.0191649
0.0001255 0.0002246 0.0002599 0.0000566 -0.0000118 -0.0002825 0.0000073 0.0000480 0.0001246 -0.0000148 0.0000199 -0.0001307 -0.0003756 0.0007437 0.0002087 0.0001568 0.0002064 0.0001020 0.0000602 0.0002463 0.0002077 0.0000941 0.0002449 0.0004073 0.0001514 0.0000892 0.0091826 -0.0054852 -0.0005275 -0.0023929 0.0135122 -0.0178269 -0.0009725 -0.0020323 -0.0000640 0.0001392 -0.0025325 0.0018676 0.0093399 -0.0340515
0.0001231 0.0000311 0.0002717 -0.0000658 -0.0000119 -0.0006191 0.0000113 -0.0002837 0.0002279 -0.0002779 0.0000248 -0.0002732 -0.0000695 0.0001969 0.0002222 0.0000399 -0.0027227 0.0011729 0.0000322 0.0002432 0.0002329 0.0000090 0.0002098 0.0003884 0.0001532 0.0000457 0.0030297 -0.0171406 0.0094709 -0.0224540 0.0099348 -0.0018121 -0.0008913 -0.0019574 0.0000799 0.0000571 0.0042923 -0.0078499 -0.0054341 -0.0112836
0.0001179 0.0000208 0.0002232 -0.0000733 -0.0000163 -0.0006209 0.0000362 -0.0002613 0.0002489 -0.0002368 0.0000219 -0.0002830 0.0008114 -0.0007067 0.0001153 0.0000487 -0.0016286 0.0017000 0.0000168 0.0001482 0.0002355 0.0000477 0.0001724 0.0003701 0.0001587 0.0000572 0.0110524 -0.0280913 0.0116934 -0.0137305 0.0060144 0.0122279 -0.0007934 -0.0016656 0.0000848 0.0001052 -0.0039352 -0.0041458 0.0011631 -0.0077460
0.0001369 0.0000458 0.0001872 -0.0000215 -0.0000184 -0.0004878 0.0000561 -0.0001714 0.0002149 -0.0003014 0.0000290 -0.0002957 0.0001535 -0.0004066 0.0000454 0.0000592 0.0016404 -0.0005266 0.0000787 0.0000505 0.0002349 0.0000983 0.0003566 0.0002016 0.0001503 0.0000931 -0.0013089 0.0060793 0.0020265 0.0011400 0.0005035 0.0125097 -0.0007536 -0.0014636 0.0000223 0.0002536 0.0161065 -0.0327049 0.0122547 -0.0235590
0.0001305 0.0001162 0.0001717 0.0000284 -0.0000259 -0.0002773 0.0000549 -0.0000309 0.0001795 -0.0002181 0.0000257 -0.0002440 0.0004215 -0.0005106 0.0001287 0.0000830 0.0011732 -0.0007830 0.0002020 -0.0000168 0.0002467 0.0001780 0.0003747 0.0002593 0.0001394 0.0001411 -0.0146330 0.0251552 0.0014964 0.0035486 -0.0028902 -0.0035969 -0.0007174 -0.0014181 -0.0000307 0.0003925 0.0048876 -0.0047845 0.0220785 -0.0460092
0.0001067 0.0002421 0.0001611 0.0001286 -0.0000322 -0.0001015 0.0000549 0.0001002 0.0001589 -0.0000115 0.0000104 -0.0001679 0.0009132 -0.0007794 0.0000047 0.0002060 0.0013688 -0.0004217 0.0003635 -0.0000767 0.0002223 0.0001553 0.0003206 0.0003115 0.0001302 0.0001647 -0.0117435 0.0188511 0.0022568 0.0023315 0.0026474 -0.0269823 -0.0006940 -0.0014195 0.0000158 0.0002194 -0.0261926 0.0285200 -0.0026825 0.0065677
0.0001232 0.0001515 0.0001712 0.0000758 -0.0000100 -0.0003061 0.0000540 -0.0001289 0.0000345 -0.0000215 0.0000139 -0.0002714 -0.0000756 -0.0002750 -0.0001276 0.0001953 -0.0002528 -0.0001009 0.0002378 -0.0000211 0.0001994 -0.0000159 0.0002399 0.0002789 0.0001233 0.0001125 -0.0067043 0.0089896 0.0045301 -0.0107014 -0.0032255 -0.0032992 -0.0007106 -0.0014416 0.0001945 -0.0000383 -0.0166488 0.0150928 -0.0182660 0.0259909
0.0001293 -0.0000074 0.0001975 -0.0000719 0.0000051 -0.0005583 0.0000563 -0.0003853 0.0000859 -0.0002654 0.0000228 -0.0004139 -0.0005604 0.0000155 -0.0000215 0.0000095 0.0011945 -0.0027518 0.0000011 0.0001416 0.0002213 -0.0001086 0.0001755 0.0002377 0.0001215 0.0000817 -0.0109069 0.0140658 0.0026078 -0.0135838 -0.0055847 0.0057592 -0.0006854 -0.0014396 0.0001939 -0.0000731 0.0044497 0.0007463 -0.0098663 0.0102652
0.0001176 -0.0000012 0.0002569 -0.0001533 -0.0000234 -0.0004932 0.0000741 -0.0003276 0.0001990 -0.0003049 0.0000231 -0.0003968 -0.0001761 0.0001595 0.0001574 -0.0001429 0.0014331 -0.0025681 0.0001302 0.0001279 0.0002445 -0.0000878 0.0002946 0.0000749 0.0001202 0.0001011 -0.0017199 -0.0033577 -0.0022513 -0.0171511 -0.0125510 0.0166010 -0.0006509 -0.0014245 -0.0000244 0.0001242 -0.0003299 0.0119433 0.0070722 -0.0070575
0.0001123 0.0000605 0.0002088 -0.0001068 -0.0000254 -0.0003820 0.0000867 -0.0002193 0.0002628 -0.0003375 0.0000448 -0.0003318 0.0005974 -0.0000057 0.0002549 -0.0002514 -0.0022329 0.0007868 0.0001378 0.0000843 0.0002447 -0.0000012 0.0003593 0.0000668 0.0001007 0.0001463 0.0150284 -0.0228941 0.0058567 -0.0196689 -0.0223491 0.0277620 -0.0006627 -0.0013857 -0.0000312 0.0002429 -0.0111349 0.0134615 0.0130946 -0.0126687
0.0001054 0.0001618 0.0001708 -0.0000285 -0.0000146 -0.0001982 0.0000838 -0.0000433 0.0002661 -0.0002800 0.0000600 -0.0002295 0.0012677 -0.0008007 0.0001358 -0.0000914 -0.0021759 0.0020818 0.0002223 0.0000082 0.0002340 0.0001258 0.0002661 0.0002824 0.0000768 0.0002247 0.0010195 0.0056733 0.0070637 -0.0147856 -0.0062306 0.0079027 -0.0006804 -0.0012829 0.0000205 0.0002857 -0.0083752 0.0132283 0.0067178 -0.0120594
0.0001018 0.0002634 0.0001617 0.0000656 -0.0000210 -0.0000059 0.0001015 0.0001167 0.0002646 -0.0000611 0.0000613 -0.0001313 0.0009526 -0.0005595 0.0000737 0.0000707 0.0020925 -0.0011479 0.0002426 0.0000775 0.0002250 0.0001344 0.0001388 0.0003427 0.0000916 0.0002477 -0.0181280 0.0121892 0.0014313 0.0005846 -0.0012594 -0.0013675 -0.0006429 -0.0012541 -0.0000108 0.0002109 -0.0062804 0.0085813 0.0048555 -0.0017350
0.0000997 0.0001908 0.0001778 0.0000258 -0.0000064 -0.0002173 0.0001189 -0.0001171 0.0002260 -0.0001328 0.0000576 -0.0002155 0.0008284 -0.0004871 0.0001508 -0.0000576 0.0034516 -0.0023568 0.0000037 0.0001116 0.0002176 -0.0000412 0.0000577 0.0003275 0.0001150 0.0001832 -0.0054746 -0.0248482 -0.0043488 0.0003647 -0.0013481 -0.0023091 -0.0006285 -0.0013186 0.0000208 0.0000356 0.0130786 -0.0283239 0.0053310 0.0066758
0.0001001 0.0000347 0.0001752 -0.0001124 0.0000248 -0.0005410 0.0001255 -0.0004124 0.0002058 -0.0002971 0.0000430 -0.0003331 0.0003946 -0.0003453 0.0001486 -0.0002274 0.0021457 -0.0008479 0.0000368 -0.0001003 0.0001997 -0.0001128 0.0002099 0.0001383 0.0001045 0.0001487 0.0008648 0.0035282 -0.0015663 0.0010255 -0.0027057 0.0048718 -0.0006268 -0.0013127 0.0001209 -0.0000897 0.0124808 -0.0283218 0.0077395 -0.0065683
0.0000991 0.0000284 0.0001857 -0.0001483 0.0000088 -0.0005011 0.0001381 -0.0003600 0.0001668 -0.0002244 0.0000332 -0.0002950 -0.0001951 0.0004642 0.0001378 -0.0002697 0.0003068 -0.0006827 0.0003807 -0.0003213 0.0002102 -0.0000504 0.0003266 0.0000089 0.0001056 0.0001615 -0.0038644 0.0238765 -0.0086729 0.0195928 -0.0036290 -0.0015849 -0.0005990 -0.0012793 0.0001596 -0.0000679 0.0026177 -0.0048816 0.0091320 -0.0237424
0.0000922 0.0000978 0.0002043 -0.0000938 -0.0000051 -0.0003783 0.0001423 -0.0002316 0.0000075 -0.0000074 0.0000291 -0.0002308 -0.0002165 0.0006082 0.0001968 -0.0002866 0.0002371 0.0001912 0.0004357 -0.0003251 0.0002307 0.0000364 0.0002870 0.0001204 0.0000943 0.0002168 -0.0116567 0.0203266 -0.0175684 0.0221283 0.0019877 -0.0136369 -0.0005841 -0.0012215 0.0000182 0.0001622 0.0064315 -0.0019191 -0.0057147 -0.0012809
0.0000935 0.0001739 0.0001365 0.0000393 -0.0000050 -0.0001911 0.0001460 -0.0000611 0.0000907 0.0000048 0.0000209 -0.0001471 -0.0000082 0.0006270 0.0001905 -0.0001704 -0.0006178 0.0022133 0.0001246 0.0000384 0.0002362 0.0001824 0.0002330 0.0002864 0.0000650 0.0003008 -0.0134932 0.0018599 -0.0048343 0.0010454 0.0050437 -0.0054494 -0.0005617 -0.0011197 -0.0000528 0.0003230 0.0086631 -0.0139623 -0.0145896 0.0168050
0.0000869 0.0002830 0.0001534 0.0001215 -0.0000284 0.0000342 0.0001523 0.0001154 0.0002117 -0.0000834 0.0000199 -0.0000284 0.0009082 0.0000352 0.0000962 0.0000718 -0.0027412 0.0032040 0.0000147 0.0003357 0.0002201 0.0003519 0.0002622 0.0003312 0.0000591 0.0003669 -0.0112541 0.0035641 -0.0028603 -0.0037824 0.0049468 -0.0014672 -0.0005281 -0.0010539 -0.0000275 0.0003334 0.0009538 0.0022816 -0.0099308 0.0199859
0.0000736 0.0004150 0.0001597 0.0002438 -0.0000483 0.0002523 0.0001530 0.0003099 0.0000605 0.0001511 0.0000057 0.0001364 0.0009446 -0.0002838 0.0001232 0.0001415 -0.0031346 0.0038691 0.0000330 0.0004480 0.0002004 0.0004943 0.0003752 0.0002688 0.0000570 0.0004328 -0.0075820 0.0090313 0.0013528 -0.0031586 0.0033532 0.0009134 -0.0005059 -0.0009881 0.0000096 0.0003931 0.0039333 -0.0014903 0.0093005 -0.0053117
0.0000580 0.0005457 0.0001666 0.0003245 -0.0000412 0.0004431 0.0001419 0.0005047 -0.0000397 0.0004045 -0.0000103 0.0002974 0.0005085 0.0001608 0.0002030 0.0001443 -0.0040662 0.0043868 0.0001266 0.0003917 0.0002111 0.0005973 0.0002754 0.0003962 0.0000457 0.0005067 0.0015896 -0.0017136 -0.0031283 0.0101716 0.0069370 -0.0035484 -0.0005061 -0.0009347 0.0000362 0.0005251 0.0061113 -0.0139111 0.0060756 -0.0073879
0.0000528 0.0006026 0.0001669 0.0004048 0.0000002 0.0003193 0.0001219 0.0004338 -0.0001270 0.0005622 -0.0000131 0.0002892 0.0004921 0.0001986 0.0002404 0.0001072 -0.0023860 0.0023183 0.0001273 0.0003501 0.0002102 0.0004326 0.0002555 0.0003802 0.0000356 0.0004806 0.0133956 -0.0200875 -0.0087726 0.0142312 0.0101799 -0.0039209 -0.0005211 -0.0009943 -0.0000119 0.0004276 -0.0095269 0.0148181 -0.0163285 0.0092651
0.0000669 0.0003920 0.0001288 0.0003274 0.0000068 -0.0001173 0.0001167 0.0000577 -0.0001121 0.0003856 0.0000029 0.0000843 -0.0000487 0.0003744 0.0002458 -0.0000501 0.0002426 -0.0000120 0.0000657 0.0002207 0.0002159 0.0001389 0.0002556 0.0003345 0.0000413 0.0003673 0.0145744 -0.0205382 -0.0033522 0.0005067 0.0076485 -0.0120409 -0.0005473 -0.0010608 -0.0000820 0.0002739 -0.0149213 0.0181944 0.0118227 -0.0270082
0.0000606 0.0001882 0.0000855 0.0001708 -0.0000379 -0.0003077 0.0001384 -0.0001449 -0.0000659 0.0001823 0.0000149 -0.0000451 -0.0002656 0.0002194 0.0002355 -0.0002393 -0.0006683 0.0011088 0.0000178 0.0001824 0.0002290 0.0000994 0.0000527 0.0004711 0.0000494 0.0003176 0.0009444 -0.0109635 0.0016036 -0.0035493 -0.0055788 -0.0131644 -0.0005623 -0.0011000 -0.0001047 0.0002940 -0.0011870 -0.0127686 0.0124918 -0.0188932
0.0000602 0.0001877 0.0000244 0.0001882 -0.0000383 -0.0002786 0.0001533 -0.0000901 -0.0000353 0.0001406 -0.0000140 0.0000093 -0.0002396 -0.0000174 0.0001530 -0.0001064 -0.0012122 0.0021146 -0.0000891 0.0002441 0.0002053 0.0001715 0.0001698 0.0003010 0.0000499 0.0003146 -0.0141434 0.0138735 0.0092933 -0.0036829 -0.0021374 -0.0018585 -0.0005667 -0.0011335 -0.0000259 0.0002972 0.0003411 -0.0103641 0.0011984 0.0015878
0.0000649 0.0002396 0.0000951 0.0001189 -0.0000244 -0.0001888 0.0001476 0.0000414 0.0000530 0.0001367 -0.0000302 0.0000977 0.0004706 -0.0002879 0.0000575 0.0001590 -0.0023176 0.0026216 -0.0001208 0.0002847 0.0001934 0.0002660 0.0003303 0.0002158 0.0000505 0.0003359 -0.0076474 0.0109794 0.0089992 0.0030661 0.0030290 -0.0038628 -0.0005812 -0.0010905 -0.0000811 0.0003485 -0.0053293 0.0067901 0.0013033 -0.0021215
0.0000564 0.0003187 0.0001396 0.0001767 -0.0000288 -0.0000149 0.0001420 0.0002120 0.0000398 0.0001962 -0.0000207 0.0001839 0.0005202 0.0000734 0.0001277 0.0001204 -0.0006288 0.0008344 0.0000390 0.0002558 0.0002104 0.0003836 0.0001779 0.0003896 0.0000286 0.0003946 -0.0032678 -0.0088237 0.0054911 -0.0074499 0.0190517 -0.0247793 -0.0005636 -0.0010248 -0.0000577 0.0003620 -0.0004296 -0.0023211 -0.0048587 0.0026594
0.0000559 0.0004080 0.0001310 0.0003193 -0.0000348 0.0001811 0.0001520 0.0003727 -0.0000234 0.0002885 -0.0000246 0.0003015 -0.0002830 0.0007385 0.0001397 0.0001732 0.0000416 -0.0005335 0.0001403 0.0003076 0.0002132 0.0005154 0.0000747 0.0004854 0.0000156 0.0004538 0.0005127 -0.0034623 -0.0018779 -0.0349243 0.0112583 -0.0038043 -0.0005288 -0.0009541 -0.0000417 0.0004464 -0.0106368 0.0043119 -0.0009194 0.0023119
0.0000584 0.0005136 0.0001375 0.0003875 -0.0000551 0.0004235 0.0001423 0.0005589 -0.0000315 0.0004883 -0.0000416 0.0004394 -0.0000894 0.0005867 0.0001076 0.0003160 0.0016459 -0.0019419 0.0000028 0.0005283 0.0001983 0.0006379 0.0001005 0.0004774 0.0000195 0.0005059 -0.0078244 0.0084366 -0.0133027 0.0030992 0.0037117 0.0024801 -0.0004874 -0.0009237 -0.0000228 0.0005062 -0.0189579 0.0225588 -0.0017093 0.0057973
0.0000409 0.0006340 0.0001102 0.0005146 -0.0000544 0.0006524 0.0001300 0.0007495 -0.0000094 0.0006007 -0.0000529 0.0006029 0.0002110 0.0004748 0.0000466 0.0004111 0.0030322 -0.0016896 -0.0000782 0.0006835 0.0001674 0.0007658 0.0002290 0.0004454 0.0000095 0.0005601 -0.0057224 -0.0130804 -0.0040420 0.0132907 0.0127099 -0.0141983 -0.0004987 -0.0009134 -0.0001005 0.0006371 -0.0041459 0.0110800 -0.0083579 0.0142295
0.0000385 0.0005959 0.0001100 0.0005430 -0.0000281 0.0003675 0.0001164 0.0005222 -0.0001234 0.0006535 -0.0000497 0.0005067 -0.0003459 0.0006437 0.0000148 0.0003365 0.0003772 0.0008593 -0.0000427 0.0006006 0.0001438 0.0005837 0.0001749 0.0005087 0.0000194 0.0005015 0.0184941 -0.0312460 -0.0021993 0.0041197 0.0028544 -0.0046832 -0.0005447 -0.0009662 -0.0002878 0.0006557 0.0000016 0.0057626 0.0042841 0.0006118
0.0000525 0.0003918 0.0000789 0.0003910 -0.0000214 -0.0001119 0.0001088 0.0001366 -0.0000658 0.0004238 -0.0000718 0.0002813 -0.0003458 0.0007270 0.0000954 0.0001104 0.0015326 -0.0009041 0.0000995 0.0002668 0.0001360 0.0003373 0.0000365 0.0005215 0.0000421 0.0003896 0.0122070 -0.0034322 -0.0066548 0.0070029 -0.0042960 0.0076215 -0.0005577 -0.0010177 -0.0000982 0.0003836 -0.0073517 0.0081377 0.0062937 -0.0054296
0.0000591 0.0003000 0.0000059 0.0003385 -0.0000272 -0.0001623 0.0001301 0.0001145 0.0001100 0.0002359 -0.0000786 0.0002382 0.0002207 0.0002743 0.0000571 0.0001470 -0.0001585 0.0003923 0.0001893 0.0001161 0.0001423 0.0003378 0.0001144 0.0004689 0.0000283 0.0003807 0.0109032 -0.0041526 -0.0011016 0.0071696 0.0064259 -0.0086846 -0.0005516 -0.0010223 -0.0000016 0.0003429 -0.0201897 0.0149317 0.0062402 -0.0113124
0.0000634 0.0003048 0.0000632 0.0003216 -0.0000252 -0.0000900 0.0001318 0.0002013 0.0001967 0.0002036 -0.0000803 0.0002939 0.0008271 -0.0005285 0.0000252 0.0002437 -0.0032863 0.0030801 0.0002076 0.0000760 0.0001531 0.0003562 0.0000334 0.0005966 0.0000095 0.0004020 0.0172602 -0.0240826 0.0072861 -0.0103932 -0.0013578 -0.0149528 -0.0005324 -0.0010407 0.0000104 0.0003026 -0.0264337 0.0331609 0.0007985 -0.0019704
0.0000556 0.0003514 0.0001307 0.0003330 -0.0000240 0.0000348 0.0001285 0.0003177 0.0000643 0.0003945 -0.0000895 0.0003665 0.0002142 0.0003054 0.0000793 0.0002351 -0.0045271 0.0049387 0.0002788 0.0001091 0.0001505 0.0004602 -0.0000141 0.0006433 0.0000247 0.0004161 0.0068770 -0.0121364 0.0122312 -0.0188816 -0.0056659 -0.0081041 -0.0005276 -0.0009848 -0.0000172 0.0003684 -0.0051415 0.0153900 -0.0029493 -0.0029227
0.0000446 0.0004423 0.0001100 0.0004281 -0.0000301 0.0002146 0.0001202 0.0004786 -0.0000227 0.0005052 -0.0000861 0.0004368 -0.0004112 0.0011158 0.0001694 0.0002192 -0.0027478 0.0033798 0.0001938 0.0003805 0.0001533 0.0005977 0.0000013 0.0006664 0.0000199 0.0004695 0.0014169 -0.0134817 0.0077651 -0.0010403 0.0114342 -0.0369073 -0.0005154 -0.0008941 -0.0000650 0.0004680 -0.0000927 0.0043133 0.0098177 -0.0298214
0.0000373 0.0005397 0.0000304 0.0005504 -0.0000344 0.0003971 0.0001258 0.0006160 -0.0000547 0.0005532 -0.0000954 0.0005505 0.0001090 0.0007551 0.0002381 0.0002403 0.0007552 -0.0005589 -0.0000343 0.0006592 0.0001447 0.0007169 -0.0000837 0.0007801 0.0000071 0.0005298 0.0075487 -0.0128012 0.0072653 -0.0019377 0.0159058 -0.0369341 -0.0005024 -0.0008049 -0.0000301 0.0005503 -0.0157756 0.0199085 0.0075838 -0.0062567
0.0000234 0.0006461 0.0000232 0.0006330 -0.0000257 0.0005165 0.0001291 0.0007142 -0.0001805 0.0007648 -0.0001080 0.0006326 0.0001984 0.0006286 0.0001687 0.0003281 0.0000149 0.0003884 0.0000362 0.0005619 0.0001132 0.0006762 0.0000104 0.0007014 0.0000208 0.0005133 0.0069824 -0.0055390 -0.0023827 -0.0031198 0.0068507 -0.0130831 -0.0005125 -0.0008237 -0.0001692 0.0006141 -0.0074557 0.0077487 0.0071642 0.0040157
0.0000191 0.0005266 0.0000291 0.0005609 -0.0000115 0.0002141 0.0001166 0.0004535 -0.0000703 0.0006180 -0.0001041 0.0004962 -0.0001520 0.0007172 -0.0000214 0.0003865 -0.0008975 0.0018925 0.0000958 0.0003921 0.0001012 0.0004711 -0.0000076 0.0006468 0.0000353 0.0004260 -0.0014875 -0.0040358 -0.0064756 0.0085735 -0.0020367 -0.0021735 -0.0005175 -0.0009180 -0.0000887 0.0003960 0.0053617 -0.0183170 0.0057472 0.0016186
0.0000485 0.0002997 -0.0000148 0.0004390 -0.0000027 -0.0001395 0.0001217 0.0001543 -0.0000154 0.0003976 -0.0000969 0.0003229 -0.0006794 0.0010341 -0.0001303 0.0003625 -0.0003859 0.0020322 0.0001093 0.0002689 0.0001127 0.0003819 -0.0000006 0.0005728 0.0000354 0.0003766 -0.0152471 0.0188876 0.0074444 -0.0141537 -0.0069313 0.0080002 -0.0005362 -0.0009261 -0.0000195 0.0003543 0.0064888 -0.0125948 0.0005964 0.0004978
0.0000583 0.0002666 0.0000054 0.0003728 -0.0000118 -0.0001214 0.0001317 0.0001883 -0.0000665 0.0004079 -0.0001033 0.0003156 0.0006921 -0.0000376 -0.0001200 0.0002998 -0.0000945 0.0011060 0.0000435 0.0003497 0.0001103 0.0004214 0.0000377 0.0005482 0.0000414 0.0003612 -0.0134531 0.0245074 0.0045517 -0.0153080 -0.0002468 -0.0021600 -0.0005453 -0.0008809 -0.0000952 0.0004671 0.0067710 -0.0073521 0.0030618 -0.0025218
0.0000401 0.0003196 0.0000081 0.0004046 -0.0000071 -0.0000291 0.0001414 0.0002726 -0.0001211 0.0004953 -0.0000855 0.0003500 0.0011531 -0.0003631 -0.0001352 0.0003496 0.0006904 0.0001282 -0.0001447 0.0004955 0.0000921 0.0005049 -0.0001772 0.0006849 0.0000327 0.0003779 -0.0042344 0.0074782 0.0079538 -0.0232547 0.0144821 -0.0336681 -0.0005062 -0.0008762 -0.0001003 0.0005142 0.0150249 -0.0275518 0.0006587 0.0010834
0.0000384 0.0003998 -0.0000248 0.0004948 -0.0000016 0.0001316 0.0001576 0.0004024 -0.0001002 0.0005237 -0.0000821 0.0004234 -0.0000252 0.0008258 -0.0001323 0.0004462 -0.0007480 0.0007986 -0.0000788 0.0004656 0.0000815 0.0006083 -0.0000966 0.0006355 0.0000219 0.0004228 0.0011673 0.0013200 0.0051178 -0.0198197 -0.0002085 -0.0055116 -0.0004708 -0.0008624 0.0000384 0.0004271 -0.0009309 0.0036002 0.0081893 -0.0200938
0.0000372 0.0004919 -0.0000853 0.0006167 -0.0000010 0.0003132 0.0001597 0.0005476 -0.0000273 0.0004790 -0.0000988 0.0005265 -0.0005969 0.0013233 -0.0000488 0.0004185 -0.0014477 0.0010263 0.0000208 0.0006161 0.0000915 0.0007028 0.0000885 0.0005244 0.0000383 0.0004516 0.0052926 -0.0040299 -0.0108325 0.0149817 -0.0096674 0.0107440 -0.0004463 -0.0008158 0.0000577 0.0004349 -0.0169548 0.0196896 0.0200251 -0.0490356
0.0000351 0.0005851 -0.0000238 0.0006369 0.0000059 0.0004911 0.0001524 0.0007016 -0.0001040 0.0006177 -0.0001015 0.0006356 -0.0002835 0.0010732 -0.0000141 0.0004543 0.0000420 0.0006412 0.0000604 0.0006991 0.0000896 0.0008303 0.0002041 0.0005069 0.0000300 0.0005000 0.0055556 -0.0108895 -0.0102194 0.0083076 -0.0182049 0.0186021 -0.0004562 -0.0007456 -0.0000826 0.0006088 0.0013848 -0.0031252 0.0074074 -0.0119363
0.0000356 0.0006201 0.0000311 0.0006569 0.0000272 0.0003762 0.0001431 0.0006174 -0.0002294 0.0008112 -0.0001013 0.0006060 0.0002978 0.0004476 -0.0000816 0.0005715 -0.0008827 0.0013949 0.0000694 0.0005725 0.0000672 0.0006830 0.0000086 0.0007338 0.0000081 0.0004769 -0.0056301 0.0052903 -0.0165076 0.0131158 -0.0178521 0.0148884 -0.0004686 -0.0008046 -0.0001989 0.0006517 -0.0010347 0.0060263 0.0007715 0.0009920
0.0000410 0.0004504 -0.0000066 0.0006011 0.0000486 -0.0000120 0.0001352 0.0002869 -0.0000266 0.0005730 -0.0000842 0.0004114 0.0004912 -0.0000723 -0.0000961 0.0004240 -0.0003080 0.0007876 0.0001844 0.0002936 0.0000483 0.0004166 -0.0002531 0.0008636 0.0000181 0.0003668 -0.0012753 -0.0006319 -0.0272666 0.0360081 -0.0060146 0.0174628 -0.0004696 -0.0009139 -0.0002452 0.0005958 -0.0111276 0.0157035 -0.0166991 0.0116796
0.0000562 0.0002674 -0.0000167 0.0004157 0.0000344 -0.0001667 0.0001437 0.0001473 0.0000622 0.0004046 -0.0000938 0.0003225 0.0007068 -0.0002549 -0.0001128 0.0003498 0.0011577 -0.0016527 0.0001678 0.0002594 0.0000544 0.0003807 -0.0001293 0.0005828 0.0000304 0.0003065 0.0036900 -0.0027250 -0.0131979 0.0163854 -0.0082747 0.0233878 -0.0004813 -0.0009373 -0.0001180 0.0004996 0.0006201 -0.0022247 -0.0052492 0.0065476
0.0000687 0.0002449 0.0000149 0.0003424 0.0000322 -0.0001324 0.0001586 0.0001961 -0.0001163 0.0004298 -0.0000987 0.0003240 0.0013072 -0.0008511 0.0000085 0.0002518 0.0025231 -0.0027278 -0.0000171 0.0004717 0.0000587 0.0004103 -0.0000935 0.0004481 0.0000202 0.0003077 0.0055172 -0.0041746 -0.0015886 -0.0052467 -0.0027500 0.0112947 -0.0004864 -0.0009276 -0.0001167 0.0004665 0.0016679 -0.0091551 0.0073868 -0.0026704
0.0000635 0.0002913 0.0000725 0.0003402 0.0000371 -0.0000294 0.0001772 0.0002777 -0.0001261 0.0004778 -0.0000967 0.0003432 0.0004339 -0.0001499 0.0000912 0.0001773 0.0015294 -0.0011977 -0.0000311 0.0005518 0.0000535 0.0004766 -0.0001505 0.0005499 0.0000303 0.0003201 0.0051244 -0.0155196 -0.0132288 0.0188556 0.0056342 -0.0034571 -0.0004809 -0.0008852 0.0000267 0.0003891 0.0012138 -0.0018527 0.0108929 -0.0218363
0.0000457 0.0003833 0.0000312 0.0004149 0.0000335 0.0001478 0.0001815 0.0004201 -0.0000624 0.0005042 -0.0001041 0.0004181 -0.0002318 0.0008871 0.0000000 0.0004000 0.0004611 -0.0007172 0.0000664 0.0005266 0.0000489 0.0005900 -0.0001450 0.0006199 0.0000530 0.0003401 -0.0033218 0.0037528 -0.0038313 0.0167900 -0.0049526 0.0036831 -0.0004608 -0.0008306 0.0000879 0.0003640 0.0076518 -0.0095303 -0.0004907 -0.0096618
0.0000557 0.0004714 -0.0000048 0.0004992 0.0000248 0.0003385 0.0001842 0.0005694 -0.0000265 0.0005331 -0.0000833 0.0004878 0.0005496 0.0006738 0.0000052 0.0004511 0.0013510 -0.0011463 0.0001237 0.0004707 0.0000550 0.0007079 0.0001036 0.0004694 0.0000486 0.0003911 -0.0129885 0.0143994 0.0027229 0.0015466 -0.0084016 0.0085995 -0.0004604 -0.0007201 -0.0001350 0.0005955 0.0097907 -0.0180637 -0.0049203 0.0020650
0.0000594 0.0005794 0.0000562 0.0005432 0.0000160 0.0005400 0.0001862 0.0007072 -0.0000183 0.0005676 -0.0000891 0.0005849 0.0001066 0.0008126 0.0000368 0.0004758 0.0007991 -0.0003433 -0.0000367 0.0007596 0.0000591 0.0008118 0.0000954 0.0005699 0.0000349 0.0004490 -0.0044319 -0.0047778 0.0022066 -0.0102432 -0.0009128 -0.0036436 -0.0004585 -0.0006748 -0.0003086 0.0008726 0.0033972 -0.0178887 -0.0003611 0.0073452
0.0000576 0.0005403 0.0000668 0.0005688 0.0000556 0.0002851 0.0001889 0.0004911 0.0001345 0.0003237 -0.0001003 0.0004921 -0.0005044 0.0012514 0.0000302 0.0004367 0.0008743 0.0002265 -0.0000654 0.0008074 0.0000448 0.0006421 -0.0000925 0.0006866 0.0000356 0.0003948 0.0047613 -0.0115476 -0.0008100 -0.0004479 0.0002148 -0.0110245 -0.0004406 -0.0007765 -0.0001010 0.0005726 0.0054457 -0.0332689 0.0014167 0.0145601
0.0000650 0.0003545 0.0000408 0.0004469 0.0000751 -0.0001256 0.0001950 0.0001439 0.0000098 0.0003551 -0.0000889 0.0002675 -0.0004899 0.0009671 -0.0000566 0.0003187 -0.0008298 0.0002819 0.0000375 0.0004384 0.0000334 0.0003913 -0.0000488 0.0005287 0.0000297 0.0003004 0.0032287 -0.0079110 0.0032738 -0.0044120 0.0067308 -0.0207646 -0.0004310 -0.0008691 0.0002180 0.0001522 0.0246654 -0.0548594 0.0053471 -0.0008123
0.0000616 0.0002608 0.0000729 0.0003187 0.0000485 -0.0001457 0.0002007 0.0001238 -0.0000922 0.0003309 -0.0000731 0.0002001 0.0000808 0.0002284 -0.0000785 0.0002849 -0.0016377 0.0008848 -0.0001541 0.0005335 0.0000379 0.0003344 0.0000265 0.0004040 0.0000242 0.0002714 -0.0000105 0.0068541 -0.0048581 0.0092898 0.0073608 -0.0132909 -0.0004385 -0.0008471 0.0001206 0.0002675 0.0209264 -0.0384697 0.0022112 -0.0016709
0.0000558 0.0002542 0.0000877 0.0002994 0.0000584 -0.0000716 0.0002102 0.0002074 0.0001330 0.0000590 -0.0000537 0.0002039 0.0001106 0.0000938 -0.0000570 0.0002781 0.0004957 0.0004568 -0.0001443 0.0005823 0.0000165 0.0003572 0.0000366 0.0004583 0.0000369 0.0002472 -0.0061075 0.0073609 -0.0074237 0.0176624 0.0096384 -0.0180528 -0.0004558 -0.0008005 -0.0000191 0.0003492 -0.0047896 0.0068234 -0.0001422 0.0051402
0.0000519 0.0002969 0.0000478 0.0003433 0.0000693 0.0000519 0.0002241 0.0002995 0.0001163 0.0001317 -0.0000301 0.0002388 -0.0000097 0.0002489 0.0000364 0.0001888 0.0005351 -0.0004089 0.0001305 0.0002872 0.0000039 0.0004298 -0.0000016 0.0004806 0.0000433 0.0002532 0.0026105 -0.0195172 0.0076877 -0.0085798 -0.0007282 -0.0072405 -0.0004462 -0.0007698 -0.0000569 0.0004034 -0.0281861 0.0242687 -0.0001337 0.0128721
0.0000613 0.0003665 -0.0000415 0.0004759 0.0000607 0.0002259 0.0002182 0.0004254 0.0000168 0.0002967 -0.0000497 0.0003355 0.0002795 0.0003290 0.0000561 0.0002303 0.0021737 -0.0018259 0.0001231 0.0003165 0.0000281 0.0004954 -0.0000211 0.0004133 0.0000240 0.0003134 -0.0012271 -0.0023080 0.0177776 -0.0379636 -0.0076996 0.0155598 -0.0004100 -0.0007458 -0.0001339 0.0004726 -0.0084030 0.0073011 -0.0108401 0.0290830
0.0000590 0.0004589 -0.0000468 0.0005387 0.0000563 0.0003791 0.0002038 0.0005565 -0.0000016 0.0003521 -0.0000780 0.0004198 -0.0001105 0.0008189 0.0000093 0.0003486 0.0009910 0.0002458 0.0000114 0.0005569 0.0000263 0.0004846 0.0001020 0.0003644 0.0000067 0.0003467 -0.0018235 -0.0076898 -0.0003857 -0.0011097 -0.0000080 0.0061564 -0.0004150 -0.0007462 -0.0001758 0.0004267 0.0022761 0.0012140 -0.0112463 0.0214868
0.0000558 0.0003798 0.0000075 0.0004359 0.0000739 0.0001381 0.0002165 0.0003214 -0.0000323 0.0003242 -0.0000833 0.0003230 0.0000426 0.0005075 0.0000575 0.0002301 0.0017156 -0.0012485 -0.0000348 0.0005098 0.0000127 0.0003286 0.0001243 0.0002592 0.0000285 0.0002578 0.0091465 -0.0278341 -0.0022743 0.0019034 0.0060605 -0.0057786 -0.0004451 -0.0007971 -0.0001795 0.0003874 0.0075962 -0.0045098 -0.0069852 0.0092327
0.0000727 0.0001958 0.0000302 0.0002742 0.0000924 -0.0001761 0.0002230 0.0000424 -0.0001361 0.0003008 -0.0000740 0.0001444 0.0001831 -0.0003313 -0.0000164 0.0002251 0.0027688 -0.0031100 -0.0000660 0.0003453 0.0000216 0.0002341 -0.0000393 0.0002749 0.0000410 0.0001773 -0.0034175 0.0102463 -0.0014566 0.0051620 -0.0004851 0.0013043 -0.0004465 -0.0008605 -0.0000641 0.0002687 -0.0028747 0.0116644 -0.0025916 -0.0015537
0.0000854 0.0001671 0.0000416 0.0002404 0.0000869 -0.0001706 0.0002309 0.0000674 -0.0000560 0.0001455 -0.0000492 0.0000843 -0.0001386 -0.0002795 -0.0000520 0.0002255 -0.0005364 -0.0001445 0.0000398 0.0003208 0.0000370 0.0002653 -0.0001670 0.0004153 0.0000333 0.0001806 -0.0088868 0.0239784 -0.0076910 0.0111792 -0.0016598 -0.0043538 -0.0004357 -0.0008847 -0.0000789 0.0002830 -0.0187322 0.0180430 -0.0034740 0.0055518
0.0000775 0.0002246 0.0000305 0.0002681 0.0000908 -0.0000831 0.0002337 0.0001438 -0.0000454 0.0001381 -0.0000490 0.0001054 -0.0006997 0.0003046 -0.0000305 0.0001851 0.0003006 -0.0015979 0.0000405 0.0004211 0.0000269 0.0003577 -0.0001015 0.0003930 0.0000406 0.0002044 0.0044348 0.0034428 -0.0081085 0.0045272 0.0054255 -0.0203631 -0.0004276 -0.0008538 -0.0001278 0.0003471 0.0020819 -0.0152897 -0.0040974 0.0023284
0.0000808 0.0002878 0.0000537 0.0002866 0.0001050 0.0000611 0.0002165 0.0002841 -0.0001446 0.0003157 -0.0000693 0.0001772 -0.0007380 0.0008101 0.0000110 0.0002602 0.0003401 -0.0023869 0.0001021 0.0003076 0.0000110 0.0004812 0.0000226 0.0003176 0.0000563 0.0002379 0.0082057 -0.0088590 -0.0082944 0.0083342 0.0131656 -0.0406038 -0.0004358 -0.0007909 -0.0000492 0.0002768 -0.0024437 0.0003151 0.0151442 -0.0558505
0.0000758 0.0003833 0.0000930 0.0003279 0.0001026 0.0002355 0.0002063 0.0004262 0.0000310 0.0002358 -0.0000738 0.0002626 0.0000635 0.0003501 -0.0000547 0.0004516 -0.0018101 0.0006471 -0.0001733 0.0005873 0.0000057 0.0006035 -0.0000787 0.0004250 0.0000452 0.0002858 -0.0097108 0.0060984 0.0048402 0.0004157 0.0258085 -0.0459769 -0.0004338 -0.0007567 -0.0000138 0.0002911 -0.0033136 0.0135087 0.0057710 -0.0220648
0.0000671 0.0004208 0.0000343 0.0004066 0.0001261 0.0001494 0.0002023 0.0003150 0.0001447 0.0000685 -0.0000638 0.0002094 0.0003606 -0.0003311 -0.0001117 0.0004486 0.0005402 -0.0005052 -0.0002813 0.0006867 0.0000197 0.0004545 0.0000706 0.0002859 0.0000364 0.0002464 -0.0114245 0.0063955 0.0077195 -0.0037128 0.0203704 -0.0368504 -0.0004526 -0.0008220 0.0000297 0.0001605 0.0021480 0.0104414 -0.0125003 0.0126354
0.0000845 0.0002520 -0.0000185 0.0003322 0.0001573 -0.0001973 0.0001926 0.0000157 -0.0000244 0.0001815 -0.0000630 0.0000387 0.0000283 -0.0000461 -0.0000098 0.0001414 0.0027260 -0.0041879 -0.0000523 0.0003830 0.0000302 0.0001693 0.0001349 0.0002546 0.0000361 0.0001525 -0.0061548 0.0113446 0.0013311 -0.0058724 0.0047042 -0.0263648 -0.0004786 -0.0009041 0.0000430 -0.0000275 -0.0047041 0.0049569 -0.0197109 0.0108589
0.0000995 0.0000982 -0.0000151 0.0001975 0.0001231 -0.0002836 0.0002004 -0.0000730 -0.0000682 0.0001375 -0.0000544 -0.0000465 -0.0006241 0.0006248 0.0000760 -0.0000225 0.0012587 -0.0020735 -0.0002551 0.0004483 0.0000181 0.0001124 -0.0000547 0.0003121 0.0000313 0.0001148 -0.0126967 0.0221903 -0.0002477 0.0032930 0.0011850 -0.0126691 -0.0004823 -0.0009208 -0.0000402 0.0000212 0.0036678 -0.0150633 0.0043657 -0.0214916
0.0001002 0.0000912 -0.0000069 0.0001433 0.0001166 -0.0002208 0.0002201 -0.0000257 0.0000680 -0.0001002 -0.0000339 -0.0000507 0.0000415 -0.0002530 0.0000354 0.0000550 0.0000524 -0.0004134 -0.0002616 0.0003803 0.0000165 0.0001498 -0.0001164 0.0003364 0.0000430 0.0000918 -0.0026397 0.0079845 -0.0057546 0.0086249 -0.0087518 0.0075443 -0.0004700 -0.0009453 0.0000126 -0.0000553 0.0109092 -0.0116491 -0.0159529 0.0258105
0.0001006 0.0001249 0.0000322 0.0001032 0.0001443 -0.0001386 0.0002184 0.0000735 0.0000557 -0.0000313 -0.0000076 -0.0000424 0.0009054 -0.0007467 -0.0000849 0.0002771 -0.0028401 0.0000574 -0.0000751 0.0002943 0.0000222 0.0002117 -0.0000602 0.0003032 0.0000431 0.0001010 0.0168958 -0.0306204 0.0016118 -0.0084004 -0.0105281 0.0045839 -0.0004463 -0.0009434 -0.0000033 0.0000262 0.0042652 -0.0044142 -0.0196077 0.0334184
0.0001033 0.0001929 0.0000475 0.0001561 0.0001468 0.0000418 0.0002189 0.0002302 -0.0000219 0.0001320 -0.0000266 0.0000530 0.0005074 -0.0002337 -0.0001079 0.0003637 -0.0034867 0.0020073 -0.0000580 0.0003848 0.0000236 0.0002810 -0.0000147 0.0002512 0.0000401 0.0001202 0.0193309 -0.0401556 0.0076813 -0.0237301 -0.0115696 0.0040070 -0.0004381 -0.0008841 -0.0001006 0.0002887 -0.0164743 0.0188790 -0.0039998 0.0114412
0.0000892 0.0002993 0.0000170 0.0002435 0.0001286 0.0002418 0.0002231 0.0003815 -0.0000276 0.0001797 -0.0000519 0.0001867 0.0003452 -0.0000500 -0.0000611 0.0002745 -0.0002376 0.0018042 -0.0001603 0.0005873 0.0000193 0.0003709 -0.0001200 0.0004113 0.0000278 0.0001611 0.0163247 -0.0317021 0.0001711 -0.0064693 -0.0163997 0.0102598 -0.0004430 -0.0008235 -0.0001069 0.0003439 -0.0129348 0.0173771 0.0052873 -0.0013612
0.0000867 0.0003752 -0.0000195 0.0003374 0.0001487 0.0002485 0.0002120 0.0003875 -0.0000712 0.0002337 -0.0000266 0.0001718 0.0002463 0.0004801 -0.0000293 0.0002165 -0.0002173 0.0019835 -0.0001658 0.0006320 -0.0000011 0.0002767 -0.0001445 0.0002937 0.0000172 0.0001403 0.0094170 -0.0264715 0.0018387 0.0074179 -0.0081623 0.0028283 -0.0004532 -0.0008649 -0.0000991 0.0002285 -0.0124527 0.0107029 0.0007439 -0.0004533
0.0000954 0.0002371 -0.0000025 0.0002628 0.0001779 -0.0000946 0.0001955 0.0001017 -0.0001119 0.0001856 -0.0000109 -0.0000107 0.0001656 0.0002148 -0.0000323 0.0000920 -0.0022543 0.0028127 -0.0000944 0.0003752 -0.0000150 0.0000603 0.0000666 -0.0000581 0.0000221 0.0000342 0.0083186 -0.0231638 -0.0036237 0.0102553 0.0069972 -0.0029482 -0.0004580 -0.0009455 -0.0001940 0.0001595 -0.0013063 -0.0012378 -0.0117446 0.0072760
0.0000946 0.0000554 0.0000391 0.0000745 0.0001630 -0.0003390 0.0001928 -0.0001122 -0.0000468 0.0000175 -0.0000258 -0.0001581 -0.0001012 -0.0001726 -0.0000045 0.0000050 0.0011166 -0.0009353 -0.0002006 0.0003239 -0.0000087 0.0000115 0.0001180 -0.0001445 0.0000299 -0.0000159 0.0065458 -0.0178718 -0.0066187 0.0037502 0.0120949 -0.0077603 -0.0004662 -0.0009907 -0.0000294 -0.0000271 0.0042467 -0.0048698 -0.0019866 -0.0023855
0.0000989 0.0000310 -0.0000137 0.0000716 0.0001566 -0.0003170 0.0001897 -0.0000842 0.0000763 -0.0001495 -0.0000164 -0.0001956 0.0002587 -0.0004503 0.0000545 -0.0000151 0.0014783 -0.0007323 -0.0000929 0.0002189 0.0000068 0.0000455 -0.0000496 0.0000006 0.0000315 0.0000024 0.0055544 -0.0103415 -0.0076361 0.0073157 0.0049475 -0.0066166 -0.0004499 -0.0009880 0.0001275 -0.0001400 -0.0056348 0.0117028 -0.0080794 0.0171660
0.0001159 0.0000443 0.0000334 0.0000219 0.0001514 -0.0002290 0.0001792 0.0000025 0.0000009 -0.0000230 -0.0000091 -0.0001610 0.0010568 -0.0007754 0.0000556 -0.0000674 -0.0002400 0.0015456 -0.0000017 0.0001334 0.0000279 0.0000911 -0.0000303 -0.0000250 0.0000440 0.0000229 0.0066186 -0.0007877 -0.0077902 -0.0006690 0.0012407 -0.0143742 -0.0004238 -0.0009218 -0.0000451 0.0000644 0.0088425 -0.0071499 -0.0034066 0.0129536
0.0001242 0.0001022 0.0000530 0.0000417 0.0001354 -0.0000465 0.0001860 0.0001270 -0.0000904 0.0001191 -0.0000311 -0.0000685 0.0009162 -0.0008177 0.0000563 0.0000495 0.0013711 -0.0005201 -0.0001703 0.0003773 0.0000349 0.0001940 0.0000784 -0.0000013 0.0000500 0.0000459 0.0071352 -0.0079106 0.0128580 -0.0429088 -0.0055317 -0.0032950 -0.0004168 -0.0008562 -0.0000712 0.0001039 0.0059468 -0.0067296 0.0033648 0.0038487
0.0001145 0.0002036 0.0000021 0.0001683 0.0001239 0.0001397 0.0001865 0.0002670 -0.0000005 0.0000527 -0.0000251 0.0000182 0.0003996 -0.0004710 0.0001017 0.0001107 0.0011744 -0.0017028 -0.0000134 0.0003346 0.0000239 0.0003200 -0.0001095 0.0003268 0.0000319 0.0000989 0.0035364 -0.0135662 -0.0019080 -0.0029707 0.0075368 -0.0082292 -0.0004040 -0.0008031 -0.0001350 0.0002479 -0.0054333 0.0032299 -0.0037297 0.0152892
0.0001021 0.0003056 0.0000326 0.0002057 0.0001405 0.0002825 0.0001748 0.0004177 -0.0000867 0.0002181 -0.0000207 0.0001163 -0.0008870 0.0010869 0.0000997 0.0000854 0.0012148 -0.0012570 0.0000482 0.0004351 0.0000187 0.0004246 -0.0002220 0.0004519 0.0000347 0.0001466 -0.0060359 0.0021257 -0.0116562 0.0056594 0.0017452 0.0036054 -0.0003863 -0.0007905 -0.0001611 0.0003967 -0.0000062 -0.0064891 -0.0040995 0.0028282
0.0000834 0.0004104 0.0000380 0.0003078 0.0001531 0.0003393 0.0001617 0.0004602 -0.0001727 0.0003432 -0.0000127 0.0001335 -0.0003820 0.0008720 0.0000005 0.0001971 0.0003374 0.0006987 -0.0000036 0.0005490 0.0000174 0.0003194 -0.0001678 0.0003339 0.0000371 0.0001376 -0.0023685 0.0044885 0.0066682 -0.0332344 -0.0028962 0.0077594 -0.0004084 -0.0008232 -0.0000280 0.0001550 -0.0175285 0.0066980 -0.0089089 0.0030766
0.0000913 0.0002839 0.0000658 0.0002189 0.0001591 0.0000245 0.0001530 0.0001750 -0.0001298 0.0001931 0.0000004 -0.0000375 0.0003041 0.0002303 0.0000196 0.0000952 0.0012342 -0.0008241 -0.0001552 0.0004156 0.0000284 0.0000735 -0.0000550 0.0000831 0.0000411 0.0000474 -0.0023421 0.0099303 0.0218829 -0.0510057 0.0114335 -0.0226570 -0.0004556 -0.0008664 0.0000481 -0.0000894 -0.0142685 0.0079472 0.0008937 0.0007918
0.0001080 0.0000583 0.0000849 0.0000296 0.0001570 -0.0002714 0.0001684 -0.0000861 -0.0000872 0.0000277 -0.0000139 -0.0001774 -0.0007740 0.0011163 -0.0000174 0.0000615 0.0003065 -0.0011622 -0.0001734 0.0001833 0.0000449 -0.0000116 0.0001677 -0.0001597 0.0000540 -0.0000227 -0.0028609 0.0072391 0.0098271 -0.0236789 0.0118938 -0.0173463 -0.0004556 -0.0008923 -0.0000475 -0.0000682 -0.0084390 0.0142073 0.0113939 -0.0166439
0.0001015 0.0000103 0.0001036 -0.0000206 0.0001484 -0.0002364 0.0001617 -0.0000652 -0.0001200 0.0000484 -0.0000022 -0.0002130 -0.0006733 0.0007784 -0.0000923 0.0000930 -0.0025401 0.0016066 0.0000277 0.0000818 0.0000378 -0.0000006 0.0001304 -0.0000691 0.0000494 -0.0000105 0.0061316 -0.0048777 -0.0106370 0.0073002 -0.0011501 0.0079110 -0.0004299 -0.0009026 -0.0001580 0.0000815 -0.0132799 0.0126645 0.0048646 -0.0037251
0.0001047 0.0000202 0.0000518 -0.0000183 0.0001570 -0.0001471 0.0001527 0.0000053 -0.0000918 0.0000313 0.0000376 -0.0002302 -0.0002945 0.0001388 0.0000438 -0.0000805 -0.0007879 0.0010132 0.0000728 0.0000745 0.0000296 0.0000768 0.0000438 0.0000831 0.0000473 0.0000075 0.0040968 0.0017268 0.0009147 0.0007004 -0.0188000 0.0131399 -0.0004223 -0.0008846 -0.0001980 0.0001371 -0.0208696 0.0203080 -0.0066244 0.0123589
0.0001094 0.0000749 0.0000496 0.0000250 0.0001656 -0.0000219 0.0001573 0.0001258 -0.0000213 -0.0000209 0.0000162 -0.0001396 -0.0000349 0.0001365 -0.0000127 -0.0000031 0.0012440 -0.0004413 0.0001123 0.0000348 0.0000338 0.0001699 -0.0001197 0.0002062 0.0000630 0.0000140 -0.0004170 0.0046786 0.0103034 -0.0076120 -0.0080487 0.0205937 -0.0004077 -0.0008683 -0.0000883 0.0000703 -0.0119601 0.0061634 -0.0075502 0.0162360
0.0001040 0.0001721 0.0000747 0.0000867 0.0001445 0.0001248 0.0001504 0.0002689 -0.0000472 0.0000248 -0.0000074 -0.0000369 0.0003315 -0.0000356 -0.0001071 0.0001727 0.0027628 -0.0016157 -0.0000638 0.0002813 0.0000372 0.0002510 -0.0000872 0.0000888 0.0000672 0.0000555 0.0067823 -0.0059598 -0.0041269 0.0106720 -0.0020206 0.0180576 -0.0004075 -0.0008211 0.0000883 -0.0000056 0.0045305 -0.0117796 -0.0061687 0.0095038
0.0000940 0.0002884 0.0000848 0.0001095 0.0001200 0.0002857 0.0001435 0.0004104 -0.0000429 0.0000973 0.0000034 0.0000368 0.0000313 -0.0000115 -0.0000083 0.0002197 0.0021135 -0.0011051 -0.0001000 0.0003755 0.0000301 0.0002299 0.0001246 0.0000399 0.0000492 0.0000850 0.0023430 -0.0008586 -0.0224243 0.0165528 -0.0070230 0.0102767 -0.0004360 -0.0007973 -0.0000104 -0.0000245 0.0049344 -0.0017494 -0.0110053 -0.0011623
0.0001030 0.0001923 0.0001268 0.0000415 0.0001473 0.0000267 0.0001307 0.0001718 0.0000163 -0.0000479 0.0000196 -0.0000969 0.0000781 -0.0004468 -0.0000072 0.0001242 0.0020846 -0.0022289 -0.0000379 0.0001917 0.0000376 0.0000268 0.0001789 -0.0000316 0.0000530 0.0000047 -0.0019035 -0.0019205 0.0038286 -0.0044731 -0.0176138 0.0193155 -0.0004530 -0.0009004 -0.0001755 -0.0000318 0.0110015 -0.0149838 -0.0106418 -0.0032122
0.0001174 -0.0000181 0.0001183 -0.0000872 0.0001678 -0.0003473 0.0001400 -0.0001751 -0.0000904 -0.0001245 0.0000252 -0.0002971 0.0002030 -0.0008906 -0.0001493 0.0000572 0.0012176 -0.0017475 -0.0001990 0.0001512 0.0000573 -0.0000932 0.0002119 -0.0002310 0.0000726 -0.0000899 0.0079657 -0.0144201 0.0061394 -0.0003236 -0.0049651 0.0069527 -0.0004499 -0.0010126 -0.0001557 -0.0000923 0.0146130 -0.0186808 -0.0076182 -0.0017352
0.0001245 -0.0000713 0.0001058 -0.0001446 0.0001620 -0.0003392 0.0001758 -0.0001820 -0.0001137 -0.0000900 0.0000386 -0.0003326 0.0005315 -0.0012656 -0.0001013 -0.0000186 0.0009960 -0.0011573 -0.0002575 0.0001952 0.0000550 -0.0000802 0.0001261 -0.0001474 0.0000815 -0.0001137 0.0077785 -0.0081350 0.0102509 -0.0144793 -0.0016592 0.0086714 -0.0004460 -0.0010238 -0.0000135 -0.0001576 -0.0008528 0.0024746 -0.0067838 0.0080732
0.0001276 -0.0000448 0.0001136 -0.0001713 0.0001550 -0.0002232 0.0001889 -0.0000928 0.0001105 -0.0002525 0.0000499 -0.0003236 0.0004748 -0.0008434 -0.0000268 -0.0001219 0.0015680 -0.0023934 -0.0001946 0.0001963 0.0000536 -0.0000532 0.0000175 -0.0000303 0.0000751 -0.0001081 0.0057440 0.0014433 0.0003380 0.0058579 0.0015769 -0.0052118 -0.0004548 -0.0010043 0.0000219 -0.0001852 -0.0143343 0.0111462 0.0017455 -0.0021605
0.0001214 0.0000199 0.0000525 -0.0000770 0.0001370 -0.0000480 0.0001688 0.0000675 0.0001028 -0.0002546 0.0000427 -0.0002413 0.0006760 -0.0008647 -0.0000243 -0.0001586 0.0021372 -0.0034297 -0.0000256 0.0001285 0.0000736 0.0000080 -0.0000571 0.0000560 0.0000602 -0.0000710 0.0082932 -0.0066539 0.0031101 0.0053948 -0.0051161 -0.0041686 -0.0004542 -0.0009703 -0.0000323 -0.0001372 0.0109852 -0.0155196 0.0025594 -0.0067901
0.0001138 0.0001144 0.0000300 0.0000483 0.0001272 0.0001351 0.0001483 0.0002400 -0.0000024 -0.0000816 0.0000434 -0.0001473 0.0008683 -0.0011023 -0.0000276 -0.0000533 0.0023102 -0.0026981 0.0001013 0.0000558 0.0000870 0.0000962 -0.0000149 -0.0000272 0.0000713 -0.0000393 0.0021163 -0.0054745 0.0086335 -0.0026262 0.0017733 -0.0087169 -0.0004360 -0.0009128 0.0000102 -0.0000579 0.0128620 -0.0140151 -0.0146951 0.0180600
0.0001122 0.0002037 0.0000280 0.0001348 0.0001387 0.0002788 0.0001553 0.0003684 -0.0000217 0.0000187 0.0000405 -0.0000252 -0.0002334 0.0000452 0.0000533 0.0000125 -0.0005607 0.0000854 0.0000911 0.0002407 0.0000938 0.0002035 0.0000482 -0.0000944 0.0000789 -0.0000035 -0.0064888 0.0016247 0.0063597 -0.0056108 0.0128645 -0.0302076 -0.0004175 -0.0008620 -0.0001225 0.0001215 -0.0023955 0.0073133 -0.0039939 0.0138164
0.0001146 0.0002924 0.0000201 0.0002262 0.0001431 0.0003985 0.0001670 0.0004785 -0.0000248 0.0000398 0.0000261 0.0000862 -0.0004950 0.0004922 0.0000984 0.0001225 -0.0011624 0.0001168 -0.0000071 0.0004539 0.0000796 0.0001751 0.0000722 -0.0000127 0.0000668 0.0000131 -0.0017600 -0.0060879 -0.0038346 0.0036632 0.0154850 -0.0351657 -0.0004147 -0.0008729 -0.0000360 0.0000166 -0.0127974 0.0214790 0.0082865 -0.0036056
0.0001210 0.0001819 0.0000529 0.0001393 0.0001416 0.0001077 0.0001677 0.0001890 -0.0000734 0.0000682 0.0000412 -0.0000700 -0.0000938 -0.0000563 -0.0000159 0.0000900 0.0005045 -0.0019282 -0.0001556 0.0003442 0.0000701 -0.0000456 0.0001102 -0.0000930 0.0000833 -0.0000711 -0.0005102 0.0002457 -0.0171552 0.0204834 0.0120574 -0.0201618 -0.0004460 -0.0009532 0.0001410 -0.0003164 -0.0028237 0.0052607 0.0130095 -0.0264464
0.0001179 -0.0000306 0.0001058 -0.0000824 0.0001430 -0.0003057 0.0001771 -0.0002116 0.0000696 -0.0001745 0.0000726 -0.0002962 0.0003083 -0.0004812 -0.0000482 -0.0001383 0.0018013 -0.0028898 -0.0000114 0.0000992 0.0000933 -0.0002032 0.0000508 -0.0001486 0.0000931 -0.0001541 0.0053221 -0.0155365 -0.0063996 -0.0026092 0.0040416 -0.0091529 -0.0004693 -0.0010264 0.0000631 -0.0003576 0.0114557 -0.0162113 0.0021947 -0.0033231
0.0001152 -0.0000847 0.0001238 -0.0001815 0.0001473 -0.0003616 0.0001866 -0.0002240 0.0001922 -0.0003729 0.0000707 -0.0003265 0.0003001 -0.0001533 0.0000130 -0.0001943 0.0027373 -0.0030101 0.0001745 -0.0000412 0.0000940 -0.0001985 -0.0000091 -0.0001216 0.0000820 -0.0001684 0.0209626 -0.0576306 -0.0006592 0.0054202 0.0066039 -0.0112475 -0.0004753 -0.0010157 -0.0000646 -0.0002539 0.0018051 0.0012543 0.0038921 0.0048761
0.0001283 -0.0000765 0.0000988 -0.0001684 0.0001568 -0.0002853 0.0002046 -0.0001501 0.0001400 -0.0004134 0.0000681 -0.0003056 0.0011174 -0.0012509 0.0000805 -0.0002034 0.0021100 -0.0016636 0.0000230 0.0000487 0.0001003 -0.0001539 0.0001381 -0.0002977 0.0000897 -0.0001634 0.0229634 -0.0632091 0.0053219 -0.0002954 0.0108951 -0.0177541 -0.0004601 -0.0009663 -0.0000133 -0.0002708 0.0014239 0.0008210 0.0068371 -0.0025864
0.0001388 -0.0000240 0.0000549 -0.0001364 0.0001474 -0.0001175 0.0002159 -0.0000273 0.0001211 -0.0003396 0.0000685 -0.0002423 0.0010015 -0.0014575 0.0000103 -0.0001286 0.0011005 -0.0011753 -0.0000034 0.0000662 0.0001113 -0.0000714 0.0003496 -0.0003449 0.0000910 -0.0001366 0.0203963 -0.0390422 0.0136907 -0.0284032 0.0108967 -0.0251598 -0.0004214 -0.0009346 -0.0001013 -0.0000500 0.0023437 -0.0030381 0.0106224 -0.0193324
0.0001365 0.0000658 0.0000486 -0.0000734 0.0001188 0.0000810 0.0002092 0.0001394 0.0000050 -0.0001347 0.0000657 -0.0001459 0.0000265 -0.0005385 0.0000008 -0.0000555 -0.0014793 0.0011650 0.0000484 0.0000876 0.0001121 0.0000560 0.0002115 -0.0001589 0.0000746 -0.0000783 0.0155413 -0.0301559 0.0091647 -0.0123783 0.0046279 -0.0084511 -0.0004176 -0.0008952 -0.0002078 0.0001718 -0.0089874 0.0042754 -0.0041503 -0.0068779
0.0001247 0.0001722 0.0000300 0.0000624 0.0001084 0.0002463 0.0002105 0.0002886 -0.0000990 -0.0000024 0.0000627 -0.0000497 -0.0001590 -0.0000215 0.0000766 0.0000694 -0.0014743 0.0018024 0.0002320 -0.0000001 0.0001289 0.0001653 0.0000914 -0.0000366 0.0000872 -0.0000414 0.0026739 -0.0179045 -0.0007255 0.0054116 -0.0047315 0.0058951 -0.0004150 -0.0008369 -0.0000965 0.0001036 -0.0095121 0.0091519 -0.0106250 -0.0004238
0.0001292 0.0002768 0.0000511 0.0001638 0.0000999 0.0004304 0.0002098 0.0004291 -0.0000994 0.0001652 0.0000828 0.0000503 0.0003071 -0.0002783 0.0000082 0.0001750 -0.0008774 -0.0003414 0.0002152 0.0001847 0.0001320 0.0002523 0.0000514 0.0000937 0.0001013 -0.0000106 0.0053693 -0.0069447 -0.0042741 0.0089474 -0.0177029 0.0157481 -0.0004078 -0.0007948 -0.0000268 0.0000408 -0.0058965 0.0056555 0.0152495 -0.0319782
0.0001386 0.0002321 0.0000903 0.0001813 0.0001069 0.0002037 0.0002054 0.0002052 -0.0000317 0.0001364 0.0000963 -0.0000397 0.0012068 -0.0010397 -0.0000139 0.0000373 0.0018694 -0.0026390 0.0000248 0.0004165 0.0001250 0.0000901 0.0000064 0.0001072 0.0000850 -0.0000499 0.0107012 -0.0135729 0.0052999 -0.0057256 0.0028620 -0.0059140 -0.0004224 -0.0008758 -0.0000533 -0.0000054 0.0110167 -0.0163391 0.0045017 -0.0013838
0.0001460 0.0000498 0.0000596 0.0000839 0.0001290 -0.0002281 0.0002095 -0.0001634 -0.0000598 0.0000021 0.0000963 -0.0002371 0.0005401 -0.0003734 0.0001021 -0.0002153 0.0033169 -0.0030820 0.0000264 0.0001865 0.0001418 -0.0001542 0.0003161 -0.0002587 0.0000783 -0.0001436 0.0040963 0.0014368 0.0086960 -0.0182843 0.0123347 -0.0201311 -0.0004284 -0.0009396 -0.0000975 -0.0000852 0.0041254 0.0029677 -0.0045835 0.0106683
0.0001457 -0.0000531 0.0000542 -0.0000392 0.0001226 -0.0002761 0.0002289 -0.0002120 -0.0000551 -0.0001181 0.0000981 -0.0002882 0.0005813 -0.0007948 0.0002382 -0.0003362 0.0000349 -0.0013188 -0.0000397 0.0001433 0.0001569 -0.0001845 0.0003004 -0.0004458 0.0000972 -0.0001889 0.0006742 0.0052972 0.0040917 -0.0111333 0.0113953 -0.0125551 -0.0004067 -0.0008960 -0.0000091 -0.0001925 0.0068945 -0.0046009 -0.0121496 0.0085742
0.0001348 -0.0000530 0.0000694 -0.0000916 0.0001106 -0.0002067 0.0002501 -0.0001666 0.0001110 -0.0002441 0.0001004 -0.0002728 0.0009762 -0.0015174 0.0003180 -0.0004175 0.0010090 -0.0024490 -0.0000533 0.0001052 0.0001525 -0.0001356 0.0002529 -0.0004154 0.0001123 -0.0002016 0.0025607 -0.0196934 -0.0056680 0.0108290 0.0171294 -0.0234860 -0.0003842 -0.0008843 0.0001695 -0.0003177 0.0231646 -0.0413379 -0.0089560 0.0014364
0.0001339 -0.0000153 0.0000881 -0.0001251 0.0000998 -0.0000922 0.0002297 -0.0000431 0.0001624 -0.0002335 0.0000922 -0.0002180 0.0003223 -0.0008709 0.0001678 -0.0002353 -0.0006123 -0.0006190 0.0000446 0.0000776 0.0001607 -0.0000602 0.0002433 -0.0002326 0.0001082 -0.0001769 0.0064216 -0.0190278 -0.0120473 0.0127503 0.0146366 -0.0315706 -0.0003771 -0.0008542 0.0001859 -0.0002952 0.0063193 -0.0056495 -0.0057016 -0.0012768
0.0001275 0.0000570 0.0001267 -0.0000934 0.0000932 0.0000751 0.0002287 0.0000958 0.0000764 -0.0001594 0.0000765 -0.0001325 -0.0000191 -0.0002982 -0.0000838 0.0000938 -0.0018534 0.0012440 0.0000233 0.0001932 0.0001813 0.0000215 0.0001269 -0.0000593 0.0001096 -0.0001443 -0.0008917 0.0046284 -0.0044626 0.0050751 0.0018776 -0.0088266 -0.0003600 -0.0007723 0.0000906 -0.0001141 -0.0087371 0.0229921 -0.0097586 0.0020121
0.0001306 0.0001351 0.0000860 0.0000392 0.0000847 0.0002521 0.0002513 0.0002131 0.0000390 -0.0000517 0.0000854 -0.0000653 -0.0001721 -0.0001449 -0.0000566 0.0001114 0.0009743 -0.0000623 -0.0000809 0.0002583 0.0001842 0.0001353 0.0001235 -0.0000454 0.0001074 -0.0000928 -0.0187741 0.0205620 -0.0072347 0.0089592 0.0030674 -0.0097247 -0.0003529 -0.0007295 0.0000401 0.0000255 -0.0148461 0.0234671 0.0099642 -0.0217614
0.0001359 0.0001275 0.0000656 0.0000940 0.0001185 0.0000792 0.0002515 0.0000491 0.0000604 -0.0000095 0.0000999 -0.0001301 0.0002059 -0.0004920 0.0000856 -0.0000449 0.0022889 -0.0013701 0.0000096 0.0001673 0.0001764 -0.0000105 0.0001707 -0.0001659 0.0001055 -0.0001393 -0.0305837 0.0311528 0.0018557 -0.0133598 0.0020719 -0.0069536 -0.0003784 -0.0007542 -0.0000650 -0.0000797 -0.0011943 0.0000155 0.0089996 -0.0174758
0.0001415 -0.0000278 0.0001057 -0.0000712 0.0001374 -0.0002724 0.0002520 -0.0002612 0.0000783 -0.0001715 0.0001008 -0.0002992 0.0003643 -0.0008399 0.0001341 -0.0002735 0.0033706 -0.0037233 0.0000698 0.0000104 0.0001938 -0.0002713 0.0003344 -0.0004792 0.0001139 -0.0002512 -0.0066052 0.0175563 0.0064818 -0.0144378 -0.0223610 0.0202698 -0.0004028 -0.0007825 0.0000019 -0.0003607 -0.0070391 0.0052509 -0.0089945 0.0094426
0.0001554 -0.0001452 0.0000958 -0.0001800 0.0001230 -0.0003306 0.0002530 -0.0002854 0.0001253 -0.0003464 0.0001113 -0.0003758 0.0000491 -0.0003966 0.0001102 -0.0003643 0.0017590 -0.0024279 -0.0000205 0.0000059 0.0002217 -0.0003065 0.0001654 -0.0003463 0.0001226 -0.0002814 0.0004626 0.0081649 -0.0125384 0.0145784 -0.0220155 0.0155792 -0.0003701 -0.0008216 0.0000412 -0.0003420 -0.0118037 0.0032180 -0.0078948 0.0067135
0.0001591 -0.0001398 0.0001112 -0.0001817 0.0001166 -0.0002565 0.0002778 -0.0002391 0.0002450 -0.0004310 0.0001175 -0.0003453 -0.0002179 -0.0001753 0.0000063 -0.0002337 0.0011219 -0.0006926 0.0000058 -0.0000361 0.0002054 -0.0002432 0.0001172 -0.0002374 0.0001345 -0.0002747 -0.0202367 0.0221995 -0.0078908 0.0102515 0.0023111 -0.0004002 -0.0003501 -0.0008362 0.0001525 -0.0003960 -0.0142222 0.0089043 0.0173949 -0.0218823
0.0001561 -0.0000930 0.0000763 -0.0001373 0.0001144 -0.0001324 0.0002868 -0.0001541 0.0001342 -0.0003208 0.0001026 -0.0002820 0.0002033 -0.0007654 -0.0000059 -0.0001504 0.0010600 -0.0017828 0.0001434 -0.0001907 0.0001896 -0.0001526 0.0001802 -0.0003449 0.0001338 -0.0002571 -0.0072319 0.0086640 0.0058276 -0.0057004 0.0025757 0.0016804 -0.0003635 -0.0008066 0.0002908 -0.0005004 -0.0119716 0.0185566 0.0119908 -0.0113819
0.0001518 -0.0000026 0.0000563 -0.0000546 0.0001209 0.0000391 0.0002873 -0.0000125 0.0000747 -0.0002238 0.0000859 -0.0001843 0.0003314 -0.0005268 0.0000485 -0.0001807 -0.0002984 -0.0012756 0.0003369 -0.0002735 0.0002105 -0.0000695 0.0001300 -0.0002223 0.0001180 -0.0002081 0.0035781 -0.0126074 0.0009804 0.0011338 0.0041067 -0.0019235 -0.0003580 -0.0007737 0.0002346 -0.0003991 -0.0044729 0.0134721 -0.0063731 0.0154194
0.0001502 0.0000948 0.0000490 0.0000304 0.0001097 0.0002183 0.0003008 0.0001263 0.0000998 -0.0000936 0.0001012 -0.0001017 0.0005004 -0.0007132 0.0001750 -0.0002333 -0.0023860 0.0010792 0.0003748 -0.0000679 0.0002374 0.0000234 0.0001938 -0.0000703 0.0001121 -0.0001498 -0.0054846 0.0038847 -0.0064347 0.0083015 0.0021582 0.0042969 -0.0003481 -0.0007214 -0.0000090 -0.0001044 0.0028821 0.0011803 0.0005778 0.0102409
0.0001445 0.0002023 0.0001011 0.0000884 0.0001012 0.0003985 0.0003060 0.0002815 0.0001022 0.0000252 0.0001271 -0.0000137 0.0004177 -0.0006951 0.0002213 -0.0001370 -0.0029004 0.0012364 0.0001511 0.0001908 0.0002349 0.0000791 0.0002181 -0.0000642 0.0001333 -0.0001288 0.0030350 0.0034755 -0.0122246 0.0221612 -0.0021831 0.0012713 -0.0003501 -0.0007271 -0.0000543 -0.0000035 0.0078275 0.0008922 0.0087388 -0.0077360
0.0001496 0.0001348 0.0001541 0.0000334 0.0001150 0.0001569 0.0003043 0.0000422 0.0002666 -0.0002113 0.0001300 -0.0001053 -0.0000187 -0.0002650 0.0001919 -0.0001756 0.0006130 -0.0017433 0.0000528 0.0000264 0.0002147 -0.0000960 0.0001487 -0.0000852 0.0001262 -0.0001738 -0.0011749 0.0036388 -0.0258102 0.0361149 -0.0085754 0.0177077 -0.0003842 -0.0007848 -0.0000159 -0.0001623 0.0100197 -0.0051715 0.0115098 -0.0152003
0.0001521 -0.0000578 0.0001759 -0.0001328 0.0001280 -0.0002758 0.0003056 -0.0003475 0.0002887 -0.0004533 0.0001166 -0.0003118 0.0000207 -0.0004477 0.0001467 -0.0002508 0.0018748 -0.0029591 -0.0002128 0.0001273 0.0002359 -0.0003237 0.0001975 -0.0003102 0.0001054 -0.0002440 -0.0126357 0.0143933 -0.0128113 0.0185109 -0.0179599 0.0234055 -0.0004056 -0.0008492 -0.0000839 -0.0002364 0.0033540 -0.0062761 0.0043613 -0.0008402
0.0001535 -0.0001285 0.0001334 -0.0001936 0.0001209 -0.0003321 0.0003201 -0.0003807 0.0001512 -0.0004067 0.0001197 -0.0003916 0.0000154 -0.0003530 0.0000804 -0.0002467 0.0000120 -0.0024161 -0.0002409 0.0001439 0.0002481 -0.0003357 0.0002241 -0.0004865 0.0001223 -0.0002793 0.0046081 -0.0086264 -0.0047931 0.0126450 0.0021846 -0.0286470 -0.0003949 -0.0008792 -0.0000317 -0.0002730 0.0045821 -0.0052997 -0.0032510 0.0108765
0.0001552 -0.0001228 0.0000742 -0.0002005 0.0001174 -0.0002567 0.0003407 -0.0003199 0.0000576 -0.0002473 0.0001353 -0.0004167 0.0003942 -0.0009115 0.0000471 -0.0002783 -0.0008436 -0.0007614 -0.0001229 0.0000217 0.0002557 -0.0002874 0.0001390 -0.0003604 0.0001297 -0.0002759 0.0145303 -0.0332506 -0.0074740 0.0149890 0.0001287 -0.0004293 -0.0003687 -0.0008796 0.0001190 -0.0003589 0.0148222 -0.0178484 -0.0043384 0.0123140
0.0001547 -0.0000763 0.0000737 -0.0001626 0.0001275 -0.0001272 0.0003685 -0.0002274 0.0001683 -0.0002947 0.0001342 -0.0003652 0.0001101 -0.0006785 -0.0000311 -0.0001331 0.0011251 -0.0009729 -0.0001351 0.0001037 0.0002734 -0.0002066 0.0000563 -0.0002173 0.0001333 -0.0002432 -0.0057722 0.0003703 0.0021923 -0.0011591 0.0036739 0.0061937 -0.0003430 -0.0008302 0.0001431 -0.0003483 0.0147355 -0.0201084 -0.0135821 0.0219748
0.0001388 0.0000273 0.0000640 -0.0000834 0.0001322 0.0000456 0.0003748 -0.0000818 0.0002814 -0.0003999 0.0001347 -0.0002758 0.0001942 -0.0002649 -0.0000212 -0.0000585 0.0018116 -0.0021867 0.0000671 0.0000435 0.0002605 -0.0000708 0.0000645 -0.0001721 0.0001352 -0.0001975 0.0020470 -0.0022080 0.0080837 -0.0118993 0.0012194 0.0041265 -0.0003410 -0.0007198 -0.0000082 -0.0001257 0.0084495 -0.0134823 -0.0248855 0.0203977
0.0001340 0.0001275 0.0000891 -0.0000090 0.0001268 0.0002177 0.0003696 0.0000684 0.0002161 -0.0002703 0.0001436 -0.0001793 0.0001505 -0.0003911 0.0000751 -0.0001523 0.0004497 0.0006761 0.0000388 0.0001211 0.0002655 0.0000484 -0.0000413 0.0000782 0.0001213 -0.0001317 0.0075358 -0.0095154 0.0028998 -0.0057351 0.0055397 -0.0039697 -0.0003325 -0.0006478 0.0001128 -0.0001050 0.0057760 -0.0035662 -0.0027985 -0.0056611
0.0001637 0.0001880 0.0001255 0.0000842 0.0001319 0.0003310 0.0003695 0.0001676 0.0001891 -0.0002272 0.0001400 -0.0001099 0.0002153 -0.0006633 0.0001247 -0.0001513 -0.0005351 0.0010310 -0.0000230 0.0002037 0.0002756 -0.0000303 0.0000293 0.0000938 0.0001256 -0.0001305 -0.0073042 0.0025724 -0.0023566 0.0001154 0.0040506 0.0016503 -0.0003137 -0.0006722 0.0000697 -0.0001094 0.0018114 0.0037456 0.0049123 -0.0052904
0.0001719 0.0000754 0.0001351 0.0000014 0.0001382 0.0000495 0.0003683 -0.0001030 0.0001107 -0.0002604 0.0001403 -0.0002497 0.0001999 -0.0003579 0.0000839 -0.0001669 0.0016639 -0.0032359 -0.0000994 0.0001763 0.0002907 -0.0002800 0.0002875 -0.0002566 0.0001214 -0.0001976 -0.0123369 -0.0019697 -0.0069653 -0.0011718 0.0010961 -0.0015183 -0.0003136 -0.0007579 -0.0001000 -0.0001392 -0.0178443 0.0173089 0.0016419 0.0036473
0.0001637 -0.0001059 0.0001055 -0.0001357 0.0001435 -0.0002799 0.0003865 -0.0004228 -0.0000052 -0.0002394 0.0001470 -0.0004095 0.0001683 -0.0002457 0.0000321 -0.0002589 0.0017413 -0.0019330 -0.0001166 0.0000178 0.0003040 -0.0003776 0.0002479 -0.0003438 0.0001063 -0.0002378 -0.0031965 0.0023241 -0.0107480 0.0041651 0.0104821 -0.0215609 -0.0003287 -0.0008137 -0.0000354 -0.0002545 -0.0338029 0.0345271 -0.0051538 0.0083544
0.0001548 -0.0001373 0.0001248 -0.0002151 0.0001398 -0.0002777 0.0003896 -0.0003972 0.0000773 -0.0004040 0.0001405 -0.0004005 0.0004597 -0.0007628 0.0000870 -0.0003532 0.0021367 -0.0029528 0.0000621 -0.0001180 0.0002996 -0.0003449 0.0001547 -0.0003249 0.0001085 -0.0002505 0.0016757 0.0029865 -0.0079571 0.0141427 -0.0008104 0.0039156 -0.0003270 -0.0008051 0.0000903 -0.0003237 -0.0168764 0.0254380 0.0078635 -0.0079816
0.0001472 -0.0001033 0.0001820 -0.0002712 0.0001257 -0.0001823 0.0004044 -0.0003206 0.0002110 -0.0004792 0.0001450 -0.0003739 0.0003178 -0.0006324 0.0001690 -0.0003568 0.0035585 -0.0043236 0.0001554 -0.0001145 0.0002997 -0.0002944 0.0002162 -0.0003418 0.0001039 -0.0002327 -0.0006255 0.0061092 0.0004302 0.0075599 -0.0101159 0.0163069 -0.0003333 -0.0007646 0.0000459 -0.0003197 0.0024799 -0.0039316 0.0043969 -0.0054705
0.0001716 -0.0000586 0.0002149 -0.0002738 0.0001383 -0.0000460 0.0004186 -0.0002064 0.0000739 -0.0002465 0.0001570 -0.0003214 0.0017301 -0.0017768 0.0001399 -0.0002407 0.0016723 -0.0020140 0.0001861 -0.0000821 0.0002828 -0.0001910 0.0002198 -0.0003341 0.0000862 -0.0001770 -0.0077357 0.0126764 0.0075634 -0.0026907 -0.0151791 0.0138182 -0.0003267 -0.0007409 -0.0000300 -0.0001563 0.0142242 -0.0342390 0.0010252 -0.0061201
0.0001829 0.0000246 0.0002076 -0.0001936 0.0001453 0.0001085 0.0004153 -0.0000606 0.0000453 -0.0001330 0.0001650 -0.0002447 0.0016200 -0.0016259 0.0001187 -0.0002125 0.0011046 -0.0023185 0.0000338 0.0001309 0.0002886 -0.0000685 0.0002321 -0.0002653 0.0000869 -0.0001209 -0.0027952 -0.0017972 -0.0017384 0.0106022 -0.0018829 0.0044378 -0.0003026 -0.0007212 0.0000346 -0.0000594 0.0015098 -0.0015034 0.0061022 -0.0042983
0.0001644 0.0001122 0.0001831 -0.0000811 0.0001525 0.0001372 0.0004132 -0.0000667 0.0001460 -0.0002119 0.0001482 -0.0002254 0.0002403 -0.0003330 0.0001983 -0.0002682 0.0013288 -0.0024747 -0.0000283 0.0001975 0.0003109 -0.0001604 0.0002044 -0.0001990 0.0001052 -0.0001444 0.0040688 0.0003733 -0.0101402 0.0067212 -0.0059252 0.0100265 -0.0003199 -0.0007211 -0.0000436 -0.0000908 -0.0019200 0.0067556 -0.0011917 -0.0001222
0.0001666 -0.0000075 0.0001896 -0.0001597 0.0001640 -0.0001416 0.0004068 -0.0003280 0.0001137 -0.0002442 0.0001408 -0.0003629 0.0003965 -0.0004920 0.0001388 -0.0003142 0.0017651 -0.0016890 0.0000902 -0.0000908 0.0002954 -0.0003601 0.0001116 -0.0002115 0.0000972 -0.0002057 -0.0018314 0.0121088 0.0156133 -0.0438131 -0.0269394 0.0264249 -0.0003409 -0.0007864 -0.0000204 -0.0002631 0.0028404 -0.0166799 -0.0060682 0.0002830
0.0001695 -0.0001699 0.0002121 -0.0003357 0.0001568 -0.0003395 0.0004199 -0.0005019 0.0001652 -0.0003106 0.0001651 -0.0004910 0.0006988 -0.0006698 0.0001424 -0.0004215 0.0020845 -0.0022847 0.0000973 -0.0002661 0.0003001 -0.0004027 0.0001747 -0.0002997 0.0000859 -0.0002285 -0.0026800 0.0125652 0.0133378 -0.0317135 -0.0282655 0.0253831 -0.0003618 -0.0008042 0.0001083 -0.0004016 -0.0037265 0.0043988 0.0015231 0.0007062
0.0001669 -0.0001723 0.0002004 -0.0003590 0.0001510 -0.0003143 0.0004272 -0.0004633 0.0002085 -0.0004248 0.0001801 -0.0004846 0.0000820 -0.0000252 0.0002944 -0.0005094 0.0017198 -0.0029704 0.0000624 -0.0001974 0.0003127 -0.0003806 0.0002229 -0.0002725 0.0000799 -0.0002206 0.0090732 -0.0009802 0.0073682 -0.0292811 -0.0073096 -0.0098234 -0.0003724 -0.0007794 0.0000380 -0.0002995 -0.0133473 0.0184946 0.0033957 0.0004088
0.0001703 -0.0001293 0.0002216 -0.0003425 0.0001545 -0.0002194 0.0004313 -0.0003708 0.0002369 -0.0005339 0.0001668 -0.0004358 -0.0006805 0.0003535 0.0001675 -0.0003763 0.0021753 -0.0033108 0.0000559 -0.0001518 0.0003090 -0.0003033 0.0002190 -0.0002421 0.0000737 -0.0001973 0.0087661 -0.0034995 -0.0172782 0.0154221 -0.0058962 -0.0201887 -0.0003487 -0.0008027 0.0000698 -0.0002473 -0.0245035 0.0190388 -0.0002764 0.0100481
0.0001734 -0.0000609 0.0002018 -0.0002871 0.0001635 -0.0000360 0.0004475 -0.0002409 0.0002311 -0.0005050 0.0001478 -0.0003437 0.0000243 -0.0005072 0.0000727 -0.0002730 0.0027903 -0.0036108 -0.0000464 0.0000397 0.0003131 -0.0002158 0.0000910 -0.0001806 0.0000736 -0.0001595 0.0043323 -0.0004167 -0.0216193 0.0237521 -0.0099626 0.0080623 -0.0003328 -0.0007767 0.0001758 -0.0003193 0.0034710 -0.0080575 0.0019665 0.0120503
0.0001579 0.0000443 0.0001360 -0.0001391 0.0001607 0.0001505 0.0004673 -0.0001141 0.0001307 -0.0003069 0.0001615 -0.0002319 0.0004144 -0.0007834 0.0000908 -0.0001337 0.0006019 -0.0005544 -0.0002155 0.0003070 0.0003081 -0.0001466 -0.0000436 -0.0000609 0.0000670 -0.0001121 0.0012938 -0.0022004 -0.0093020 0.0096363 0.0024686 0.0008073 -0.0003212 -0.0007333 0.0000727 -0.0001966 0.0018356 -0.0037358 -0.0028587 0.0185222
0.0001494 0.0001402 0.0001260 -0.0000075 0.0001508 0.0003407 0.0004709 0.0000445 0.0001505 -0.0001997 0.0001876 -0.0001313 0.0010185 -0.0010567 0.0000333 0.0000183 -0.0002172 -0.0000514 -0.0001356 0.0002231 0.0002972 -0.0000997 0.0001342 -0.0001665 0.0000489 -0.0000597 0.0066903 -0.0210253 -0.0135378 0.0135866 0.0066328 -0.0111685 -0.0003348 -0.0007309 0.0001390 -0.0002442 -0.0162616 0.0190758 -0.0042571 0.0180447
0.0001589 0.0000754 0.0001696 -0.0000457 0.0001744 0.0001017 0.0004472 -0.0001605 0.0002150 -0.0003310 0.0001718 -0.0002039 0.0007272 -0.0009646 0.0001371 -0.0002429 0.0010338 -0.0026334 0.0000620 0.0000024 0.0002835 -0.0002913 0.0002986 -0.0003167 0.0000481 -0.0001128 0.0197198 -0.0565292 -0.0052545 -0.0020018 0.0045196 -0.0051143 -0.0003664 -0.0008091 0.0002781 -0.0004639 -0.0123161 0.0159154 -0.0055115 0.0095634
