   5.0640042e-06   5.3653002e-06  -1.2749168e-05  -3.4277964e-05  -2.6190926e-06   1.4838803e-05   3.8717103e-06  -4.9544064e-06   9.2459595e-06  -1.0899009e-06   3.4274559e-05   8.2753877e-06  -2.8525863e-05  -1.8636705e-05  -3.6770057e-06   3.3360682e-06   1.9784653e-05  -2.5318612e-05  -6.0581838e-06   1.9346424e-05  -8.7685376e-06  -5.5777527e-05   2.0050778e-05   6.1854713e-05   4.5209774e-05   2.4610748e-05  -4.1973075e-05   2.8798228e-05   2.4525238e-05   9.4478557e-05   1.0434265e-04  -2.7277692e-05  -5.4677283e-05  -6.6947218e-06   9.0857095e-05
   3.2532760e-05   1.2086198e-05  -4.2988751e-05  -1.5244695e-05  -9.1873526e-06  -4.2849260e-05   2.0137644e-05   8.4583089e-06  -7.1167866e-05  -2.6887519e-05   4.5970821e-05  -7.7801065e-05  -4.5654237e-05  -1.3403387e-05  -9.0042908e-05  -1.4807491e-05  -7.2976122e-06  -3.0484214e-05  -5.0836411e-06  -3.5354329e-05  -6.1655887e-06  -4.2286942e-05   5.1563729e-06   2.2719621e-05   5.2191615e-07   1.4352100e-06   1.5574605e-04  -6.4409483e-05  -1.2084567e-04  -3.1433374e-05   2.5540087e-04  -2.5937401e-05  -2.2954478e-05   1.6121021e-04   3.6866077e-05
   5.8061141e-05   2.2956161e-05  -7.8353019e-05   1.1013802e-06  -8.6565597e-06  -8.7893881e-05   6.6797043e-06   2.1836564e-05  -1.0614748e-04  -4.8500631e-05   6.0824226e-05  -1.2378040e-04  -6.1244929e-05  -1.7225502e-05  -1.6852599e-04  -3.6879170e-05  -2.9211202e-05  -2.6490359e-05  -3.2977257e-06  -7.3562012e-05  -5.1124016e-06  -2.7211268e-05  -1.1874851e-06  -2.5684589e-05  -4.0455667e-05  -3.2037093e-05   2.9393481e-04  -1.5341186e-04  -2.5861408e-04  -2.0451895e-04   3.4711449e-04  -6.1563507e-05   2.4790181e-06   3.5742190e-04  -1.9000043e-05
   8.0299578e-05   3.8615508e-05  -1.2088647e-04   1.2587235e-05   2.6809660e-06  -1.1354161e-04  -4.9555227e-05   3.3188986e-05  -7.5063646e-05  -6.3799918e-05   7.9696329e-05  -1.0814210e-04  -7.9786936e-05  -3.5570807e-05  -2.2907766e-04  -6.4630251e-05  -4.2342046e-05  -1.3090457e-05  -6.3156996e-08  -8.6477026e-05  -5.8562036e-06  -1.2270417e-05   4.1115045e-06  -8.7366898e-05  -7.6357945e-05  -8.0315513e-05   3.4284368e-04  -2.3560703e-04  -3.7745869e-04  -4.3678563e-04   3.3913823e-04  -1.5078740e-04   2.0104015e-05   5.8480626e-04  -7.5016236e-05
   9.8719582e-05   5.4971275e-05  -1.6829977e-04   1.7678527e-05   2.3236273e-05  -1.2109840e-04  -1.3762538e-04   3.8203787e-05   7.6989645e-06  -7.3663337e-05   1.0017296e-04  -4.0873299e-05  -1.1256757e-04  -6.8615089e-05  -2.6073446e-04  -9.6474709e-05  -4.5719335e-05  -1.7222078e-06   4.7108160e-06  -7.6273165e-05  -6.9792559e-06  -3.8990320e-06   1.6695554e-05  -1.5803742e-04  -1.0914553e-04  -1.3970595e-04   3.1712878e-04  -3.1022541e-04  -4.6284881e-04  -6.9069676e-04   2.2840370e-04  -2.7984238e-04   3.4400698e-05   8.1027782e-04  -1.2499612e-04
   1.1319979e-04   6.5267806e-05  -2.1533351e-04   1.5419248e-05   4.6458787e-05  -1.1794671e-04  -2.2924988e-04   3.2036303e-05   1.0057399e-04  -8.1182283e-05   1.1781214e-04   4.1484356e-05  -1.7151162e-04  -1.1223424e-04  -2.5800540e-04  -1.2790228e-04  -4.1404801e-05  -9.9131985e-06   1.0115285e-05  -5.4096294e-05  -6.3118332e-06  -1.1602968e-05   2.7438589e-05  -2.2560131e-04  -1.4360750e-04  -2.0053478e-04   2.6605488e-04  -3.7759056e-04  -5.0187344e-04  -8.9500716e-04   5.1322389e-05  -4.1033814e-04   5.2729258e-05   9.7345113e-04  -1.6119416e-04
   1.2324739e-04   6.4233885e-05  -2.5673248e-04   5.2619862e-06   6.3320491e-05  -1.1246596e-04  -2.9498289e-04   1.2374756e-05   1.5751408e-04  -8.9618385e-05   1.2883804e-04   9.4820491e-05  -2.5939292e-04  -1.6104565e-04  -2.2755440e-04  -1.5323053e-04  -3.3694290e-05  -5.0293937e-05   1.4071509e-05  -3.3666209e-05  -2.5592424e-06  -4.3734784e-05   2.8182285e-05  -2.7364530e-04  -1.8538763e-04  -2.5244473e-04   2.4545033e-04  -4.3742734e-04  -4.9065740e-04  -9.7873481e-04  -1.3463272e-04  -4.9720443e-04   7.9707672e-05   1.0140958e-03  -1.7928408e-04
   1.2737553e-04   5.1694067e-05  -2.8993798e-04  -1.2815275e-05   6.5852306e-05  -1.0880846e-04  -3.2005948e-04  -1.8133480e-05   1.5409575e-04  -1.0031354e-04   1.3269186e-04   8.9551570e-05  -3.6293190e-04  -2.1166100e-04  -1.8890425e-04  -1.6783220e-04  -2.6989130e-05  -1.2117963e-04   1.3886343e-05  -2.3821658e-05   3.3978249e-06  -1.0269124e-04   1.6906293e-05  -2.8630628e-04  -2.3818003e-04  -2.8945363e-04   2.8721025e-04  -4.8713179e-04  -4.3985830e-04  -9.0436946e-04  -2.8361939e-04  -5.0898641e-04   1.1289435e-04   9.0496714e-04  -1.8238919e-04
   1.2325097e-04   3.3218115e-05  -3.1575424e-04  -3.7508471e-05   5.0333460e-05  -1.0458297e-04  -3.1131986e-04  -5.1840852e-05   1.0221325e-04  -1.1176556e-04   1.3279609e-04   2.3985611e-05  -4.5432459e-04  -2.6427177e-04  -1.6563539e-04  -1.6983665e-04  -2.3106413e-05  -2.0521070e-04   7.5375187e-06  -2.3944640e-05   8.5216916e-06  -1.8209616e-04  -9.9455201e-07  -2.5247151e-04  -3.0126740e-04  -3.1175255e-04   3.8277576e-04  -5.2084908e-04  -3.7399266e-04  -6.8708317e-04  -3.8581970e-04  -4.4127129e-04   1.4314926e-04   6.7022134e-04  -1.8131937e-04
   1.0884779e-04   1.7192986e-05  -3.3650626e-04  -6.4781932e-05   1.8776109e-05  -9.2832444e-05  -2.9205115e-04  -7.9008736e-05   4.4150085e-05  -1.2045525e-04   1.3501233e-04  -7.6918230e-05  -5.0177414e-04  -3.2171447e-04  -1.6974722e-04  -1.6063538e-04  -1.9493946e-05  -2.7756288e-04  -4.8644251e-06  -2.4799388e-05   9.0745507e-06  -2.6773787e-04  -1.6103118e-05  -1.6800946e-04  -3.6843264e-04  -3.2313506e-04   4.8895535e-04  -5.2973616e-04  -3.2341006e-04  -3.9449087e-04  -4.6688775e-04  -3.1864183e-04   1.6043593e-04   3.7708876e-04  -1.9002247e-04
   8.4412699e-05   9.9624731e-06  -3.5277076e-04  -8.6413696e-05  -2.1745991e-05  -6.7057634e-05  -2.8778770e-04  -9.2412578e-05   2.9563362e-05  -1.2307403e-04   1.4449892e-04  -1.7545666e-04  -4.8394449e-04  -3.8659619e-04  -1.8844377e-04  -1.4411059e-04  -9.9543186e-06  -3.1899879e-04  -2.0429303e-05  -1.4273559e-05   2.8247209e-06  -3.4206256e-04  -2.0806672e-05  -3.5887726e-05  -4.2873257e-04  -3.2551633e-04   5.5208697e-04  -5.0346041e-04  -3.1163401e-04  -1.2545865e-04  -5.6907581e-04  -1.8484591e-04   1.6223137e-04   1.0691354e-04  -2.1806340e-04
   5.4338656e-05   1.1898262e-05  -3.6071651e-04  -8.9303583e-05  -6.1498344e-05  -2.6247060e-05  -3.1105266e-04  -9.1378577e-05   8.8654640e-05  -1.1897015e-04   1.6266541e-04  -2.4030787e-04  -4.0095503e-04  -4.5813073e-04  -1.8361308e-04  -1.2502442e-04   1.1711918e-05  -3.2605740e-04  -3.4364817e-05   1.5188622e-05  -9.3606413e-06  -3.9007238e-04  -1.3700766e-05   1.3515938e-04  -4.6891076e-04  -3.1384078e-04   5.3647422e-04  -4.3257629e-04  -3.4322654e-04   2.7894050e-05  -7.2954374e-04  -8.4819578e-05   1.5931101e-04  -7.6251243e-05  -2.6425705e-04
   2.7880787e-05   1.6940310e-05  -3.5182186e-04  -5.6283647e-05  -9.1024616e-05   2.3104780e-05  -3.5425462e-04  -8.3132712e-05   2.1510542e-04  -1.1142930e-04   1.8595568e-04  -2.6147050e-04  -2.7593144e-04  -5.3052331e-04  -1.0733517e-04  -1.0738718e-04   4.6493362e-05  -3.1254199e-04  -4.2293421e-05   6.1665785e-05  -2.3585406e-05  -4.0376140e-04   2.6474163e-07   3.3244622e-04  -4.7665025e-04  -2.7495751e-04   4.4099597e-04  -3.1112495e-04  -3.9796016e-04   1.9159401e-05  -9.6356578e-04  -4.6196976e-05   1.7418984e-04  -1.4417636e-04  -3.1572476e-04
   1.7915621e-05   1.6113949e-05  -3.1538290e-04   3.0932140e-05  -1.0354957e-04   6.9323927e-05  -3.9514265e-04  -8.0408929e-05   3.6651766e-04  -1.0686357e-04   2.0738630e-04  -2.5351704e-04  -1.4535963e-04  -5.9391739e-04   7.3279945e-05  -9.3457907e-05   8.6222273e-05  -3.0112505e-04  -4.2946042e-05   1.1404784e-04  -3.4801644e-05  -3.8291237e-04   1.4001056e-05   5.4105825e-04  -4.4377675e-04  -1.9218096e-04   2.9526703e-04  -1.3873196e-04  -4.3562427e-04  -1.3571976e-04  -1.2553791e-03  -6.9622489e-05   2.3142414e-04  -1.0519408e-04  -3.5372531e-04
   3.7668007e-05   3.1904692e-06  -2.4285742e-04   1.8652149e-04  -9.6071832e-05   1.0120511e-04  -4.1114417e-04  -9.6010357e-05   4.8267533e-04  -1.1200745e-04   2.2025776e-04  -2.4543077e-04  -4.1838673e-05  -6.3753792e-04   3.5426460e-04  -8.3697807e-05   1.1392773e-04  -3.0942552e-04  -3.9574534e-05   1.5761424e-04  -3.9517818e-05  -3.3190587e-04   2.3930394e-05   7.4549473e-04  -3.6859064e-04  -5.4021173e-05   1.3934154e-04   7.8194134e-05  -4.1204001e-04  -3.7529587e-04  -1.5603424e-03  -1.3298688e-04   3.4369359e-04   9.4439229e-06  -3.6372000e-04
   9.6296266e-05  -2.0836987e-05  -1.3213330e-04   4.1420554e-04  -6.9167669e-05   1.1392400e-04  -3.9350163e-04  -1.3660641e-04   5.1394728e-04  -1.3043493e-04   2.2210366e-04  -2.6289618e-04   2.2301041e-05  -6.5361004e-04   6.8771600e-04  -7.7480043e-05   1.0997981e-04  -3.3883972e-04  -3.8915245e-05   1.8194223e-04  -3.7813177e-05  -2.5456664e-04   3.3032018e-05   9.3153375e-04  -2.5673513e-04   1.3700014e-04   4.5111130e-07   3.2630266e-04  -3.0073957e-04  -6.2954647e-04  -1.8198405e-03  -2.0628631e-04   5.0052215e-04   1.6559048e-04  -3.4450382e-04
   1.9477287e-04  -4.7271722e-05   9.9684448e-06   7.0220837e-04  -2.6039179e-05   1.1175182e-04  -3.5285790e-04  -1.9889206e-04   4.4547711e-04  -1.6004869e-04   2.1670264e-04  -3.1352666e-04   6.0987928e-05  -6.4036954e-04   9.9672622e-04  -7.3999159e-05   6.2216212e-05  -3.7349705e-04  -4.7629666e-05   1.8668485e-04  -3.3401491e-05  -1.5061798e-04   4.8640068e-05   1.0886050e-03  -1.2025329e-04   3.6017763e-04  -1.1893355e-04   5.8630586e-04  -1.0925181e-04  -8.5220137e-04  -1.9831690e-03  -2.6784002e-04   6.6595525e-04   3.4240159e-04  -3.1150275e-04
   3.2374077e-04  -6.3709304e-05   1.6798629e-04   1.0222526e-03   2.8615708e-05   1.0584631e-04  -3.1308323e-04  -2.7015133e-04   3.0328828e-04  -1.9302254e-04   2.1280065e-04  -3.8330283e-04   1.0579793e-04  -6.0303102e-04   1.2103207e-03  -7.2874609e-05  -2.5101199e-05  -3.9062940e-04  -6.7881119e-05   1.8159706e-04  -3.1527175e-05  -1.6724060e-05   7.5958080e-05   1.2122588e-03   2.5118885e-05   5.8006955e-04  -2.3500055e-04   8.3530077e-04   1.1986217e-04  -1.0328162e-03  -2.0262180e-03  -3.1324092e-04   7.8836613e-04   5.3655612e-04  -2.9170813e-04
   4.6451745e-04  -6.0472397e-05   3.2084831e-04   1.3340656e-03   8.9310568e-05   1.0828624e-04  -2.9673110e-04  -3.3312431e-04   1.3925061e-04  -2.1844714e-04   2.2003616e-04  -4.4526428e-04   1.8719136e-04  -5.5241224e-04   1.3017694e-03  -7.4209420e-05  -1.2954071e-04  -3.7608686e-04  -9.4478863e-05   1.8055746e-04  -3.5731362e-05   1.4753180e-04   1.1155574e-04   1.3055566e-03   1.6382542e-04   7.5738598e-04  -3.6308501e-04   1.0502262e-03   3.2450908e-04  -1.1877341e-03  -1.9592592e-03  -3.5358718e-04   8.2034641e-04   7.5304910e-04  -3.1143389e-04
   5.9366465e-04  -3.6034216e-05   4.4653617e-04   1.5951382e-03   1.5002604e-04   1.2566151e-04  -3.1094739e-04  -3.7283188e-04   5.1035213e-06  -2.2672073e-04   2.4394756e-04  -4.7478272e-04   3.1588212e-04  -5.0180929e-04   1.3041116e-03  -7.8279896e-05  -2.1848567e-04  -3.3545363e-04  -1.1581057e-04   1.9292066e-04  -4.5263714e-05   3.3190160e-04   1.4183005e-04   1.3779801e-03   2.8435641e-04   8.6319161e-04  -4.9793255e-04   1.2118303e-03   4.4729497e-04  -1.3387931e-03  -1.8217298e-03  -4.0517305e-04   7.4053591e-04   9.8920695e-04  -3.8245306e-04
   6.9000997e-04   1.4790966e-06   5.2693096e-04   1.7731047e-03   2.0429736e-04   1.5556008e-04  -3.4336589e-04  -3.8234243e-04  -6.9530543e-05  -2.1381187e-04   2.8252223e-04  -4.6306525e-04   4.7402689e-04  -4.6316997e-04   1.2880310e-03  -8.5205509e-05  -2.6373216e-04  -2.9339016e-04  -1.1869965e-04   2.1724708e-04  -5.4770841e-05   5.1113300e-04   1.4904069e-04   1.4412424e-03   3.8188789e-04   8.8962907e-04  -6.0741493e-04   1.3081423e-03   4.5796670e-04  -1.4931788e-03  -1.6663065e-03  -4.7699476e-04   5.6575472e-04   1.2227668e-03  -4.9421634e-04
   7.4174185e-04   3.7819173e-05   5.5162294e-04   1.8558827e-03   2.4553938e-04   1.8768043e-04  -3.7147911e-04  -3.6525170e-04  -8.5189313e-05  -1.8353375e-04   3.2609087e-04  -4.2192897e-04   6.2092708e-04  -4.4378871e-04   1.3138385e-03  -9.4896335e-05  -2.5606740e-04  -2.7990798e-04  -9.5249212e-05   2.4125689e-04  -5.6684214e-05   6.4899359e-04   1.2284900e-04   1.5031018e-03   4.5869316e-04   8.5106777e-04  -6.4525189e-04   1.3364132e-03   3.6572287e-04  -1.6362726e-03  -1.5385703e-03  -5.6341937e-04   3.4529195e-04   1.4127115e-03  -6.1743660e-04
   7.5041660e-04   5.9556540e-05   5.2010553e-04   1.8543036e-03   2.6795204e-04   2.0888050e-04  -3.7987501e-04  -3.3403092e-04  -6.5246226e-05  -1.4681715e-04   3.6093092e-04  -3.7708331e-04   7.1106764e-04  -4.4459087e-04   1.3861037e-03  -1.0727262e-04  -2.1308512e-04  -3.1037978e-04  -4.8259571e-05   2.4853347e-04  -4.5228397e-05   7.1190234e-04   7.0613052e-05   1.5617737e-03   5.2217121e-04   7.7473221e-04  -5.7674601e-04   1.3027444e-03   2.1646236e-04  -1.7411991e-03  -1.4625686e-03  -6.4635189e-04   1.3965693e-04   1.5148200e-03  -7.1775814e-04
   7.2982756e-04   6.0726652e-05   4.4208593e-04   1.7954794e-03   2.6793173e-04   2.0952901e-04  -3.7426251e-04  -3.0493393e-04  -3.8855465e-05  -1.1815040e-04   3.7527777e-04  -3.5315627e-04   7.1565097e-04  -4.6047167e-04   1.4373270e-03  -1.2252612e-04  -1.7548686e-04  -3.7179215e-04   7.8629619e-06   2.2847483e-04  -2.0046711e-05   6.8674830e-04   1.8695004e-05   1.6039034e-03   5.8121525e-04   6.8622350e-04  -4.0341017e-04   1.2194904e-03   7.4235104e-05  -1.7881661e-03  -1.4407943e-03  -7.0533430e-04  -4.7453282e-06   1.5047858e-03  -7.7244523e-04
   6.9994369e-04   4.5384098e-05   3.3554749e-04   1.7105993e-03   2.4547050e-04   1.8773841e-04  -3.8245303e-04  -2.9139299e-04  -2.4100702e-05  -1.1046177e-04   3.6502382e-04  -3.5885593e-04   6.3519663e-04  -4.8249509e-04   1.3564761e-03  -1.4115887e-04  -1.9062853e-04  -4.2604416e-04   5.2136103e-05   1.8355300e-04   1.2467865e-05   5.9188332e-04   1.6088622e-06   1.6080984e-03   6.4220990e-04   5.9803779e-04  -1.7176208e-04   1.1016697e-03  -7.1838476e-06  -1.7813733e-03  -1.4661520e-03  -7.2944240e-04  -7.2331815e-05   1.3953183e-03  -7.8184716e-04
   6.7853881e-04   2.4568746e-05   2.2242054e-04   1.6233069e-03   2.0483958e-04   1.4930296e-04  -4.3898026e-04  -2.9867495e-04  -2.0922276e-05  -1.3042874e-04   3.3628559e-04  -3.8126740e-04   4.9491785e-04  -5.0117652e-04   1.0590013e-03  -1.6371564e-04  -2.8835950e-04  -4.3074245e-04   6.6536828e-05   1.2891721e-04   4.1078845e-05   4.7250337e-04   4.2981766e-05   1.5536355e-03   7.0615369e-04   5.0681410e-04   4.1345484e-05   9.6379011e-04  -9.3394074e-06  -1.7531393e-03  -1.5342772e-03  -7.2426005e-04  -7.9784346e-05   1.2357030e-03  -7.7011983e-04
   6.7393476e-04   9.5277710e-06   1.2240799e-04   1.5430854e-03   1.5399393e-04   1.0362137e-04  -5.5986090e-04  -3.2213642e-04  -1.7311188e-05  -1.7623541e-04   3.0317216e-04  -3.9290386e-04   3.2567212e-04  -5.0979434e-04   5.6148478e-04  -1.9046591e-04  -4.6153559e-04  -3.6711927e-04   4.5766730e-05   8.3780535e-05   5.4153716e-05   3.8120578e-04   1.3703227e-04   1.4309887e-03   7.6805748e-04   3.9982979e-04   1.6280070e-04   8.1805600e-04   4.2943786e-05  -1.7510781e-03  -1.6472879e-03  -7.1002427e-04  -6.2874817e-05   1.0934535e-03  -7.7405234e-04
   6.8182428e-04   5.1146176e-06   4.6312678e-05   1.4656471e-03   1.0262927e-04   5.8243131e-05  -7.2259409e-04  -3.4982973e-04  -3.9077581e-06  -2.3872175e-04   2.8135566e-04  -3.6748426e-04   1.4295624e-04  -5.0681736e-04   5.3041290e-06  -2.2138566e-04  -6.6389819e-04  -2.6063240e-04   1.8333426e-06   5.9151731e-05   4.4714056e-05   3.5339553e-04   2.3998806e-04   1.2489209e-03   8.1888464e-04   2.6648410e-04   1.6084549e-04   6.7390886e-04   9.4984069e-05  -1.8127885e-03  -1.8086260e-03  -7.1150676e-04  -5.5156896e-05   1.0285676e-03  -8.2408241e-04
   6.8742817e-04   7.0839756e-06  -9.1110678e-06   1.3796902e-03   5.9426948e-05   1.5117302e-05  -8.6605229e-04  -3.6810496e-04   1.3027210e-05  -3.0519173e-04   2.8020926e-04  -2.9581678e-04  -6.2667161e-05  -4.9660972e-04  -3.9016712e-04  -2.5668563e-04  -8.2746777e-04  -1.8174826e-04  -3.9769660e-05   4.8968308e-05   1.3644346e-05   3.8914240e-04   2.7902934e-04   1.0337965e-03   8.4941153e-04   1.0815678e-04   6.5337292e-05   5.3837110e-04   8.8775756e-05  -1.9415439e-03  -2.0139809e-03  -7.4463262e-04  -6.8809786e-05   1.0728105e-03  -9.2647324e-04
   6.7220547e-04   4.8106986e-06  -6.2193467e-05   1.2764852e-03   2.9514364e-05  -2.9550651e-05  -9.1262406e-04  -3.6766726e-04   9.0840049e-06  -3.6405740e-04   2.9684408e-04  -1.9335804e-04  -3.1745131e-04  -4.8789769e-04  -4.0765238e-04  -2.9763402e-04  -8.8937674e-04  -2.1999335e-04  -5.0970968e-05   3.0482124e-05  -3.0576746e-05   4.5017200e-04   1.8077770e-04   8.2080427e-04   8.5441890e-04  -5.9155016e-05  -4.2789510e-05   4.1648877e-04  -1.0563514e-05  -2.0988472e-03  -2.2449549e-03  -8.0724130e-04  -8.7927227e-05   1.2211910e-03  -1.0568501e-03
   6.2236615e-04  -1.2041683e-05  -1.4083879e-04   1.1559905e-03   1.3141959e-05  -8.2101382e-05  -8.0151932e-04  -3.4761126e-04  -4.7325662e-05  -4.0831327e-04   3.1480624e-04  -9.4757008e-05  -6.4232340e-04  -4.9024366e-04   9.8759563e-05  -3.4703416e-04  -8.1552903e-04  -4.3711919e-04  -1.4113130e-05  -2.4793737e-05  -7.5372242e-05   4.7611829e-04  -9.0667534e-05   6.4114045e-04   8.3536463e-04  -2.1100916e-04  -6.9350695e-05   3.1136035e-04  -1.9943860e-04  -2.2198420e-03  -2.4716654e-03  -8.7963673e-04  -7.8413257e-05   1.4367094e-03  -1.1697405e-03
   5.3543749e-04  -4.6821435e-05  -2.7006396e-04   1.0255311e-03   6.1486353e-06  -1.4680867e-04  -5.1890448e-04  -3.1597557e-04  -1.7554667e-04  -4.3662376e-04   3.0843279e-04  -3.6972058e-05  -1.0288478e-03  -5.0964742e-04   1.1542884e-03  -4.0855751e-04  -6.1394816e-04  -8.2425418e-04   6.8819187e-05  -1.3429232e-04  -1.0896004e-04   4.1605954e-04  -5.0811691e-04   5.1098928e-04   8.0025906e-04  -3.2615397e-04   4.7248992e-05   2.2367924e-04  -4.3751104e-04  -2.2427684e-03  -2.6655591e-03  -9.3470002e-04  -9.1430447e-06   1.6655790e-03  -1.2194141e-03
   4.2209841e-04  -9.3309398e-05  -4.5668095e-04   8.9430221e-04   2.1828528e-06  -2.2245003e-04  -1.1448994e-04  -2.8659203e-04  -3.6608291e-04  -4.5186069e-04   2.5210000e-04  -3.9217994e-05  -1.4279878e-03  -5.4521841e-04   2.6212111e-03  -4.8466469e-04  -3.3535805e-04  -1.2936697e-03   1.7483186e-04  -2.9108452e-04  -1.2426190e-04   2.5974677e-04  -9.8652684e-04   4.2702930e-04   7.6078530e-04  -3.9720710e-04   3.0529205e-04   1.5143248e-04  -6.6606893e-04  -2.1370573e-03  -2.8155968e-03  -9.5176231e-04   1.2744690e-04   1.8571871e-03  -1.1815398e-03
   3.0288778e-04  -1.3876462e-04  -6.7895622e-04   7.7027566e-04  -4.1821754e-06  -3.0182835e-04   3.0345799e-04  -2.7328485e-04  -5.7795970e-04  -4.5809543e-04   1.3128482e-04  -9.1250316e-05  -1.7600122e-03  -5.8868760e-04   4.1692532e-03  -5.7375175e-04  -5.9480026e-05  -1.7122369e-03   2.6777384e-04  -4.6247637e-04  -1.2021491e-04   4.7964633e-05  -1.4155485e-03   3.7026440e-04   7.2800752e-04  -4.3439784e-04   6.3834718e-04   9.0518071e-05  -8.3438068e-04  -1.9187772e-03  -2.9358354e-03  -9.2683820e-04   3.0626290e-04   1.9809979e-03  -1.0657995e-03
   2.0147170e-04  -1.7051579e-04  -8.8792347e-04   6.6083367e-04  -1.4751410e-05  -3.7426999e-04   6.0159643e-04  -2.8368930e-04  -7.5271394e-04  -4.5780244e-04  -4.9266364e-05  -1.5727505e-04  -1.9415970e-03  -6.2731438e-04   5.3197625e-03  -6.6798541e-04   1.3239514e-04  -1.9533979e-03   3.1300142e-04  -6.0236407e-04  -1.0034059e-04  -1.4629314e-04  -1.6984050e-03   3.1676699e-04   7.0858275e-04  -4.6005927e-04   9.4299339e-04   3.6470588e-05  -9.1978995e-04  -1.6481046e-03  -3.0563476e-03  -8.7430683e-04   4.7701068e-04   2.0333687e-03  -9.1408129e-04
   1.3717511e-04  -1.8219752e-04  -1.0205336e-03   5.7310687e-04  -2.6815345e-05  -4.2954567e-04   6.7884609e-04  -3.1544111e-04  -8.3763024e-04  -4.5085454e-04  -2.6472678e-04  -1.9347835e-04  -1.9172940e-03  -6.4915145e-04   5.6486884e-03  -7.5341872e-04   1.9000888e-04  -1.9401263e-03   2.9266652e-04  -6.7136472e-04  -6.9773072e-05  -2.5408607e-04  -1.7792697e-03   2.5057758e-04   7.0301775e-04  -4.9661595e-04   1.1232983e-03  -1.3268508e-05  -9.3145017e-04  -1.4079234e-03  -3.2016304e-03  -8.1933092e-04   5.8569555e-04   2.0323191e-03  -7.8404858e-04
   1.1926387e-04  -1.7663259e-04  -1.0191050e-03   5.1221257e-04  -3.4582135e-05  -4.6128940e-04   5.1854283e-04  -3.5667338e-04  -8.0678897e-04  -4.3572896e-04  -4.7792075e-04  -1.6962460e-04  -1.6823151e-03  -6.4837461e-04   5.0685257e-03  -8.1307854e-04   1.1450206e-04  -1.6675718e-03   2.1369031e-04  -6.5496942e-04  -3.2600921e-05  -2.4382552e-04  -1.6540609e-03   1.7247714e-04   7.0650043e-04  -5.5458880e-04   1.1329274e-03  -5.7699952e-05  -8.9924852e-04  -1.2691608e-03  -3.3712923e-03  -7.8466098e-04   6.0025929e-04   2.0046532e-03  -7.2405918e-04
   1.4473617e-04  -1.6429755e-04  -8.5053052e-04   4.7932536e-04  -3.2511140e-05  -4.6858692e-04   1.9666321e-04  -3.9076770e-04  -6.7153393e-04  -4.1189443e-04  -6.5229007e-04  -8.4053667e-05  -1.2883527e-03  -6.2808016e-04   3.8909332e-03  -8.3225040e-04  -4.6993558e-05  -1.2055065e-03   1.0387105e-04  -5.7111692e-04   9.0329922e-06  -1.3671488e-04  -1.3669402e-03   9.9733828e-05   7.1170402e-04  -6.2723365e-04   9.9487242e-04  -9.2310554e-05  -8.5714704e-04  -1.2585879e-03  -3.5373457e-03  -7.7869906e-04   5.2625529e-04   1.9727859e-03  -7.5124681e-04
   2.0000829e-04  -1.5819685e-04  -5.2077888e-04   4.7151893e-04  -1.8981309e-05  -4.5553161e-04  -1.6133473e-04  -4.0324178e-04  -4.7682904e-04  -3.8197238e-04  -7.6449581e-04   3.4706620e-05  -8.2914467e-04  -5.9910596e-04   2.5874458e-03  -8.0414838e-04  -2.2796086e-04  -6.7983824e-04  -1.5498983e-06  -4.6313685e-04   5.3773310e-05   1.7897240e-06  -9.9502993e-04   5.6709367e-05   7.1227067e-04  -6.9453625e-04   7.8746467e-04  -1.1133850e-04  -8.2928530e-04  -1.3486042e-03  -3.6607736e-03  -7.9147663e-04   4.0260621e-04   1.9467965e-03  -8.4490166e-04
   2.6563561e-04  -1.6747677e-04  -8.1083082e-05   4.8274553e-04   1.4776630e-06  -4.2936564e-04  -4.4201821e-04  -3.8784897e-04  -2.8449809e-04  -3.5236572e-04  -8.1187463e-04   1.4060152e-04  -4.0802636e-04  -5.7511585e-04   1.5294780e-03  -7.3369377e-04  -3.7219049e-04  -2.3091385e-04  -7.5432734e-05  -3.7996678e-04   9.8851597e-05   9.2870985e-05  -6.2394975e-04   6.1074650e-05   7.0539134e-04  -7.3416671e-04   6.0335355e-04  -1.1162118e-04  -8.2258310e-04  -1.4756856e-03  -3.7175012e-03  -8.0083671e-04   2.7963097e-04   1.9235222e-03  -9.5891836e-04
   3.2209724e-04  -1.9301206e-04   3.7865515e-04   5.0404517e-04   1.8839570e-05  -3.9819183e-04  -5.8733387e-04  -3.4938823e-04  -1.4903765e-04  -3.3182953e-04  -8.1235293e-04   1.9146795e-04  -9.8505370e-05  -5.6625367e-04   8.9096511e-04  -6.3758652e-04  -4.5161796e-04   4.2422642e-05  -1.0895159e-04  -3.5269707e-04   1.3856510e-04   8.5494568e-05  -3.2066318e-04   1.1248021e-04   6.9241686e-04  -7.3372031e-04   5.0484680e-04  -9.6205149e-05  -8.2687434e-04  -1.5740992e-03  -3.7192344e-03  -7.8484305e-04   1.9277001e-04   1.8912009e-03  -1.0456519e-03
   3.5460497e-04  -2.2750701e-04   7.5330201e-04   5.2280573e-04   2.1324940e-05  -3.6901599e-04  -6.0656550e-04  -3.0197541e-04  -9.6435906e-05  -3.2817130e-04  -7.9675380e-04   1.6881093e-04   8.2722123e-05  -5.7459524e-04   6.6533091e-04  -5.3979381e-04  -4.6849719e-04   1.2385169e-04  -1.1257650e-04  -3.8029268e-04   1.6481467e-04  -1.5172316e-05  -1.1529629e-04   1.8923634e-04   6.7735161e-04  -6.9831341e-04   4.9987109e-04  -7.5458302e-05  -8.2249142e-04  -1.6044338e-03  -3.7165093e-03  -7.3336565e-04   1.4677363e-04   1.8369993e-03  -1.0781509e-03
   3.5580370e-04  -2.6021915e-04   9.5934520e-04   5.2367116e-04   8.9817195e-07  -3.4645823e-04  -5.6025130e-04  -2.6310960e-04  -1.1678353e-04  -3.4443708e-04  -7.9592870e-04   8.5555286e-05   1.7402487e-04  -5.9387228e-04   7.1967853e-04  -4.6337140e-04  -4.4562595e-04   7.5795775e-05  -1.0832239e-04  -4.3318418e-04   1.6993310e-04  -1.5230104e-04  -1.2915530e-06   2.5522205e-04   6.6414644e-04  -6.4961449e-04   5.4739445e-04  -6.4506436e-05  -7.9242879e-04  -1.5646520e-03  -3.7772611e-03  -6.5295887e-04   1.1779951e-04   1.7543547e-03  -1.0603425e-03
   3.2635598e-04  -2.8334610e-04   9.6891198e-04   4.9353036e-04  -4.2058753e-05  -3.3210943e-04  -5.2455423e-04  -2.4584983e-04  -1.7422414e-04  -3.7674728e-04  -8.2761585e-04  -2.2100159e-05   2.3935936e-04  -6.1374850e-04   8.6388597e-04  -4.2171136e-04  -4.1112705e-04  -6.5831264e-06  -1.1724812e-04  -4.7246131e-04   1.5053712e-04  -2.5380176e-04   4.8098445e-05   2.7475521e-04   6.5431191e-04  -6.1608240e-04   5.8406097e-04  -7.7576333e-05  -7.3269784e-04  -1.4827088e-03  -3.9463830e-03  -5.6321954e-04   7.1163464e-05   1.6475585e-03  -1.0213620e-03
   2.7404059e-04  -2.9601692e-04   8.2004699e-04   4.2879020e-04  -9.7540076e-05  -3.2451781e-04  -5.5028783e-04  -2.5273583e-04  -2.2750853e-04  -4.1532118e-04  -8.8918791e-04  -1.1355277e-04   3.2928769e-04  -6.2615023e-04   9.3259779e-04  -4.1362701e-04  -3.8491178e-04  -4.9802005e-05  -1.4858891e-04  -4.7311658e-04   1.1018234e-04  -2.7727100e-04   5.9531238e-05   2.2877552e-04   6.4609072e-04  -6.1887573e-04   5.5711198e-04  -1.2185790e-04  -6.5442978e-04  -1.3970399e-03  -4.2094835e-03  -4.8694914e-04  -1.5338346e-05   1.5318416e-03  -9.9757931e-04
   2.1164055e-04  -3.0359864e-04   5.9652783e-04   3.3982415e-04  -1.4937302e-04  -3.1994152e-04  -6.3748035e-04  -2.7485625e-04  -2.4946622e-04  -4.4866515e-04  -9.6016715e-04  -1.6299749e-04   4.5389356e-04  -6.2994874e-04   8.5604569e-04  -4.2528921e-04  -3.7276431e-04  -3.3390617e-05  -1.9617392e-04  -4.3842621e-04   5.8985490e-05  -2.3614788e-04   4.8063692e-05   1.2370961e-04   6.3549314e-04  -6.6133775e-04   4.5001617e-04  -1.9395877e-04  -5.7750486e-04  -1.3354840e-03  -4.4897166e-03  -4.3971656e-04  -1.3598408e-04   1.4286890e-03  -1.0122868e-03
   1.5379772e-04  -3.1328257e-04   3.9057157e-04   2.4879398e-04  -1.8205817e-04  -3.1403708e-04  -7.4091827e-04  -2.9684624e-04  -2.3674412e-04  -4.6901754e-04  -1.0135673e-03  -1.6949282e-04   5.7984213e-04  -6.3105306e-04   6.7770790e-04  -4.3826242e-04  -3.6969385e-04   1.1978083e-05  -2.4388058e-04  -3.9768152e-04   9.9220333e-06  -1.9186983e-04   1.8495943e-05  -1.2319312e-05   6.1845419e-04  -7.2841573e-04   2.9017925e-04  -2.8109431e-04  -5.2146497e-04  -1.3038934e-03  -4.6846080e-03  -4.2465774e-04  -2.5902592e-04   1.3576209e-03  -1.0645656e-03
   1.1315493e-04  -3.2911779e-04   2.6847073e-04   1.8152267e-04  -1.8801975e-04  -3.0420837e-04  -8.0179429e-04  -3.0535951e-04  -2.0745071e-04  -4.7639463e-04  -1.0303053e-03  -1.5373928e-04   6.5193069e-04  -6.3770841e-04   5.0660432e-04  -4.3943079e-04  -3.6887001e-04   3.3163094e-05  -2.7653584e-04  -3.8814035e-04  -2.6606565e-05  -2.1453212e-04  -2.5455694e-05  -1.4382057e-04   5.9280009e-04  -7.9604029e-04   1.3405766e-04  -3.6660946e-04  -4.9955107e-04  -1.2901484e-03  -4.7208238e-03  -4.3510966e-04  -3.4495944e-04   1.3273583e-03  -1.1327962e-03
   9.6632750e-05  -3.4971361e-04   2.5179621e-04   1.5752926e-04  -1.7184987e-04  -2.9173071e-04  -7.8430370e-04  -2.9665401e-04  -1.8988234e-04  -4.7922609e-04  -1.0097045e-03  -1.4415753e-04   6.2785763e-04  -6.5371708e-04   4.4180386e-04  -4.2777989e-04  -3.6968978e-04  -6.6931561e-06  -2.8982846e-04  -4.3094080e-04  -4.7361384e-05  -3.3287733e-04  -7.3240546e-05  -2.4492617e-04   5.5901421e-04  -8.4442564e-04   3.7337497e-05  -4.3722763e-04  -5.1719090e-04  -1.2792614e-03  -4.5989044e-03  -4.6231798e-04  -3.7009266e-04   1.3299404e-03  -1.1889351e-03
   1.0289844e-04  -3.6982706e-04   3.1688149e-04   1.8297377e-04  -1.4924179e-04  -2.8235558e-04  -6.9687807e-04  -2.7933941e-04  -2.0854214e-04  -4.9080921e-04  -9.7106327e-04  -1.6034704e-04   5.0635089e-04  -6.7395205e-04   5.1633571e-04  -4.1471256e-04  -3.8005575e-04  -1.0212955e-04  -2.9370995e-04  -5.1575172e-04  -5.7716239e-05  -5.0519296e-04  -1.0780189e-04  -3.1044072e-04   5.1960052e-04  -8.6783117e-04   2.8814091e-05  -4.8846309e-04  -5.7276542e-04  -1.2683135e-03  -4.4092569e-03  -5.0223793e-04  -3.4155845e-04   1.3413453e-03  -1.2145588e-03
   1.2228350e-04  -3.8456474e-04   4.0990172e-04   2.4987906e-04  -1.4035428e-04  -2.8441116e-04  -5.8856263e-04  -2.7042566e-04  -2.7414324e-04  -5.2283739e-04  -9.4486267e-04  -2.0317423e-04   3.3082807e-04  -6.8551331e-04   6.8228797e-04  -4.1748173e-04  -4.1197086e-04  -2.0871666e-04  -3.0733587e-04  -6.0459255e-04  -6.9022542e-05  -6.3274184e-04  -1.1439899e-04  -3.5607023e-04   4.7754621e-04  -8.7597448e-04   1.0252630e-04  -5.2558171e-04  -6.5818959e-04  -1.2708433e-03  -4.3035690e-03  -5.5627181e-04  -2.9484977e-04   1.3302773e-03  -1.2104401e-03
   1.3999117e-04  -3.9329132e-04   4.7189539e-04   3.4198654e-04  -1.6000288e-04  -3.0450709e-04  -5.2196736e-04  -2.8582299e-04  -3.8153495e-04  -5.7893409e-04  -9.5694500e-04  -2.5640239e-04   1.6631361e-04  -6.7474111e-04   8.3723752e-04  -4.4864335e-04  -4.7373935e-04  -2.7276797e-04  -3.4790114e-04  -6.5339776e-04  -9.2803995e-05  -6.1051711e-04  -9.1807742e-05  -4.0803972e-04   4.3483530e-04  -8.8666310e-04   2.2662945e-04  -5.5966771e-04  -7.5876602e-04  -1.3073639e-03  -4.4141668e-03  -6.2524219e-04  -2.7404481e-04   1.2732730e-03  -1.1947152e-03
   1.4221518e-04  -4.0034048e-04   4.6475077e-04   4.4417600e-04  -2.0920073e-04  -3.4266035e-04  -5.3563563e-04  -3.2986337e-04  -5.1478902e-04  -6.5162167e-04  -1.0133146e-03  -2.9762153e-04   6.4548367e-05  -6.3667842e-04   8.8077632e-04  -5.0703972e-04  -5.6382240e-04  -2.6726178e-04  -4.1933442e-04  -6.3909619e-04  -1.3434782e-04  -3.8911455e-04  -5.7565681e-05  -4.8711358e-04   3.9176809e-04  -9.1362052e-04   3.5822915e-04  -6.0077925e-04  -8.5361220e-04  -1.3877747e-03  -4.7564590e-03  -7.0084020e-04  -3.0493428e-04   1.1695264e-03  -1.1892023e-03
   1.2302161e-04  -4.1166419e-04   3.8726864e-04   5.5016967e-04  -2.7272734e-04  -3.8965303e-04  -6.1834278e-04  -3.8984750e-04  -6.5493066e-04  -7.2461151e-04  -1.0942694e-03  -3.1130813e-04   3.7408921e-05  -5.8152783e-04   7.7416666e-04  -5.7577406e-04  -6.7027769e-04  -2.1282837e-04  -5.0750282e-04  -5.7692482e-04  -1.8895307e-04  -1.8005361e-05  -4.1776879e-05  -5.9522281e-04   3.4740043e-04  -9.5659570e-04   4.5687755e-04  -6.5176026e-04  -9.1876410e-04  -1.4975041e-03  -5.1925913e-03  -7.6126296e-04  -3.7712214e-04   1.0467136e-03  -1.2010685e-03
   8.8606597e-05  -4.2936555e-04   2.7367100e-04   6.6360843e-04  -3.2457645e-04  -4.2898257e-04  -7.1382936e-04  -4.3964162e-04  -7.8561722e-04  -7.7960966e-04  -1.1622341e-03  -2.9662560e-04   5.2160907e-05  -5.3357572e-04   5.6600623e-04  -6.2888651e-04  -7.7590666e-04  -1.7159435e-04  -5.8510620e-04  -5.1695720e-04  -2.4297061e-04   3.5534022e-04  -7.0507434e-05  -7.1219273e-04   3.0072700e-04  -1.0000073e-03   4.9527705e-04  -7.0623803e-04  -9.3387335e-04  -1.5980784e-03  -5.4919291e-03  -7.7567465e-04  -4.4725201e-04   9.5244718e-04  -1.2131998e-03
   5.6143253e-05  -4.4801313e-04   1.7544466e-04   7.9124479e-04  -3.3914001e-04  -4.4337584e-04  -7.5394358e-04  -4.5118330e-04  -8.9453586e-04  -8.0447004e-04  -1.1797640e-03  -2.6619452e-04   5.1787832e-05  -5.2138080e-04   3.6650599e-04  -6.4349559e-04  -8.6585677e-04  -2.1373901e-04  -6.2387995e-04  -5.1837828e-04  -2.7942361e-04   5.4628914e-04  -1.4746631e-04  -8.0451788e-04   2.5179831e-04  -1.0212325e-03   4.6620873e-04  -7.5202959e-04  -8.9102314e-04  -1.6434507e-03  -5.4350928e-03  -7.1683445e-04  -4.6237768e-04   9.3388191e-04  -1.1919549e-03
   4.6994970e-05  -4.5589989e-04   1.3598552e-04   9.3183765e-04  -3.0306116e-04  -4.2336620e-04  -6.9986383e-04  -4.0871112e-04  -9.7166805e-04  -7.9909322e-04  -1.1289802e-03  -2.3740347e-04  -7.8650228e-06  -5.6290330e-04   2.9087398e-04  -6.1153574e-04  -9.3329512e-04  -3.7183511e-04  -6.0787599e-04  -6.1299076e-04  -2.8567496e-04   4.3792182e-04  -2.4635598e-04  -8.4141863e-04   2.0190317e-04  -1.0035728e-03   3.8328482e-04  -7.7816535e-04  -8.0173946e-04  -1.6036506e-03  -4.9011628e-03  -5.7646231e-04  -3.9049721e-04   1.0142495e-03  -1.1077853e-03
   7.6867742e-05  -4.4146337e-04   1.7014466e-04   1.0672972e-03  -2.2261827e-04  -3.7392441e-04  -5.6975550e-04  -3.1940028e-04  -1.0071541e-03  -7.7629834e-04  -1.0235190e-03  -2.2188840e-04  -1.2351379e-04  -6.5341836e-04   4.0749527e-04  -5.4592144e-04  -9.8043808e-04  -6.1152421e-04  -5.4157118e-04  -7.7937904e-04  -2.5975626e-04   6.7619774e-05  -3.2095987e-04  -8.0996635e-04   1.5269061e-04  -9.4657467e-04   2.7543082e-04  -7.8175741e-04  -6.9729844e-04  -1.4839073e-03  -3.9352640e-03  -3.7610737e-04  -2.4235925e-04   1.1767957e-03  -9.5610035e-04
   1.4706493e-04  -4.0179832e-04   2.5663269e-04   1.1620229e-03  -1.2320871e-04  -3.1550540e-04  -4.3934557e-04  -2.1548819e-04  -9.9127658e-04  -7.5689657e-04  -9.0700592e-04  -2.1976270e-04  -2.3442035e-04  -7.6401356e-04   7.1201212e-04  -4.7810172e-04  -1.0149021e-03  -8.4039522e-04  -4.4922990e-04  -9.4510388e-04  -2.1255021e-04  -3.7051769e-04  -3.2886086e-04  -7.2236510e-04   1.0483898e-04  -8.6815766e-04   1.7914605e-04  -7.7094685e-04  -6.1927125e-04  -1.3297180e-03  -2.8122480e-03  -1.6702493e-04  -7.2846189e-05   1.3645757e-03  -7.6774904e-04
   2.4097099e-04  -3.4863612e-04   3.4523898e-04   1.1728076e-03  -4.0211911e-05  -2.7757912e-04  -4.1028269e-04  -1.4503757e-04  -9.1714202e-04  -7.6064462e-04  -8.3658576e-04  -2.2191605e-04  -2.4478635e-04  -8.5304404e-04   1.1311228e-03  -4.4671929e-04  -1.0439060e-03  -9.4978168e-04  -3.6536175e-04  -1.0172678e-03  -1.6465709e-04  -6.0849398e-04  -2.5702611e-04  -6.1205326e-04   5.7331548e-05  -7.9711480e-04   1.3173914e-04  -7.6205947e-04  -6.0235104e-04  -1.2128211e-03  -2.0376674e-03  -1.5349266e-05   4.2257027e-05   1.5006129e-03  -6.0417951e-04
   3.2833123e-04  -3.0762743e-04   3.7620508e-04   1.0665676e-03  -4.0437772e-06  -2.8593023e-04  -5.5480096e-04  -1.5251867e-04  -7.8467827e-04  -7.9697580e-04  -8.5651252e-04  -2.1866875e-04  -6.6587505e-05  -8.8525558e-04   1.5531052e-03  -4.8100183e-04  -1.0698363e-03  -8.6417835e-04  -3.1987613e-04  -9.2609727e-04  -1.3874997e-04  -4.1652378e-04  -1.3712223e-04  -5.1971758e-04   8.1349390e-06  -7.5902452e-04   1.6420473e-04  -7.7187573e-04  -6.5727154e-04  -1.1999377e-03  -2.1218820e-03   2.4865625e-05   4.6586443e-05   1.5244955e-03  -5.3559500e-04
   3.7698032e-04  -3.0941909e-04   3.0564651e-04   8.3804142e-04  -2.5710204e-05  -3.4911538e-04  -8.6651649e-04  -2.5690254e-04  -6.0355256e-04  -8.5997127e-04  -9.7420614e-04  -2.0935683e-04   3.3706019e-04  -8.4910006e-04   1.8754950e-03  -5.8666832e-04  -1.0896518e-03  -5.7685270e-04  -3.2471967e-04  -6.6216517e-04  -1.5027403e-04   3.0144409e-04  -4.1817555e-05  -4.7485737e-04  -4.3830878e-05  -7.6260587e-04   2.9206355e-04  -8.0848107e-04  -7.6359865e-04  -1.3173657e-03  -3.1731753e-03  -6.1319413e-05  -6.0755763e-05   1.4288840e-03  -6.0550054e-04
   3.6771107e-04  -3.7534657e-04   1.2793257e-04   5.1735068e-04  -9.0290596e-05  -4.5163161e-04  -1.2528638e-03  -4.3961499e-04  -3.9302226e-04  -9.3017099e-04  -1.1528470e-03  -2.0670064e-04   9.2298223e-04  -7.6381146e-04   2.0491162e-03  -7.4248156e-04  -1.0980302e-03  -1.6210815e-04  -3.6888049e-04  -2.9207126e-04  -2.0051874e-04   1.4431268e-03  -5.8130485e-05  -4.8176449e-04  -9.6367257e-05  -7.9421210e-04   5.0621736e-04  -8.6547085e-04  -8.7789324e-04  -1.5322890e-03  -4.7908439e-03  -2.3912522e-04  -2.1757823e-04   1.2730141e-03  -7.9878484e-04
   3.0500453e-04  -5.0475646e-04  -1.1631781e-04   1.6172935e-04  -1.6201309e-04  -5.5852911e-04  -1.5751821e-03  -6.5041031e-04  -1.7828756e-04  -9.8229316e-04  -1.3256610e-03  -2.3193951e-04   1.5638449e-03  -6.7238096e-04   2.0941396e-03  -9.0950436e-04  -1.0919168e-03   2.4204300e-04  -4.2442692e-04   5.7931113e-05  -2.7547142e-04   2.6934452e-03  -2.4500722e-04  -5.1750662e-04  -1.4269116e-04  -8.2406367e-04   7.6899998e-04  -9.2288165e-04  -9.5399749e-04  -1.7634433e-03  -6.3866111e-03  -4.3758698e-04  -3.2539305e-04   1.1623041e-03  -1.0385715e-03
   2.1745624e-04  -6.7168340e-04  -3.5345485e-04  -1.6476898e-04  -1.9848623e-04  -6.2954467e-04  -1.7072174e-03  -8.2747010e-04   1.5375686e-05  -9.9513365e-04  -1.4237540e-03  -3.0199508e-04   2.0798505e-03  -6.2219717e-04   2.0795332e-03  -1.0472508e-03  -1.0735887e-03   4.8522608e-04  -4.5975888e-04   2.5204921e-04  -3.5099578e-04   3.6085935e-03  -5.9774506e-04  -5.4301560e-04  -1.7222598e-04  -8.2077296e-04   1.0209731e-03  -9.5464953e-04  -9.6519856e-04  -1.9135104e-03  -7.4971011e-03  -5.7859992e-04  -2.9349158e-04   1.2052337e-03  -1.2173422e-03
   1.4721246e-04  -8.3359802e-04  -5.0495059e-04  -4.1221455e-04  -1.6704552e-04  -6.3573621e-04  -1.5810875e-03  -9.2021987e-04   1.6812091e-04  -9.5933228e-04  -1.4034696e-03  -4.1613195e-04   2.3092616e-03  -6.4117060e-04   2.0808065e-03  -1.1281411e-03  -1.0505248e-03   4.7648896e-04  -4.5298823e-04   2.0891226e-04  -4.0174427e-04   3.8212114e-03  -1.0442931e-03  -5.2120106e-04  -1.7363841e-04  -7.6627615e-04   1.2005852e-03  -9.3917147e-04  -9.1684202e-04  -1.9039445e-03  -7.8654895e-03  -6.0540624e-04  -7.7316967e-05   1.4690580e-03  -1.2407526e-03
   1.3354440e-04  -9.4795669e-04  -5.1541673e-04  -5.5634504e-04  -5.6423673e-05  -5.7145365e-04  -1.2102891e-03  -9.0518029e-04   2.6857204e-04  -8.8004110e-04  -1.2626952e-03  -5.5157184e-04   2.1902716e-03  -7.2116317e-04   2.1417786e-03  -1.1446953e-03  -1.0321711e-03   2.3374500e-04  -3.9941879e-04  -5.7670804e-05  -4.0981313e-04   3.2571908e-03  -1.4763634e-03  -4.3319719e-04  -1.3908911e-04  -6.6396000e-04   1.2705468e-03  -8.6825655e-04  -8.4313989e-04  -1.6982388e-03  -7.4030496e-03  -4.9950287e-04   3.0233679e-04   1.9498456e-03  -1.0608655e-03
   1.9782128e-04  -9.8846026e-04  -3.6964571e-04  -5.9812196e-04   1.1999797e-04  -4.5729542e-04  -6.9069111e-04  -7.9126947e-04   3.1366438e-04  -7.7388389e-04  -1.0417724e-03  -6.7169708e-04   1.7978906e-03  -8.1847730e-04   2.2591278e-03  -1.1083521e-03  -1.0253877e-03  -1.2835072e-04  -3.1081299e-04  -4.4463450e-04  -3.6988378e-04   2.1730035e-03  -1.7935268e-03  -2.8626452e-04  -6.8003406e-05  -5.3659867e-04   1.2364818e-03  -7.5096375e-04  -7.9025788e-04  -1.3104674e-03  -6.1557856e-03  -2.8325457e-04   7.6375151e-04   2.5643075e-03  -6.9081422e-04
   3.3555657e-04  -9.5421058e-04  -9.5990341e-05  -5.5509293e-04   3.2986817e-04  -3.3279834e-04  -1.7678193e-04  -6.1478512e-04   3.0658327e-04  -6.6176296e-04  -8.0862624e-04  -7.4203213e-04   1.3046950e-03  -8.7197794e-04   2.3937339e-03  -1.0416879e-03  -1.0311798e-03  -4.6171297e-04  -2.0785589e-04  -8.0657768e-04  -2.8965739e-04   9.8693231e-04  -1.9367285e-03  -1.1096042e-04   3.1394542e-05  -4.1525249e-04   1.1450736e-03  -6.1099348e-04  -7.9367275e-04  -8.0096908e-04  -4.3157809e-03  -9.8303908e-06   1.1930321e-03   3.1697534e-03  -2.0172329e-04
   5.1800651e-04  -8.6857780e-04   2.4255010e-04  -4.5005989e-04   5.3431100e-04  -2.4062180e-04   1.7153438e-04  -4.2570432e-04   2.5472892e-04  -5.6076288e-04  -6.3193840e-04  -7.4528932e-04   8.9748809e-04  -8.2972524e-04   2.5005119e-03  -9.6759980e-04  -1.0447339e-03  -6.5203215e-04  -1.0983929e-04  -1.0177196e-03  -1.8607388e-04   7.2743271e-05  -1.9022539e-03   5.0973955e-05   1.4375534e-04  -3.2435011e-04   1.0614776e-03  -4.7848112e-04  -8.5984106e-04  -2.6083499e-04  -2.2588195e-03   2.5617660e-04   1.4910690e-03   3.6160033e-03   2.9783210e-04
   7.0291240e-04  -7.6850067e-04   5.6709710e-04  -3.0168993e-04   7.0225948e-04  -2.0824072e-04   2.5839821e-04  -2.6904419e-04   1.6904659e-04  -4.7875984e-04  -5.5254565e-04  -6.8868202e-04   7.0546486e-04  -6.7181361e-04   2.5593862e-03  -9.0006541e-04  -1.0586280e-03  -6.5648009e-04  -2.6745880e-05  -1.0189610e-03  -7.9101912e-05  -3.5796035e-04  -1.7375092e-03   1.6325693e-04   2.5127555e-04  -2.7055683e-04   1.0373329e-03  -3.7935347e-04  -9.6017704e-04   2.1279391e-04  -5.1949016e-04   4.6130418e-04   1.6182594e-03   3.8150651e-03   6.9912191e-04
   8.5067243e-04  -6.8844960e-04   8.0750452e-04  -1.2021667e-04   8.2061213e-04  -2.3620485e-04   9.6754564e-05  -1.6844533e-04   6.4439577e-05  -4.1391212e-04  -5.6751305e-04  -6.0053781e-04   7.6617667e-04  -4.2044788e-04   2.5882353e-03  -8.4060000e-04  -1.0669903e-03  -5.0738570e-04   4.2504216e-05  -8.3420199e-04   1.4579573e-05  -2.8652136e-04  -1.5217081e-03   2.0924609e-04   3.3972299e-04  -2.4148193e-04   1.0837652e-03  -3.2642044e-04  -1.0415005e-03   5.4448476e-04   4.2921930e-04   5.7986169e-04   1.6094062e-03   3.7883937e-03   9.3598990e-04
   9.3937252e-04  -6.4613647e-04   9.2578394e-04   9.0567359e-05   8.9562079e-04  -2.9974349e-04  -2.0685807e-04  -1.2005246e-04  -4.0302333e-05  -3.5876874e-04  -6.3604320e-04  -5.1714154e-04   1.0262992e-03  -1.3327824e-04   2.6300235e-03  -7.8164152e-04  -1.0678250e-03  -2.8897429e-04   1.0539657e-04  -5.5479520e-04   8.5746091e-05   1.3482265e-04  -1.3355376e-03   1.9727295e-04   4.0325531e-04  -2.1433266e-04   1.1622945e-03  -3.1582080e-04  -1.0506202e-03   7.0047512e-04   5.0391752e-04   6.1720575e-04   1.5484878e-03   3.6555664e-03   1.0092770e-03
   9.7165897e-04  -6.3683931e-04   9.2851609e-04   3.2683738e-04   9.4564905e-04  -3.6243373e-04  -5.1387673e-04  -9.9703990e-05  -1.2466345e-04  -3.0622623e-04  -7.0271938e-04  -4.6506026e-04   1.3690827e-03   1.1903358e-04   2.7240268e-03  -7.1419257e-04  -1.0621405e-03  -9.5620373e-05   1.6826524e-04  -2.9767235e-04   1.3345826e-04   6.5213634e-04  -1.2296400e-03   1.5519031e-04   4.4573325e-04  -1.6876926e-04   1.2022596e-03  -3.2971054e-04  -9.6209627e-04   6.9203530e-04   4.6851728e-05   5.9979013e-04   1.5222804e-03   3.5724356e-03   9.7652449e-04
   9.7032607e-04  -6.3893740e-04   8.6058152e-04   5.7886011e-04   9.9007040e-04  -3.9366237e-04  -7.1530539e-04  -7.8304474e-05  -1.7097971e-04  -2.5394530e-04  -7.2391698e-04  -4.4784299e-04   1.6629054e-03   2.8341959e-04   2.8791905e-03  -6.3498929e-04  -1.0507298e-03   1.3698131e-05   2.3063982e-04  -1.5185561e-04   1.6286173e-04   1.0240345e-03  -1.2071023e-03   1.1781820e-04   4.7782282e-04  -9.6597665e-05   1.1406046e-03  -3.4339528e-04  -7.9267996e-04   5.6312711e-04  -4.9161899e-04   5.5996375e-04   1.5821134e-03   3.6613608e-03   9.1602828e-04
   9.6556771e-04  -6.2690623e-04   7.8296219e-04   8.3096552e-04   1.0403942e-03  -3.8100651e-04  -7.6299912e-04  -3.6312576e-05  -1.7012352e-04  -2.0501608e-04  -6.8456581e-04  -4.4495196e-04   1.8176171e-03   3.4865970e-04   3.0629539e-03  -5.4930645e-04  -1.0310297e-03   4.1768446e-05   2.8486189e-04  -1.4025631e-04   1.8166691e-04   1.1361474e-03  -1.2297904e-03   1.1365157e-04   5.1135937e-04  -3.8212575e-06   9.6191716e-04  -3.3373322e-04  -5.9201533e-04   3.7174835e-04  -8.2589517e-04   5.2447472e-04   1.7301041e-03   3.9665904e-03   8.8940823e-04
   9.8087464e-04  -5.8445364e-04   7.4762962e-04   1.0681531e-03   1.0974475e-03  -3.3296147e-04  -6.6954648e-04   2.9362349e-05  -1.2578916e-04  -1.6489254e-04  -5.9992744e-04  -4.2380762e-04   1.8219799e-03   3.4920842e-04   3.2105003e-03  -4.6823997e-04  -9.9642528e-04   4.4489982e-05   3.2096732e-04  -2.1877485e-04   1.9714134e-04   1.0417340e-03  -1.2432100e-03   1.5603671e-04   5.5372668e-04   9.4876596e-05   7.1296794e-04  -2.8602447e-04  -4.1585293e-04   1.7400470e-04  -8.8951294e-04   5.1056792e-04   1.9297482e-03   4.4427481e-03   9.2035061e-04
   1.0239243e-03  -5.1139522e-04   7.8169553e-04   1.2842935e-03   1.1546831e-03  -2.7218476e-04  -4.8771323e-04   1.0763374e-04  -5.5068926e-05  -1.3680305e-04  -5.0410081e-04  -3.5792770e-04   1.7389000e-03   3.4620560e-04   3.2514315e-03  -4.0236657e-04  -9.3888416e-04   9.4616953e-05   3.3385956e-04  -3.0930806e-04   2.1464622e-04   9.0277405e-04  -1.2038437e-03   2.4073115e-04   6.0481450e-04   1.8534194e-04   4.8395363e-04  -1.9794333e-04  -2.9930394e-04   1.4027853e-05  -7.7076175e-04   5.2764651e-04   2.1313352e-03   4.9740379e-03   9.9431071e-04
   1.0855019e-03  -4.2187941e-04   8.8459015e-04   1.4852142e-03   1.2046186e-03  -2.2306494e-04  -2.8064434e-04   1.8193909e-04   1.5769203e-05  -1.1856970e-04  -4.3162442e-04  -2.4157562e-04   1.6626727e-03   3.9747896e-04   3.1419215e-03  -3.5560876e-04  -8.5377740e-04   2.4169710e-04   3.2824877e-04  -3.4335398e-04   2.3753554e-04   8.8369293e-04  -1.0955861e-03   3.4922973e-04   6.5774156e-04   2.6124271e-04   3.6931652e-04  -8.0020392e-05  -2.4421600e-04  -8.1740094e-05  -6.1385497e-04   5.7981652e-04   2.2982475e-03   5.4209311e-03   1.0754698e-03
   1.1456963e-03  -3.3585451e-04   1.0354881e-03   1.6837383e-03   1.2443403e-03  -1.9970116e-04  -9.4352967e-05   2.4013876e-04   5.9461472e-05  -1.0283435e-04  -4.0123204e-04  -9.4285373e-05   1.6668432e-03   5.3233112e-04   2.8844206e-03  -3.2305086e-04  -7.4434571e-04   4.8818384e-04   3.1810129e-04  -2.9357112e-04   2.6761985e-04   1.0654012e-03  -9.3101221e-04   4.5588522e-04   7.0277136e-04   3.2522148e-04   4.2694190e-04   4.7141832e-05  -2.2375288e-04  -1.0774504e-04  -5.2140484e-04   6.6584226e-04   2.4201900e-03   5.6817508e-03   1.1309732e-03
   1.1839141e-03  -2.6879678e-04   1.2057930e-03   1.8893071e-03   1.2769689e-03  -2.0037018e-04   5.6057794e-05   2.8035423e-04   5.6963065e-05  -8.0584388e-05  -4.0976782e-04   4.6685895e-05   1.7699215e-03   7.4076455e-04   2.5229629e-03  -2.9396170e-04  -6.2321150e-04   7.8890071e-04   3.2070337e-04  -1.8151318e-04   3.0537616e-04   1.4111727e-03  -7.4048364e-04   5.3654611e-04   7.3245965e-04   3.8384055e-04   6.5084931e-04   1.5842820e-04  -1.9915524e-04  -7.9685684e-05  -5.0140684e-04   7.7637495e-04   2.5072009e-03   5.7386560e-03   1.1487519e-03
   1.1879825e-03  -2.2529742e-04   1.3711485e-03   2.0980504e-03   1.3088237e-03  -2.1088733e-04   1.8114068e-04   3.0997835e-04   3.8576118e-06  -4.5942579e-05  -4.3842540e-04   1.4287856e-04   1.9302769e-03   9.7912445e-04   2.1191784e-03  -2.5807478e-04  -5.0942181e-04   1.0718490e-03   3.4855635e-04  -6.1188730e-05   3.4967784e-04   1.7885440e-03  -5.5586087e-04   5.7644065e-04   7.4548484e-04   4.4023857e-04   9.6935604e-04   2.3149865e-04  -1.4036342e-04  -2.9692283e-05  -4.8670787e-04   8.9174352e-04   2.5711525e-03   5.6572775e-03   1.1400410e-03
   1.1584470e-03  -1.9968931e-04   1.5181099e-03   2.2894205e-03   1.3445829e-03  -2.1407142e-04   2.9883388e-04   3.3936035e-04  -8.8815999e-05   5.3516186e-07  -4.6618379e-04   1.7250562e-04   2.0691482e-03   1.1892098e-03   1.7261963e-03  -2.1130765e-04  -4.2167649e-04   1.2714522e-03   4.0349047e-04   1.2416775e-05   3.9745925e-04   2.0397196e-03  -3.9690032e-04   5.7524064e-04   7.4716011e-04   4.8969814e-04   1.2743811e-03   2.5402062e-04  -4.1498621e-05   5.4681054e-06  -3.9748903e-04   9.8464044e-04   2.6095258e-03   5.5408645e-03   1.1284340e-03
   1.1068186e-03  -1.8249564e-04   1.6433860e-03   2.4329589e-03   1.3837650e-03  -1.9933165e-04   4.1638035e-04   3.7450061e-04  -1.9952409e-04   5.1881510e-05  -4.8185384e-04   1.4018743e-04   2.1122911e-03   1.3236245e-03   1.3747690e-03  -1.5770625e-04  -3.7057680e-04   1.3582809e-03   4.7594804e-04   1.3254076e-05   4.4389654e-04   2.0704863e-03  -2.6654266e-04   5.4776430e-04   7.4634235e-04   5.2119035e-04   1.4718222e-03   2.2834360e-04   7.6745855e-05   1.2872030e-06  -1.9451787e-04   1.0297464e-03   2.6035134e-03   5.4716254e-03   1.1343659e-03
   1.0496625e-03  -1.6816241e-04   1.7476836e-03   2.5037241e-03   1.4207354e-03  -1.6730843e-04   5.2356313e-04   4.1322160e-04  -3.0439594e-04   9.8126300e-05  -4.8831652e-04   7.3094343e-05   2.0312099e-03   1.3661581e-03   1.0750996e-03  -1.0661753e-04  -3.5395156e-04   1.3485573e-03   5.4971012e-04  -4.3989548e-05   4.8354859e-04   1.9033814e-03  -1.5601394e-04   5.1990763e-04   7.5042754e-04   5.2433327e-04   1.5261400e-03   1.7141254e-04   1.7990552e-04  -3.9784951e-05   1.0461451e-04   1.0173125e-03   2.5322128e-03   5.4717539e-03   1.1634598e-03
   1.0019089e-03  -1.5900530e-04   1.8293277e-03   2.4986679e-03   1.4481052e-03  -1.2788066e-04   6.0012314e-04   4.4666670e-04  -3.8502255e-04   1.3129783e-04  -4.9773458e-04   6.3845855e-06   1.8609496e-03   1.3365356e-03   8.2860957e-04  -6.6742650e-05  -3.5796768e-04   1.2889883e-03   6.0969876e-04  -1.1560539e-04   5.1213615e-04   1.6581920e-03  -5.4869182e-05   5.2069710e-04   7.6114992e-04   4.9761974e-04   1.4730575e-03   1.0923085e-04   2.4026840e-04  -8.4832267e-05   4.4821540e-04   9.6295739e-04   2.3933873e-03   5.4973313e-03   1.2041944e-03
   9.7225205e-04  -1.6304101e-04   1.8821765e-03   2.4435897e-03   1.4612474e-03  -9.3415962e-05   6.3156307e-04   4.6492278e-04  -4.3317265e-04   1.4921125e-04  -5.2151730e-04  -3.3229317e-05   1.6839933e-03   1.2776355e-03   6.4014277e-04  -4.0509341e-05  -3.6358929e-04   1.2291229e-03   6.4875820e-04  -1.5472583e-04   5.2808278e-04   1.4795981e-03   4.0960957e-05   5.7252392e-04   7.7350094e-04   4.5242434e-04   1.3944429e-03   6.7594745e-05   2.5217526e-04  -8.2130478e-05   7.9647428e-04   9.0611062e-04   2.2159386e-03   5.4632314e-03   1.2365857e-03
   9.6165109e-04  -1.8715658e-04   1.8988417e-03   2.3849183e-03   1.4609535e-03  -7.1448019e-05   6.2242494e-04   4.6325303e-04  -4.5134459e-04   1.5594745e-04  -5.6147552e-04  -3.7267182e-05   1.5915766e-03   1.2338127e-03   5.2254123e-04  -2.2199985e-05  -3.5501696e-04   1.1988956e-03   6.6982507e-04  -1.3573722e-04   5.3287705e-04   1.4641862e-03   1.2742048e-04   6.8222673e-04   7.7838777e-04   4.0939020e-04   1.3706706e-03   6.2471532e-05   2.3335282e-04   1.6620004e-05   1.1603859e-03   8.9578406e-04   2.0540257e-03   5.2881851e-03   1.2469456e-03
   9.6438045e-04  -2.3002113e-04   1.8764192e-03   2.3699459e-03   1.4523938e-03  -6.1038132e-05   5.9779349e-04   4.4513846e-04  -4.4976370e-04   1.5879255e-04  -6.0749124e-04  -1.4921439e-05   1.6443579e-03   1.2324381e-03   4.9101404e-04  -1.0369504e-06  -3.2604340e-04   1.2016199e-03   6.8238768e-04  -6.5437613e-05   5.2984449e-04   1.6224860e-03   1.9660695e-04   8.3581189e-04   7.6775346e-04   3.8858669e-04   1.4349855e-03   9.3731374e-05   2.1316808e-04   2.3310566e-04   1.6038367e-03   9.6969178e-04   1.9650070e-03   4.9390798e-03   1.2379909e-03
   9.7038044e-04  -2.7955603e-04   1.8201567e-03   2.4253428e-03   1.4410488e-03  -5.4699794e-05   5.9159409e-04   4.2041650e-04  -4.4133363e-04   1.6355843e-04  -6.4280845e-04   1.6061069e-05   1.8480782e-03   1.2759032e-03   5.5103441e-04   3.2493859e-05  -2.8168326e-04   1.2219429e-03   6.9565716e-04   2.2866898e-05   5.2195427e-04   1.8832861e-03   2.4316250e-04   9.9935685e-04   7.3951727e-04   3.9891817e-04   1.5528275e-03   1.4483322e-04   2.1586803e-04   5.4754945e-04   2.2025350e-03   1.1356364e-03   1.9833385e-03   4.4499245e-03   1.2269818e-03
   9.6792280e-04  -3.1696571e-04   1.7419420e-03   2.5436587e-03   1.4282688e-03  -4.4192355e-05   6.2876981e-04   3.9991218e-04  -4.3649614e-04   1.7110862e-04  -6.5339648e-04   4.1351133e-05   2.1495987e-03   1.3446859e-03   6.8719173e-04   8.0705926e-05  -2.3470307e-04   1.2413386e-03   7.1254023e-04   8.8155160e-05   5.0995534e-04   2.1327001e-03   2.6816671e-04   1.1276512e-03   6.9966761e-04   4.3273240e-04   1.6390946e-03   1.8915537e-04   2.4788166e-04   8.9891785e-04   2.9793687e-03   1.3626985e-03   2.1035366e-03   3.9053324e-03   1.2346576e-03
   9.4622513e-04  -3.2537547e-04   1.6542040e-03   2.6836137e-03   1.4094576e-03  -2.6247239e-05   7.1136543e-04   3.8997227e-04  -4.3966708e-04   1.7717462e-04  -6.3569564e-04   5.7998936e-05   2.4534652e-03   1.4081661e-03   8.6013111e-04   1.3648406e-04  -1.9880311e-04   1.2513179e-03   7.2791782e-04   1.0341954e-04   4.9205916e-04   2.2712478e-03   2.7815052e-04   1.1793528e-03   6.6033198e-04   4.6878061e-04   1.6063097e-03   2.0111432e-04   2.9506901e-04   1.2040912e-03   3.8460256e-03   1.5872768e-03   2.2801852e-03   3.4022825e-03   1.2734227e-03
   8.9804351e-04  -2.9838583e-04   1.5630999e-03   2.7853886e-03   1.3764029e-03  -4.6254513e-06   8.1578700e-04   3.9007410e-04  -4.4818767e-04   1.7570861e-04  -5.9845240e-04   7.4302254e-05   2.6558656e-03   1.4381543e-03   1.0153647e-03   1.8620001e-04  -1.8173453e-04   1.2571807e-03   7.3219294e-04   6.8671412e-05   4.6558128e-04   2.2611271e-03   2.8054541e-04   1.1334406e-03   6.3461770e-04   4.8248391e-04   1.4161838e-03   1.6768272e-04   3.3082097e-04   1.3926931e-03   4.5906166e-03   1.7353878e-03   2.4460063e-03   3.0135945e-03   1.3408120e-03
   8.2205253e-04  -2.4391312e-04   1.4655556e-03   2.7961717e-03   1.3227189e-03   1.2669836e-05   9.0309914e-04   3.9462367e-04  -4.5393364e-04   1.6383226e-04  -5.5772561e-04   1.0230243e-04   2.6854416e-03   1.4197895e-03   1.1021367e-03   2.1658062e-04  -1.8164642e-04   1.2715413e-03   7.1802217e-04   8.6052223e-06   4.2978226e-04   2.1365685e-03   2.7926368e-04   9.9912717e-04   6.3079986e-04   4.5872162e-04   1.1039600e-03   9.4869436e-05   3.3057074e-04   1.4419782e-03   4.9705510e-03   1.7548680e-03   2.5414582e-03   2.7679405e-03   1.4197708e-03
   7.2431879e-04  -1.8099835e-04   1.3524627e-03   2.6945304e-03   1.2492976e-03   1.9224304e-05   9.3816809e-04   3.9765271e-04  -4.4684281e-04   1.4551662e-04  -5.2798237e-04   1.4788529e-04   2.5320158e-03   1.3557690e-03   1.0938739e-03   2.2207055e-04  -1.8836105e-04   1.3033735e-03   6.8629376e-04  -4.2268653e-05   3.8820741e-04   1.9736399e-03   2.7362048e-04   8.1352267e-04   6.4863509e-04   4.0052048e-04   7.6303509e-04   5.6888739e-06   2.8463700e-04   1.3894771e-03   4.9032802e-03   1.6413137e-03   2.5415889e-03   2.6486155e-03   1.4856842e-03
   6.1784347e-04  -1.3083880e-04   1.2165896e-03   2.5003874e-03   1.1662358e-03   1.5364871e-05   9.0806215e-04   3.9744630e-04  -4.1917263e-04   1.3148335e-04  -5.1429990e-04   2.0444841e-04   2.2472595e-03   1.2632025e-03   9.9860551e-04   2.0856163e-04  -1.8858377e-04   1.3503220e-03   6.4762932e-04  -5.7605117e-05   3.4894657e-04   1.8437020e-03   2.6121645e-04   6.2792643e-04   6.7960803e-04   3.2866624e-04   5.0052383e-04  -6.9453898e-05   2.0239336e-04   1.3133744e-03   4.5432020e-03   1.4407864e-03   2.4647105e-03   2.6070457e-03   1.5184835e-03
   5.1961030e-04  -1.0632310e-04   1.0606573e-03   2.2648526e-03   1.0897006e-03   9.3404942e-06   8.2911603e-04   3.9824998e-04  -3.6899096e-04   1.3505982e-04  -5.1023031e-04   2.5402431e-04   1.9184207e-03   1.1659401e-03   8.5270865e-04   1.9123353e-04  -1.7217199e-04   1.3992190e-03   6.1830593e-04  -3.0721520e-05   3.2222271e-04   1.7803117e-03   2.4237645e-04   4.8945710e-04   7.1114203e-04   2.7223464e-04   3.8724707e-04  -1.0508538e-04   1.0625321e-04   1.2930530e-03   4.1251061e-03   1.2270523e-03   2.3578238e-03   2.5852539e-03   1.5136907e-03
   4.4568849e-04  -1.0568901e-04   9.0027595e-04   2.0468417e-03   1.0350778e-03   1.3610907e-05   7.3832966e-04   4.0795165e-04  -3.0151676e-04   1.6597098e-04  -5.0231058e-04   2.7595717e-04   1.6323861e-03   1.0864499e-03   7.0206716e-04   1.8760703e-04  -1.3646785e-04   1.4341742e-03   6.1277987e-04   2.4940622e-05   3.1626501e-04   1.7739662e-03   2.2258150e-04   4.2592545e-04   7.3278585e-04   2.5517831e-04   4.2595158e-04  -9.0056114e-05   2.0339150e-05   1.3720718e-03   3.8240426e-03   1.0679078e-03   2.2689814e-03   2.5398198e-03   1.4842771e-03
   4.0602707e-04  -1.1384568e-04   7.5933052e-04   1.8896278e-03   1.0099577e-03   3.8361493e-05   6.7451160e-04   4.3320592e-04  -2.2749104e-04   2.2519080e-04  -4.7826441e-04   2.5872298e-04   1.4478627e-03   1.0400031e-03   5.8200525e-04   2.0948636e-04  -8.6951943e-05   1.4468671e-03   6.3680246e-04   8.5126514e-05   3.3342149e-04   1.7907041e-03   2.1057810e-04   4.3895110e-04   7.4131042e-04   2.8574263e-04   5.5253756e-04  -3.0486994e-05  -3.8986254e-05   1.5388025e-03   3.7230512e-03   9.9835661e-04   2.2235177e-03   2.4584536e-03   1.4514270e-03
   4.0107113e-04  -1.1064373e-04   6.5992709e-04   1.8076329e-03   1.0106211e-03   8.5841879e-05   6.5982511e-04   4.7490813e-04  -1.5889989e-04   3.0358188e-04  -4.3407807e-04   2.0816096e-04   1.3832938e-03   1.0318218e-03   5.0609390e-04   2.5766413e-04  -3.4266886e-05   1.4421826e-03   6.8465300e-04   1.2823245e-04   3.6854891e-04   1.7997974e-03   2.1296518e-04   5.0648308e-04   7.4188062e-04   3.5324777e-04   6.6937262e-04   5.4041138e-05  -6.6172317e-05   1.7301998e-03   3.7929139e-03   1.0099623e-03   2.2159009e-03   2.3624704e-03   1.4310447e-03
   4.2174003e-04  -8.1491860e-05   6.1217701e-04   1.7865560e-03   1.0238785e-03   1.4851619e-04   6.9051335e-04   5.2671885e-04  -1.0360135e-04   3.8526906e-04  -3.7605499e-04   1.4723500e-04   1.4192313e-03   1.0568249e-03   4.6738848e-04   3.2166071e-04   1.0835560e-05   1.4353042e-03   7.4195839e-04   1.4584248e-04   4.1074233e-04   1.7934765e-03   2.2870106e-04   5.9306726e-04   7.4452371e-04   4.3293205e-04   6.9389003e-04   1.3873412e-04  -6.3301595e-05   1.8582607e-03   3.8958713e-03   1.0576092e-03   2.2188597e-03   2.2951036e-03   1.4245999e-03
   4.5312478e-04  -2.4807339e-05   6.0904713e-04   1.7944159e-03   1.0335925e-03   2.1204641e-04   7.4020313e-04   5.7758420e-04  -6.1320679e-05   4.5451429e-04  -3.1695113e-04   1.0752493e-04   1.5105796e-03   1.1014263e-03   4.4901579e-04   3.8449423e-04   4.2237622e-05   1.4421724e-03   7.9273898e-04   1.4521972e-04   4.4793080e-04   1.7878070e-03   2.4740654e-04   6.6371704e-04   7.5763644e-04   4.9633224e-04   5.9865095e-04   2.0257759e-04  -3.4517019e-05   1.8513533e-03   3.8535709e-03   1.0805938e-03   2.2029427e-03   2.3020699e-03   1.4187621e-03
   4.8052424e-04   4.7328376e-05   6.2909961e-04   1.7976948e-03   1.0286478e-03   2.6172912e-04   7.7391398e-04   6.1702414e-04  -2.3233441e-05   5.0280552e-04  -2.6851622e-04   1.1683403e-04   1.6037469e-03   1.1472374e-03   4.3701718e-04   4.3035412e-04   6.0699658e-05   1.4693550e-03   8.2723453e-04   1.4328533e-04   4.7232906e-04   1.8061989e-03   2.5347661e-04   6.9591060e-04   7.8190892e-04   5.2268145e-04   4.2383283e-04   2.3437731e-04   1.7286327e-05   1.6907392e-03   3.5578185e-03   1.0304723e-03   2.1549214e-03   2.4126158e-03   1.3932220e-03
   4.9517950e-04   1.1544133e-04   6.4639479e-04   1.7753243e-03   1.0081910e-03   2.8906719e-04   7.6625746e-04   6.4026052e-04   2.4085750e-05   5.3253421e-04  -2.3487146e-04   1.8825234e-04   1.6536043e-03   1.1763263e-03   4.2775320e-04   4.5154497e-04   7.2728872e-05   1.5095372e-03   8.4635435e-04   1.5633302e-04   4.8400785e-04   1.8577344e-03   2.3447382e-04   6.8474695e-04   8.0793083e-04   5.0628604e-04   2.5621871e-04   2.3377004e-04   8.9055800e-05   1.4196623e-03   3.0329530e-03   8.9326425e-04   2.0844250e-03   2.6269071e-03   1.3326523e-03
   4.9693405e-04   1.6258209e-04   6.4305018e-04   1.7245510e-03   9.8119269e-04   2.9490079e-04   7.1459031e-04   6.5019942e-04   9.1700218e-05   5.5507949e-04  -2.1070524e-04   3.1464527e-04   1.6351403e-03   1.1769347e-03   4.2584058e-04   4.5126001e-04   8.6903900e-05   1.5453018e-03   8.6029718e-04   1.9138871e-04   4.9059768e-04   1.9248758e-03   1.8933594e-04   6.3975115e-04   8.1903202e-04   4.5679710e-04   1.8475128e-04   2.0773632e-04   1.7301680e-04   1.1195485e-03   2.4036556e-03   6.9417036e-04   2.0156067e-03   2.9125251e-03   1.2365126e-03
   4.9244799e-04   1.8263767e-04   6.1770604e-04   1.6570452e-03   9.6060860e-04   2.8745463e-04   6.3986232e-04   6.5502734e-04   1.8140220e-04   5.8428443e-04  -1.8522362e-04   4.7063670e-04   1.5466970e-03   1.1475838e-03   4.3485608e-04   4.4088942e-04   1.0958290e-04   1.5591912e-03   8.8223082e-04   2.4328269e-04   5.0311530e-04   1.9690341e-03   1.3107623e-04   5.7621137e-04   7.9856563e-04   3.9295928e-04   2.5532325e-04   1.6540757e-04   2.5347483e-04   8.7100017e-04   1.8221888e-03   4.8308584e-04   1.9702963e-03   3.2112014e-03   1.1211836e-03
   4.9006590e-04   1.8251897e-04   5.8476569e-04   1.5889845e-03   9.5546729e-04   2.7675036e-04   5.7491224e-04   6.6290936e-04   2.8230072e-04   6.2865589e-04  -1.4930600e-04   6.2161888e-04   1.4051151e-03   1.0974751e-03   4.4774031e-04   4.3365374e-04   1.4200497e-04   1.5441190e-03   9.2050829e-04   2.9809191e-04   5.3000625e-04   1.9516797e-03   8.1693222e-05   5.0644326e-04   7.3824177e-04   3.3383936e-04   4.4896844e-04   1.1427992e-04   3.0908233e-04   7.2249875e-04   1.4008348e-03   3.1088438e-04   1.9538209e-03   3.4551849e-03   1.0130025e-03
   4.9414160e-04   1.7719550e-04   5.6448119e-04   1.5313642e-03   9.6524623e-04   2.6887818e-04   5.4715085e-04   6.7694148e-04   3.7316093e-04   6.8628456e-04  -1.0153810e-04   7.3594134e-04   1.2364540e-03   1.0425521e-03   4.4414034e-04   4.3804376e-04   1.7985849e-04   1.5076125e-03   9.7357668e-04   3.4034447e-04   5.7234324e-04   1.8584804e-03   6.1637060e-05   4.3530512e-04   6.4311665e-04   2.9199847e-04   6.9397804e-04   5.9289327e-05   3.2089450e-04   6.7822851e-04   1.1699937e-03   2.0945058e-04   1.9519094e-03   3.5893691e-03   9.3608611e-04
   5.0191180e-04   1.8067572e-04   5.6947541e-04   1.4853583e-03   9.7948359e-04   2.6335000e-04   5.6461303e-04   6.9325708e-04   4.3031256e-04   7.4502709e-04  -4.9666836e-05   7.9455331e-04   1.0667881e-03   9.9870132e-04   3.9786729e-04   4.5422043e-04   2.1527725e-04   1.4671616e-03   1.0301010e-03   3.6007442e-04   6.2254258e-04   1.7107185e-03   7.9349084e-05   3.6125240e-04   5.3029507e-04   2.7097293e-04   9.0244366e-04   3.9991664e-06   2.8210584e-04   7.0476433e-04   1.0758382e-03   1.8298908e-04   1.9398072e-03   3.5907428e-03   9.0120238e-04
   5.0453976e-04   1.9801316e-04   5.9515017e-04   1.4439801e-03   9.8287268e-04   2.5467694e-04   6.1153853e-04   7.0333475e-04   4.3806320e-04   7.8795047e-04  -6.7033079e-06   7.9432246e-04   9.1615372e-04   9.7501237e-04   2.9141002e-04   4.7468455e-04   2.4024629e-04   1.4395396e-03   1.0741475e-03   3.5630760e-04   6.6726591e-04   1.5561173e-03   1.2626895e-04   2.8102074e-04   4.2183604e-04   2.6660197e-04   1.0107984e-03  -4.8156275e-05   2.0356156e-04   7.5095333e-04   1.0159881e-03   2.1138141e-04   1.8978800e-03   3.4754579e-03   9.0096548e-04
   4.9175631e-04   2.2252294e-04   6.1939622e-04   1.3977620e-03   9.6310669e-04   2.3689713e-04   6.5507012e-04   6.9922063e-04   3.9652959e-04   8.0156978e-04   1.6118513e-05   7.4551097e-04   7.9635269e-04   9.7005314e-04   1.2895849e-04   4.8852764e-04   2.4984940e-04   1.4306485e-03   1.0927801e-03   3.3579278e-04   6.9319439e-04   1.4450141e-03   1.8005888e-04   1.9447142e-04   3.3555683e-04   2.7041370e-04   1.0057976e-03  -9.4015879e-05   1.1076601e-04   7.7260227e-04   8.9867791e-04   2.6217801e-04   1.8241670e-03   3.2895009e-03   9.1341400e-04
   4.5760750e-04   2.3950762e-04   6.1265531e-04   1.3406207e-03   9.1720943e-04   2.0816170e-04   6.6030776e-04   6.7858282e-04   3.2251902e-04   7.8269956e-04   1.5433177e-05   6.6655956e-04   7.1152177e-04   9.7278715e-04  -6.0754523e-05   4.8699405e-04   2.4399594e-04   1.4316896e-03   1.0820684e-03   3.0840689e-04   6.9290167e-04   1.4060123e-03   2.1496124e-04   1.0663664e-04   2.7821265e-04   2.7311282e-04   9.2566787e-04  -1.3224618e-04   3.2637759e-05   7.5127388e-04   6.9526082e-04   3.0573781e-04   1.7360979e-03   3.0880654e-03   9.1217196e-04
   4.0409213e-04   2.3439592e-04   5.5397581e-04   1.2725673e-03   8.5275096e-04   1.7259782e-04   6.0700352e-04   6.4650679e-04   2.4247590e-04   7.4022880e-04  -2.7322892e-06   5.7865924e-04   6.5995363e-04   9.6794456e-04  -2.3459957e-04   4.6763427e-04   2.2698811e-04   1.4239589e-03   1.0483250e-03   2.8217974e-04   6.6782959e-04   1.4335224e-03   2.1445626e-04   2.6042229e-05   2.4400935e-04   2.6709508e-04   8.3680212e-04  -1.6491397e-04  -1.2788262e-05   6.9859851e-04   4.5110070e-04   3.2697344e-04   1.6602951e-03   2.9139149e-03   8.7815238e-04
   3.4067882e-04   2.0089935e-04   4.4447428e-04   1.1983028e-03   7.8330014e-04   1.3831581e-04   4.9944752e-04   6.1280810e-04   1.8089252e-04   6.9086818e-04  -2.6854534e-05   5.0074980e-04   6.3583424e-04   9.4341015e-04  -3.5279174e-04   4.3505401e-04   2.0534008e-04   1.3896448e-03   1.0040364e-03   2.6045414e-04   6.2690175e-04   1.4921214e-03   1.7942133e-04  -3.9276103e-05   2.1891443e-04   2.4772753e-04   7.9808728e-04  -1.9741090e-04  -2.7674601e-05   6.4545474e-04   2.4899218e-04   3.2879401e-04   1.6168713e-03   2.7834848e-03   8.0729916e-04
   2.7990830e-04   1.4470621e-04   3.0993085e-04   1.1232990e-03   7.2087528e-04   1.1287092e-04   3.6423630e-04   5.8636186e-04   1.4983276e-04   6.5105374e-04  -4.6774221e-05   4.4506282e-04   6.3044834e-04   8.9604169e-04  -3.9496736e-04   3.9817681e-04   1.8492808e-04   1.3225451e-03   9.6098636e-04   2.4195721e-04   5.8168982e-04   1.5349527e-03   1.2703329e-04  -8.5639083e-05   1.8860812e-04   2.1379147e-04   8.3233381e-04  -2.3603787e-04  -3.2837925e-05   6.2392623e-04   1.5593864e-04   3.2648799e-04   1.6077397e-03   2.6845858e-03   7.1141217e-04
   2.3158015e-04   8.0749785e-05   1.9054637e-04   1.0500649e-03   6.6964660e-04   9.8849741e-05   2.3761405e-04   5.6976691e-04   1.4436594e-04   6.2925322e-04  -5.9394486e-05   4.1431686e-04   6.3301553e-04   8.3285978e-04  -3.6742116e-04   3.6571900e-04   1.6874018e-04   1.2322575e-03   9.2433597e-04   2.2295487e-04   5.4081768e-04   1.5269233e-03   8.1076272e-05  -1.1535746e-04   1.4602611e-04   1.6743141e-04   9.1951375e-04  -2.8432638e-04  -5.5428260e-05   6.5219705e-04   1.8733794e-04   3.3705498e-04   1.6155558e-03   2.5853100e-03   6.1263778e-04
   1.9857071e-04   2.5767289e-05   1.2348266e-04   9.7684597e-04   6.2430865e-04   9.2151640e-05   1.4963046e-04   5.5739837e-04   1.4579910e-04   6.2228763e-04  -6.9985232e-05   4.0166778e-04   6.3173258e-04   7.6712691e-04  -2.9891724e-04   3.4221759e-04   1.5602991e-04   1.1392354e-03   8.9060905e-04   1.9983524e-04   5.0647679e-04   1.4605088e-03   5.9402344e-05  -1.3566675e-04   9.4518822e-05   1.1358776e-04   1.0117777e-03  -3.4038501e-04  -1.1221243e-04   7.2835741e-04   3.0223982e-04   3.6938817e-04   1.6134895e-03   2.4503842e-03   5.3432275e-04
   1.7627631e-04  -9.6885778e-06   1.2699685e-04   8.9917984e-04   5.7376089e-04   8.3869512e-05   1.1275007e-04   5.3813600e-04   1.3125305e-04   6.1731454e-04  -8.8517161e-05   3.9354013e-04   6.1553495e-04   7.1164733e-04  -2.2731863e-04   3.2640560e-04   1.4306487e-04   1.0638785e-03   8.5030351e-04   1.7069111e-04   4.7454680e-04   1.3554419e-03   6.5271161e-05  -1.5582587e-04   4.4922210e-05   5.8651218e-05   1.0581891e-03  -3.9739031e-04  -1.9744845e-04   8.3346368e-04   4.2717182e-04   4.1969938e-04   1.5799796e-03   2.2583948e-03   4.9181044e-04
   1.5577761e-04  -2.5727606e-05   1.9295821e-04   8.1302988e-04   5.0806266e-04   6.4800799e-05   1.1903552e-04   5.0155475e-04   8.5136387e-05   5.9847912e-04  -1.2318768e-04   3.7428818e-04   5.7649793e-04   6.7289436e-04  -1.8329512e-04   3.1239307e-04   1.2501983e-04   1.0161395e-03   7.9351477e-04   1.3538785e-04   4.3793957e-04   1.2436192e-03   8.6716551e-05  -1.8403935e-04   8.3640762e-06   8.4278236e-06   1.0255150e-03  -4.4737960e-04  -2.8275829e-04   9.4051141e-04   4.9610285e-04   4.7343396e-04   1.5098715e-03   2.0123634e-03   4.8666517e-04
   1.2888708e-04  -3.2071115e-05   2.9047558e-04   7.1753608e-04   4.2470315e-04   3.0158531e-05   1.4597632e-04   4.4429849e-04   6.9978487e-06   5.5509363e-04  -1.7495458e-04   3.3166571e-04   5.1229534e-04   6.4884080e-04  -1.7908058e-04   2.9287708e-04   9.8134820e-05   9.9125574e-04   7.1558286e-04   9.4512056e-05   3.9120851e-04   1.1495798e-03   1.0385158e-04  -2.2538082e-04  -1.1013615e-05  -3.3881286e-05   9.0701337e-04  -4.8632859e-04  -3.3071911e-04   1.0245981e-03   4.8412589e-04   5.1211246e-04   1.4156457e-03   1.7390234e-03   5.0670828e-04
   9.2396811e-05  -4.2286843e-05   3.7935015e-04   6.1590545e-04   3.3065293e-04  -1.8021472e-05   1.6787865e-04   3.7298037e-04  -8.8289933e-05   4.8732237e-04  -2.3626575e-04   2.6184789e-04   4.2760681e-04   6.3127099e-04  -2.0768307e-04   2.6284688e-04   6.1334438e-05   9.7367715e-04   6.1984902e-04   4.8375106e-05   3.3393200e-04   1.0784162e-03   1.0012914e-04  -2.8102373e-04  -1.9283470e-05  -6.8617468e-05   7.1835722e-04  -5.1723735e-04  -3.1607985e-04   1.0701368e-03   4.1257209e-04   5.2178319e-04   1.3185851e-03   1.4780224e-03   5.3168478e-04
   4.9465918e-05  -6.6335429e-05   4.2780401e-04   5.1435322e-04   2.3915351e-04  -7.1939263e-05   1.6757536e-04   3.0181464e-04  -1.7784818e-04   4.0652152e-04  -2.9464421e-04   1.7208194e-04   3.3367251e-04   6.1104377e-04  -2.5167438e-04   2.2210600e-04   1.6754278e-05   9.4681664e-04   5.1637413e-04  -3.0530086e-06   2.7120637e-04   1.0169653e-03   7.1346258e-05  -3.4818094e-04  -2.9862049e-05  -9.8726690e-05   4.8614675e-04  -5.4882100e-04  -2.4227933e-04   1.0733212e-03   3.2380654e-04   4.9926079e-04   1.2359546e-03   1.2672101e-03   5.4189377e-04
   7.6101319e-06  -1.0526450e-04   4.2589326e-04   4.2011807e-04   1.6325318e-04  -1.2169391e-04   1.4295557e-04   2.4618217e-04  -2.4141914e-04   3.3029672e-04  -3.3882586e-04   7.9016900e-05   2.4568898e-04   5.8333518e-04  -2.9480533e-04   1.7562084e-04  -3.0843315e-05   9.0316159e-04   4.1775702e-04  -5.9123988e-05   2.1123330e-04   9.4616594e-04   2.7301223e-05  -4.2021941e-04  -5.5746848e-05  -1.2701041e-04   2.3765025e-04  -5.8970315e-04  -1.4246184e-04   1.0405389e-03   2.4781321e-04   4.5349798e-04   1.1723731e-03   1.1306003e-03   5.2608881e-04
  -2.5235024e-05  -1.5061365e-04   3.8727463e-04   3.3974639e-04   1.0986209e-04  -1.5937130e-04   1.0535975e-04   2.1567478e-04  -2.6960939e-04   2.7496516e-04  -3.6382294e-04   2.5648176e-06   1.7878831e-04   5.5002567e-04  -3.2916799e-04   1.3169875e-04  -7.5419499e-05   8.4883877e-04   3.3449024e-04  -1.1707879e-04   1.6162454e-04   8.5645466e-04  -1.4655780e-05  -4.8699632e-04  -1.0094870e-04  -1.5294268e-04  -2.3205530e-06  -6.4138096e-04  -6.3553394e-05   9.8490797e-04   1.8553618e-04   4.0164217e-04   1.1204118e-03   1.0730143e-03   4.8585163e-04
  -4.4360833e-05  -1.8846554e-04   3.3872298e-04   2.7821297e-04   7.7495075e-05  -1.8141493e-04   7.1435308e-05   2.1008617e-04  -2.6601073e-04   2.4910708e-04  -3.7225132e-04  -4.2076230e-05   1.4371857e-04   5.1811896e-04  -3.5452133e-04   9.8968885e-05  -1.1119668e-04   7.9997437e-04   2.7224250e-04  -1.7125170e-04   1.2651947e-04   7.5666531e-04  -4.0017567e-05  -5.3619995e-04  -1.5634341e-04  -1.7120127e-04  -2.0810777e-04  -6.9456216e-04  -4.2517098e-05   9.2237454e-04   1.1806283e-04   3.6172589e-04   1.0693001e-03   1.0819356e-03   4.3495762e-04
  -4.9825696e-05  -2.0573079e-04   3.0404408e-04   2.3858568e-04   5.8659996e-05  -1.8843851e-04   5.3349460e-05   2.2029693e-04  -2.4288030e-04   2.5106251e-04  -3.7140129e-04  -5.0314691e-05   1.4367262e-04   4.9542048e-04  -3.7213738e-04   8.3443505e-05  -1.3393386e-04   7.7321060e-04   2.3191010e-04  -2.1365310e-04   1.0590203e-04   6.7087729e-04  -4.5252218e-05  -5.5636716e-04  -2.0295719e-04  -1.7356595e-04  -3.4949725e-04  -7.3207653e-04  -8.7338027e-05   8.6755730e-04   3.2588727e-05   3.4510030e-04   1.0154316e-03   1.1348698e-03   3.9382515e-04
  -4.5429599e-05  -1.9546464e-04   2.9145204e-04   2.2155208e-04   4.5283956e-05  -1.8315758e-04   5.2589403e-05   2.3354443e-04  -2.1318535e-04   2.7103093e-04  -3.6806159e-04  -2.9251347e-05   1.7326428e-04   4.8613781e-04  -3.7888277e-04   8.6685803e-05  -1.4168811e-04   7.7605923e-04   2.1176638e-04  -2.3604061e-04   9.7180389e-05   6.2514370e-04  -3.9235103e-05  -5.4127176e-04  -2.2140486e-04  -1.5376152e-04  -3.9439806e-04  -7.3750369e-04  -1.7164837e-04   8.2891784e-04  -5.5688019e-05   3.5138315e-04   9.6739328e-04   1.2090658e-03   3.8068948e-04
  -3.6101264e-05  -1.5901458e-04   2.9053676e-04   2.2460440e-04   3.3875545e-05  -1.6809384e-04   6.0049435e-05   2.4043932e-04  -1.8342015e-04   2.9653506e-04  -3.6423805e-04   6.4546721e-06   2.2009169e-04   4.8886443e-04  -3.6683565e-04   1.0552696e-04  -1.3504719e-04   8.0249459e-04   2.1003118e-04  -2.3294210e-04   9.7769938e-05   6.3206500e-04  -3.7289687e-05  -4.9387763e-04  -2.0264093e-04  -1.1267880e-04  -3.2079624e-04  -7.0516026e-04  -2.4562053e-04   8.0389559e-04  -1.0636708e-04   3.6772140e-04   9.4188377e-04   1.2900028e-03   4.0262609e-04
  -2.5327234e-05  -1.0449863e-04   2.7979299e-04   2.4141265e-04   2.7379021e-05  -1.4457986e-04   6.1906445e-05   2.3996744e-04  -1.5093594e-04   3.1841427e-04  -3.5635944e-04   4.1919131e-05   2.6846872e-04   4.9784174e-04  -3.2950178e-04   1.3329634e-04  -1.1694443e-04   8.3613553e-04   2.2615599e-04  -2.0440701e-04   1.0702138e-04   6.8208645e-04  -5.1161587e-05  -4.2733643e-04  -1.5434207e-04  -6.0543953e-05  -1.3308143e-04  -6.4578775e-04  -2.5924118e-04   7.7639055e-04  -8.5956242e-05   3.7298587e-04   9.5263380e-04   1.3756915e-03   4.4984327e-04
  -1.3918943e-05  -4.2925862e-05   2.4064323e-04   2.6254726e-04   3.2547334e-05  -1.1352683e-04   4.7895723e-05   2.3961783e-04  -1.0705323e-04   3.3447074e-04  -3.3837449e-04   6.9228845e-05   3.0428061e-04   5.0645875e-04  -2.7040389e-04   1.6210656e-04  -9.2042741e-05   8.5928675e-04   2.6021682e-04  -1.5717268e-04   1.2628993e-04   7.4668671e-04  -8.0687940e-05  -3.6085231e-04  -9.9105862e-05  -1.3650832e-05   1.2958853e-04  -5.8352330e-04  -1.8820660e-04   7.1990502e-04  -1.1482478e-05   3.4616899e-04   9.9899166e-04   1.4754904e-03   4.9627403e-04
  -3.6417762e-07   1.5971651e-05   1.7048405e-04   2.7854927e-04   5.4618089e-05  -7.7135657e-05   1.7499338e-05   2.5042184e-04  -4.3783253e-05   3.4912955e-04  -3.0662978e-04   9.0843365e-05   3.1937391e-04   5.1069603e-04  -2.0713219e-04   1.8551771e-04  -6.5637934e-05   8.6286559e-04   3.1100577e-04  -1.0328754e-04   1.5718323e-04   7.9260161e-04  -1.1227045e-04  -3.1049180e-04  -6.3888394e-05   1.4187992e-05   4.0307755e-04  -5.4338883e-04  -4.8846126e-05   6.0825085e-04   2.4889270e-05   2.7663901e-04   1.0620437e-03   1.6039719e-03   5.0786557e-04
   1.8039465e-05   6.6201297e-05   8.7407650e-05   2.8501122e-04   9.2587405e-05  -3.9996972e-05  -1.9349185e-05   2.7963374e-04   3.9957406e-05   3.6963201e-04  -2.6331746e-04   1.1724586e-04   3.1403362e-04   5.1036675e-04  -1.6548931e-04   2.0075390e-04  -4.2130971e-05   8.5140712e-04   3.7427817e-04  -5.6060635e-05   1.9915948e-04   8.0042874e-04  -1.2530142e-04  -2.7828975e-04  -6.4695305e-05   2.1991562e-05   6.2318536e-04  -5.3423538e-04   1.0805279e-04   4.3142994e-04  -1.2062371e-04   1.7218957e-04   1.1127868e-03   1.7719772e-03   4.5723328e-04
   4.4411529e-05   1.0573656e-04   2.4010636e-05   2.8756246e-04   1.3827362e-04  -8.3077502e-06  -4.7232941e-05   3.2486912e-04   1.3641732e-04   4.0106254e-04  -2.1606762e-04   1.5978915e-04   2.9678227e-04   5.0753815e-04  -1.6398876e-04   2.0973313e-04  -2.3294364e-05   8.4004860e-04   4.4259735e-04  -2.4470366e-05   2.4813588e-04   7.7739893e-04  -1.0297630e-04  -2.4546706e-04  -9.4374504e-05   2.7940330e-05   7.5124216e-04  -5.3668005e-04   2.2270999e-04   2.0926193e-04  -5.6435360e-04   6.0920440e-05   1.1292880e-03   1.9776891e-03   3.3939647e-04
   8.2401515e-05   1.3531854e-04   1.3937435e-05   3.0375889e-04   1.8009046e-04   1.2865205e-05  -5.2989672e-05   3.7292708e-04   2.3260582e-04   4.4285422e-04  -1.7350554e-04   2.2245001e-04   2.8165831e-04   5.0336571e-04  -1.9623450e-04   2.1850277e-04  -6.9477092e-06   8.4525836e-04   5.0719606e-04  -8.2097004e-06   2.9713046e-04   7.5650506e-04  -4.1777981e-05  -1.7479232e-04  -1.2110204e-04   6.6843451e-05   7.8702648e-04  -5.0431892e-04   2.5696191e-04  -5.8525743e-06  -1.2995480e-03  -1.4601147e-05   1.1124706e-03   2.2007306e-03   1.8077582e-04
   1.3675397e-04   1.5730360e-04   7.8126242e-05   3.5976054e-04   2.0977786e-04   2.2964177e-05  -3.2001088e-05   4.0422642e-04   3.1740317e-04   4.8850459e-04  -1.3912498e-04   2.9700738e-04   2.8401610e-04   4.9567153e-04  -2.2265443e-04   2.3517091e-04   1.3218247e-05   8.7461236e-04   5.6103291e-04   4.1944800e-06   3.3887598e-04   7.8182662e-04   4.5198689e-05  -2.2830553e-05  -9.9415687e-05   1.7837631e-04   7.6398923e-04  -3.7922341e-04   2.1319663e-04  -1.4018462e-04  -2.1569072e-03  -9.0136136e-06   1.0896761e-03   2.4015219e-03   3.5595865e-05
   2.1313918e-04   1.7531760e-04   2.1659750e-04   4.8214252e-04   2.2815184e-04   2.7825163e-05   1.0028791e-05   4.0123597e-04   3.8805520e-04   5.2843418e-04  -1.0715184e-04   3.6461212e-04   3.1624062e-04   4.7911142e-04  -1.7902693e-04   2.6697892e-04   4.6185211e-05   9.2130108e-04   6.0134055e-04   3.2600161e-05   3.6897365e-04   8.8776631e-04   1.3277665e-04   2.4187886e-04   1.1325918e-05   3.9051328e-04   7.2885794e-04  -1.1500092e-04   1.3312080e-04  -1.1948852e-04  -2.8583957e-03   1.1239928e-04   1.1026382e-03   2.5271750e-03  -2.9837624e-05
   3.1628684e-04   1.9455818e-04   4.0840387e-04   6.8749982e-04   2.4612184e-04   3.8418941e-05   6.0449136e-05   3.5685310e-04   4.5195455e-04   5.5436301e-04  -6.3399639e-05   4.0368034e-04   3.8454714e-04   4.4824887e-04   5.0905066e-07   3.1743181e-04   1.0059417e-04   9.6633541e-04   6.3007674e-04   9.8366683e-05   3.8779946e-04   1.0820535e-03   1.9441472e-04   6.2139076e-04   2.2903872e-04   7.0456730e-04   7.1350101e-04   3.0156563e-04   7.9156205e-05   1.0870673e-04  -3.1131583e-03   3.6228000e-04   1.1853595e-03   2.5240895e-03   4.1065578e-05
   4.4654959e-04   2.2173965e-04   6.1919732e-04   9.7356876e-04   2.7971939e-04   6.6454159e-05   1.0633785e-04   2.7822619e-04   5.2224792e-04   5.6285050e-04   8.6606151e-06   4.0029958e-04   4.8769973e-04   4.0197003e-04   3.5558353e-04   3.8445540e-04   1.8102032e-04   9.8764594e-04   6.5188174e-04   2.1559256e-04   3.9987938e-04   1.3393953e-03   2.1404625e-04   1.0785108e-03   5.3800823e-04   1.0875181e-03   7.1383337e-04   8.3773804e-04   1.0800937e-04   5.5748242e-04  -2.6811184e-03   7.2445907e-04   1.3415960e-03   2.3555837e-03   2.7471859e-04
   5.9631892e-04   2.6381962e-04   8.1328797e-04   1.3153880e-03   3.4133173e-04   1.1861998e-04   1.4094361e-04   1.8385836e-04   6.0923031e-04   5.5621209e-04   1.1920797e-04   3.5544598e-04   6.1792845e-04   3.4652522e-04   8.7715982e-04   4.6027059e-04   2.8483933e-04   9.7144657e-04   6.7057554e-04   3.8372778e-04   4.1093165e-04   1.6082774e-03   1.9297679e-04   1.5406545e-03   8.8899065e-04   1.4761453e-03   6.9100730e-04   1.4167484e-03   2.4702630e-04   1.1908863e-03  -1.3922710e-03   1.1539374e-03   1.5320864e-03   2.0186878e-03   6.5374951e-04
   7.4859796e-04   3.2515652e-04   9.6528599e-04   1.6688659e-03   4.3164394e-04   1.9217806e-04   1.6650316e-04   9.5668081e-05   7.1197777e-04   5.4053357e-04   2.6497120e-04   2.8480726e-04   7.6384551e-04   2.9521706e-04   1.4985689e-03   5.3326285e-04   4.0104197e-04   9.1977499e-04   6.8617624e-04   5.8446330e-04   4.2412523e-04   1.8292085e-03   1.4817734e-04   1.9210253e-03   1.2125332e-03   1.7952196e-03   5.9638248e-04   1.9383668e-03   4.8201022e-04   1.9254638e-03   8.3935662e-04   1.5853704e-03   1.6804665e-03   1.5503180e-03   1.1145239e-03
   8.7964401e-04   4.0392418e-04   1.0664337e-03   1.9821376e-03   5.3657038e-04   2.7413134e-04   1.9205787e-04   3.0309075e-05   8.1474555e-04   5.2210997e-04   4.2728594e-04   2.1156098e-04   9.1462472e-04   2.6453633e-04   2.1068952e-03   5.9142191e-04   5.1200239e-04   8.4984209e-04   6.9416768e-04   7.8485900e-04   4.3768322e-04   1.9578985e-03   1.0331407e-04   2.1531577e-03   1.4437648e-03   1.9859851e-03   4.0365092e-04   2.3151115e-03   7.6158927e-04   2.6473752e-03   3.9362726e-03   1.9501447e-03   1.7012142e-03   1.0170602e-03   1.5600186e-03
   9.6596603e-04   4.8959907e-04   1.1233640e-03   2.2117752e-03   6.3134753e-04   3.4494424e-04   2.2770780e-04  -6.2295308e-06   8.9060009e-04   5.0440914e-04   5.7688187e-04   1.5636816e-04   1.0641199e-03   2.6861232e-04   2.5782038e-03   6.2626560e-04   5.9818767e-04   7.8572775e-04   6.8757223e-04   9.4668299e-04   4.4520426e-04   1.9827597e-03   7.7822857e-05   2.2229070e-03   1.5494762e-03   2.0319093e-03   1.2801393e-04   2.5084750e-03   1.0173732e-03   3.2461861e-03   7.3186909e-03   2.1975739e-03   1.5392060e-03   4.9390824e-04   1.8891395e-03
   9.9334540e-04   5.6366716e-04   1.1510509e-03   2.3374525e-03   6.9062848e-04   3.8571478e-04   2.7860297e-04  -1.8876672e-05   9.1139472e-04   4.8713156e-04   6.8393903e-04   1.2974838e-04   1.2132955e-03   3.1444238e-04   2.8275743e-03   6.3570228e-04   6.4448302e-04   7.4721698e-04   6.6090247e-04   1.0392364e-03   4.3876632e-04   1.9272009e-03   7.9571655e-05   2.1775262e-03   1.5425386e-03   1.9654927e-03  -1.7622267e-04   2.5429213e-03   1.1911147e-03   3.6545114e-03   8.4713986e-03   2.3107261e-03   1.1977877e-03   4.3473916e-05   2.0341047e-03
   9.6356572e-04   6.0451846e-04   1.1644427e-03   2.3677151e-03   7.0000096e-04   3.8587415e-04   3.4185586e-04  -1.9024315e-05   8.5989677e-04   4.6774297e-04   7.2917348e-04   1.2985758e-04   1.3695885e-03   3.9989688e-04   2.8470322e-03   6.2456093e-04   6.4560364e-04   7.4154115e-04   6.1388209e-04   1.0504924e-03   4.1330763e-04   1.8357070e-03   1.0390186e-04   2.1044898e-03   1.4741294e-03   1.8507148e-03  -4.3618656e-04   2.4877395e-03   1.2551321e-03   3.8703368e-03  -2.0949526e-02   2.3078402e-03   7.3720486e-04  -2.9614949e-04   1.9870312e-03
   8.9489797e-04   5.9534406e-04   1.1727795e-03   2.3335980e-03   6.6286634e-04   3.4769115e-04   4.0788288e-04  -1.7707664e-05   7.3814904e-04   4.4436476e-04   7.1080367e-04   1.4568462e-04   1.5428272e-03   5.1488407e-04   2.7041344e-03   6.0248090e-04   6.0800725e-04   7.6159212e-04   5.5281061e-04   9.9102454e-04   3.6997281e-04   1.7523349e-03   1.3844392e-04   2.0929638e-03   1.4087958e-03   1.7521508e-03  -5.8984873e-04   2.4192357e-03   1.2161799e-03   3.9451229e-03   4.7542336e-03   2.2284808e-03   2.4669309e-04  -5.1360735e-04   1.7990145e-03
   8.1537082e-04   5.3155539e-04   1.1781212e-03   2.2735959e-03   5.9874024e-04   2.8522787e-04   4.6525075e-04  -1.9796013e-05   5.6775706e-04   4.1817944e-04   6.4405898e-04   1.6349903e-04   1.7387088e-03   6.4485165e-04   2.5015902e-03   5.8006949e-04   5.4723240e-04   7.9080625e-04   4.8872846e-04   8.8865240e-04   3.1651842e-04   1.7030168e-03   1.7057662e-04   2.1980780e-03   1.3971706e-03   1.7079501e-03  -6.1267434e-04   2.3860629e-03   1.1039701e-03   3.9459849e-03  -1.6143904e-03   2.1131486e-03  -1.9079435e-04  -6.1908038e-04   1.5528091e-03
   7.5179595e-04   4.2381324e-04   1.1771593e-03   2.2178451e-03   5.3383457e-04   2.1835323e-04   5.0626515e-04  -2.1980282e-05   3.8205230e-04   3.9386301e-04   5.5388885e-04   1.7328886e-04   1.9520588e-03   7.7474210e-04   2.3261618e-03   5.6499155e-04   4.8190018e-04   8.1186544e-04   4.3320452e-04   7.7658315e-04   2.6448091e-04   1.6884794e-03   1.9336228e-04   2.4207840e-03   1.4587027e-03   1.7176173e-03  -5.2909792e-04   2.3932357e-03   9.5429010e-04   3.9180983e-03   7.7155554e-03   1.9873981e-03  -5.2418403e-04  -6.3526077e-04   1.3266566e-03
   7.1950094e-04   2.9470335e-04   1.1641899e-03   2.1784268e-03   4.8908469e-04   1.6487275e-04   5.3013605e-04  -1.5445989e-05   2.1430170e-04   3.7772194e-04   4.6490564e-04   1.7231677e-04   2.1626968e-03   8.9167227e-04   2.2153552e-03   5.5951701e-04   4.2719842e-04   8.1472978e-04   3.9380108e-04   6.8099628e-04   2.2447125e-04   1.6885507e-03   2.0715332e-04   2.7074730e-03   1.5787045e-03   1.7468963e-03  -4.0137357e-04   2.4082037e-03   7.9725997e-04   3.8683007e-03   9.0567730e-03   1.8569294e-03  -7.4348116e-04  -5.8784935e-04   1.1674261e-03
   7.1713771e-04   1.7051659e-04   1.1336579e-03   2.1487018e-03   4.7157219e-04   1.3439204e-04   5.4199051e-04   8.4888752e-06   8.7427914e-05   3.7455102e-04   3.9331184e-04   1.6440896e-04   2.3365803e-03   9.8564872e-04   2.1525177e-03   5.6044356e-04   3.9050274e-04   8.0007646e-04   3.7136659e-04   6.1340083e-04   2.0194205e-04   1.6744040e-03   2.1667295e-04   2.9694655e-03   1.7183754e-03   1.7465678e-03  -3.0009585e-04   2.3836819e-03   6.5490184e-04   3.7747400e-03   9.2723435e-03   1.7135104e-03  -8.7370590e-04  -4.9881625e-04   1.0814080e-03
   7.2867214e-04   7.1917333e-05   1.0817365e-03   2.1104168e-03   4.7309836e-04   1.2622561e-04   5.4862077e-04   5.2890940e-05   8.9502837e-06   3.8497031e-04   3.4396150e-04   1.5585822e-04   2.4334581e-03   1.0489700e-03   2.0867023e-03   5.6128367e-04   3.7063847e-04   7.7685714e-04   3.6032926e-04   5.7021953e-04   1.9534018e-04   1.6229675e-03   2.2610114e-04   3.1183204e-03   1.8333417e-03   1.6774996e-03  -2.7155320e-04   2.2859341e-03   5.4519263e-04   3.6137623e-03   9.3207201e-03   1.5469836e-03  -9.5840730e-04  -3.8486696e-04   1.0419460e-03
   7.3164544e-04   7.5002522e-06   1.0073737e-03   2.0447082e-03   4.7615267e-04   1.3173488e-04   5.5374444e-04   1.1266064e-04  -2.7984435e-05   4.0471370e-04   3.1270279e-04   1.5090290e-04   2.4197020e-03   1.0758688e-03   1.9660194e-03   5.5576896e-04   3.6059035e-04   7.5612619e-04   3.5171522e-04   5.3868355e-04   1.9738000e-04   1.5271684e-03   2.3558452e-04   3.1040667e-03   1.8932706e-03   1.5305253e-03  -3.1870525e-04   2.1141251e-03   4.8527244e-04   3.3868516e-03   9.4550597e-03   1.3563847e-03  -1.0397756e-03  -2.6071171e-04   1.0083292e-03
   7.0816040e-04  -2.7378506e-05   9.1326196e-04   1.9419659e-03   4.6406675e-04   1.3966793e-04   5.5574387e-04   1.7610028e-04  -3.9056860e-05   4.2629204e-04   2.9179291e-04   1.4964359e-04   2.2815994e-03   1.0635103e-03   1.7681181e-03   5.4109289e-04   3.5213213e-04   7.4500358e-04   3.3743982e-04   5.0567969e-04   1.9868705e-04   1.3977819e-03   2.4119917e-04   2.9364328e-03   1.8935258e-03   1.3308779e-03  -4.0496254e-04   1.9005537e-03   4.8793803e-04   3.1303542e-03   9.7414861e-03   1.1542749e-03  -1.1430728e-03  -1.4344377e-04   9.4752922e-04
   6.5337971e-04  -4.6394554e-05   8.0655020e-04   1.8064195e-03   4.3013413e-04   1.4193714e-04   5.4919784e-04   2.2980272e-04  -4.1442752e-05   4.4224859e-04   2.7521059e-04   1.4936439e-04   2.0327130e-03   1.0140580e-03   1.5117882e-03   5.1941030e-04   3.4018359e-04   7.4397994e-04   3.1378528e-04   4.6512356e-04   1.9199193e-04   1.2571501e-03   2.3815372e-04   2.6763219e-03   1.8532898e-03   1.1254535e-03  -4.7817649e-04   1.6932124e-03   5.5220030e-04   2.9019685e-03   9.8757334e-03   9.6252875e-04  -1.2707558e-03  -5.3318647e-05   8.4948156e-04
   5.7733228e-04  -6.4723485e-05   6.9829845e-04   1.6538530e-03   3.8087394e-04   1.3708856e-04   5.2919908e-04   2.6441450e-04  -4.7668735e-05   4.4823997e-04   2.6131130e-04   1.4762398e-04   1.7110950e-03   9.3618879e-04   1.2447248e-03   4.9686903e-04   3.2484892e-04   7.4839237e-04   2.8243297e-04   4.2041132e-04   1.7485955e-04   1.1290929e-03   2.2474439e-04   2.4042760e-03   1.8023781e-03   9.6113095e-04  -5.0122786e-04   1.5324292e-03   6.5587217e-04   2.7532396e-03   9.6822390e-03   8.0265640e-04  -1.4067569e-03  -8.7527869e-06   7.2929927e-04
   4.9921469e-04  -9.1578775e-05   6.0086627e-04   1.5045266e-03   3.3185416e-04   1.2994734e-04   4.9573061e-04   2.7835544e-04  -6.2640655e-05   4.4434809e-04   2.5216880e-04   1.4433348e-04   1.3673079e-03   8.4422179e-04   1.0175748e-03   4.8066088e-04   3.1037838e-04   7.5247034e-04   2.4868967e-04   3.8118742e-04   1.4971767e-04   1.0303053e-03   2.0423223e-04   2.1856904e-03   1.7651061e-03   8.6559600e-04  -4.7128747e-04   1.4343715e-03   7.5773784e-04   2.7038758e-03   9.3984222e-03   6.8632874e-04  -1.5269779e-03  -1.7934302e-05   6.1668875e-04
   4.3745877e-04  -1.2630798e-04   5.2352407e-04   1.3752347e-03   2.9870484e-04   1.2791972e-04   4.5523624e-04   2.7756501e-04  -8.4271443e-05   4.3392857e-04   2.5062991e-04   1.4117012e-04   1.0488726e-03   7.5432373e-04   8.6061429e-04   4.7550380e-04   3.0191895e-04   7.5310882e-04   2.1812209e-04   3.5678450e-04   1.2151051e-04   9.6639147e-04   1.8312340e-04   2.0492540e-03   1.7495799e-03   8.3827414e-04  -4.1716720e-04   1.3879341e-03   8.0971513e-04   2.7300382e-03   9.3071880e-03   6.1086955e-04  -1.6101993e-03  -7.2433722e-05   5.3958967e-04
   4.0072287e-04  -1.5964896e-04   4.6792053e-04   1.2742990e-03   2.8844891e-04   1.3614417e-04   4.1816424e-04   2.7162809e-04  -1.0648073e-04   4.2090865e-04   2.5720982e-04   1.3904694e-04   7.8748522e-04   6.7912333e-04   7.7429734e-04   4.8118414e-04   3.0199709e-04   7.5101154e-04   1.9341313e-04   3.5026917e-04   9.4482857e-05   9.3283347e-04   1.6682096e-04   1.9838375e-03   1.7463549e-03   8.5323217e-04  -3.7901610e-04   1.3642049e-03   7.7388500e-04   2.7720183e-03   9.4864983e-03   5.6155695e-04  -1.6449522e-03  -1.4744916e-04   5.1118527e-04
   3.8410808e-04  -1.7921007e-04   4.2585228e-04   1.2009229e-03   2.9569826e-04   1.5405699e-04   3.9378350e-04   2.6856590e-04  -1.2269510e-04   4.0711783e-04   2.6870318e-04   1.3588241e-04   5.9306185e-04   6.2320050e-04   7.3543086e-04   4.9228146e-04   3.0865998e-04   7.4876664e-04   1.7318720e-04   3.5633397e-04   6.9987196e-05   9.1917114e-04   1.5540977e-04   1.9511097e-03   1.7356887e-03   8.7165990e-04  -3.8449396e-04   1.3328095e-03   6.3866418e-04   2.7603460e-03   9.7922385e-03   5.1940809e-04  -1.6307081e-03  -2.0975340e-04   5.2615925e-04
   3.7218514e-04  -1.7616153e-04   3.8124927e-04   1.1480864e-03   3.0554773e-04   1.7508848e-04   3.8520290e-04   2.7109138e-04  -1.2831163e-04   3.9131066e-04   2.7926767e-04   1.2680837e-04   4.5561386e-04   5.8174942e-04   7.1369449e-04   5.0030550e-04   3.1624711e-04   7.4747443e-04   1.5324722e-04   3.6405807e-04   4.6420744e-05   9.1394247e-04   1.4248963e-04   1.9069968e-03   1.6991493e-03   8.5856253e-04  -4.3456335e-04   1.2769467e-03   4.2884733e-04   2.6504416e-03   9.9620987e-03   4.7050309e-04  -1.5749116e-03  -2.3036536e-04   5.6635559e-04
   3.4723998e-04  -1.4982314e-04   3.1659601e-04   1.1068394e-03   3.0163527e-04   1.8965449e-04   3.8749128e-04   2.7610507e-04  -1.2168142e-04   3.7043059e-04   2.8331499e-04   1.0743243e-04   3.5338584e-04   5.4346380e-04   6.8885786e-04   4.9739389e-04   3.1830234e-04   7.4450666e-04   1.2956522e-04   3.6288591e-04   2.1206244e-05   9.0835837e-04   1.1824666e-04   1.8227095e-03   1.6296832e-03   7.9662510e-04  -5.0485588e-04   1.1995701e-03   2.0379241e-04   2.4469974e-03   9.7739892e-03   4.1200969e-04  -1.4891120e-03  -1.9638467e-04   6.1123841e-04
   2.9877786e-04  -1.0811642e-04   2.2159341e-04   1.0698390e-03   2.7519040e-04   1.8998125e-04   3.9008886e-04   2.7742342e-04  -1.0392634e-04   3.4232921e-04   2.7850590e-04   7.8678655e-05   2.6389456e-04   4.9663830e-04   6.5923703e-04   4.7993514e-04   3.1109946e-04   7.3415850e-04   1.0134019e-04   3.4847736e-04  -6.4922883e-06   8.9772936e-04   7.5512537e-05   1.6962012e-03   1.5352709e-03   6.9123972e-04  -5.6129374e-04   1.1181727e-03   3.9500766e-05   2.2020082e-03   9.1661988e-03   3.5173394e-04  -1.3865824e-03  -1.1643592e-04   6.4688246e-04
   2.2947747e-04  -6.3856183e-05   9.9819503e-05   1.0329925e-03   2.3013416e-04   1.7431581e-04   3.8252448e-04   2.7007319e-04  -7.8271485e-05   3.0833227e-04   2.6711641e-04   4.9934926e-05   1.7356404e-04   4.3577873e-04   6.3714798e-04   4.5036979e-04   2.9578467e-04   7.1105215e-04   7.2384268e-05   3.2510000e-04  -3.4026729e-05   8.8094384e-04   1.5469484e-05   1.5494901e-03   1.4349142e-03   5.6517328e-04  -5.8187573e-04   1.0524178e-03  -2.3176726e-06   1.9875106e-03   8.2857748e-03   3.0181833e-04  -1.2816290e-03  -1.6742672e-05   6.6908280e-04
   1.5452664e-04  -2.8787028e-05  -3.0550680e-05   9.9514239e-04   1.8142040e-04   1.4824720e-04   3.6041453e-04   2.5379317e-04  -4.9376871e-05   2.7388809e-04   2.5505180e-04   3.7170546e-05   8.2054736e-05   3.6526873e-04   6.3528010e-04   4.1622476e-04   2.7795322e-04   6.7429483e-04   4.9966915e-05   3.0315309e-04  -5.5644236e-05   8.5902784e-04  -5.0578259e-05   1.4151024e-03   1.3498971e-03   4.4675035e-04  -5.7176425e-04   1.0127202e-03   9.5632196e-05   1.8603486e-03   7.4137561e-03   2.7042726e-04  -1.1890293e-03   7.0859838e-05   6.8007776e-04
   9.4821989e-05  -8.3743098e-06  -1.4309466e-04   9.5669477e-04   1.4759778e-04   1.2241406e-04   3.2840355e-04   2.3372543e-04  -2.2705335e-05   2.4669323e-04   2.4906496e-04   5.5567580e-05  -1.2937571e-07   2.9805038e-04   6.5332005e-04   3.8680216e-04   2.6482184e-04   6.2957598e-04   4.1533611e-05   2.9329807e-04  -6.4984801e-05   8.3378941e-04  -1.0494891e-04   1.3199761e-03   1.2951159e-03   3.5791073e-04  -5.6097016e-04   9.9587615e-04   2.9450620e-04   1.8370046e-03   6.7935325e-03   2.5621956e-04  -1.1223255e-03   1.2329109e-04   6.8205822e-04
   6.7566914e-05   3.6677807e-08  -2.1379595e-04   9.1820111e-04   1.4158917e-04   1.0771347e-04   2.9822058e-04   2.1797766e-04  -3.7310292e-06   2.3308744e-04   2.5361200e-04   1.1021137e-04  -5.8975005e-05   2.4984009e-04   6.7337812e-04   3.6906821e-04   2.6151451e-04   5.8759406e-04   5.0822800e-05   3.0037345e-04  -5.8523146e-05   8.0698816e-04  -1.3122670e-04   1.2746050e-03   1.2742023e-03   3.0719762e-04  -5.8540190e-04   9.8875107e-04   5.1379093e-04   1.8877129e-03   6.5217032e-03   2.4857244e-04  -1.0910643e-03   1.3531547e-04   6.7228900e-04
   7.8643243e-05   4.7885610e-06  -2.3125639e-04   8.7969092e-04   1.6430953e-04   1.1032427e-04   2.8277523e-04   2.1337350e-04   3.1161728e-06   2.3451516e-04   2.6876785e-04   1.9020324e-04  -8.5263266e-05   2.3182872e-04   6.6742918e-04   3.6458491e-04   2.6835696e-04   5.5927405e-04   7.5203345e-05   3.2036420e-04  -3.8171507e-05   7.7981019e-04  -1.2217757e-04   1.2709042e-03   1.2796359e-03   2.8932089e-04  -6.6395901e-04   9.7664224e-04   6.6405477e-04   1.9510427e-03   6.5366435e-03   2.3349581e-04  -1.0983663e-03   1.1814898e-04   6.4328499e-04
   1.1989693e-04   1.4556149e-05  -2.0205705e-04   8.4076595e-04   2.0386781e-04   1.2875008e-04   2.8937522e-04   2.2166490e-04  -4.4405992e-06   2.4606229e-04   2.9004013e-04   2.6995706e-04  -7.9871454e-05   2.4530667e-04   6.1304250e-04   3.6879964e-04   2.8050065e-04   5.5026985e-04   1.0550928e-04   3.4192493e-04  -1.1698512e-05   7.5236725e-04  -8.4042942e-05   1.2878923e-03   1.2968575e-03   2.8993565e-04  -7.8584714e-04   9.5134834e-04   6.8224670e-04   1.9639642e-03   6.6627944e-03   2.0198530e-04  -1.1403076e-03   8.8460263e-05   5.8812241e-04
   1.7208907e-04   3.2905631e-05  -1.4897571e-04   8.0083322e-04   2.4048779e-04   1.5411153e-04   3.1550258e-04   2.3805471e-04  -2.5909101e-05   2.5791436e-04   3.0997972e-04   3.1796534e-04  -5.3975513e-05   2.8058261e-04   5.0811458e-04   3.7298931e-04   2.9004717e-04   5.5763609e-04   1.2866166e-04   3.5166336e-04   9.5133191e-06   7.2310737e-04  -3.5036122e-05   1.3014862e-03   1.3101345e-03   2.9242519e-04  -9.1412838e-04   9.1458799e-04   5.5551791e-04   1.8943440e-03   6.6966112e-03   1.5602825e-04  -1.2077264e-03   5.4432574e-05   5.0718989e-04
   2.1211253e-04   5.5509867e-05  -1.0235950e-04   7.5889262e-04   2.5466672e-04   1.7361241e-04   3.4921378e-04   2.5280268e-04  -5.8342928e-05   2.5929484e-04   3.2081269e-04   3.1016787e-04  -2.4521649e-05   3.2062674e-04   3.7505216e-04   3.6797216e-04   2.8960762e-04   5.7055202e-04   1.3215485e-04   3.4050809e-04   1.4556100e-05   6.8854936e-04   1.7277418e-06   1.2936434e-03   1.3075636e-03   2.8357311e-04  -1.0025635e-03   8.7501231e-04   3.2515501e-04   1.7575808e-03   6.5146349e-03   1.0835836e-04  -1.2897904e-03   7.4325194e-06   4.1136058e-04
   2.2136563e-04   7.1414193e-05  -8.7922628e-05   7.1286131e-04   2.3467948e-04   1.7572782e-04   3.7401606e-04   2.5519947e-04  -9.7635755e-05   2.4302724e-04   3.1696100e-04   2.4215573e-04  -7.4017757e-06   3.4784383e-04   2.5106533e-04   3.4794988e-04   2.7553781e-04   5.7489489e-04   1.0854210e-04   3.0782036e-04  -2.7905699e-06   6.4389687e-04   8.0300815e-06   1.2570879e-03   1.2834982e-03   2.5611481e-04  -1.0176967e-03   8.4085169e-04   6.9007423e-05   1.6063923e-03   6.1380798e-03   7.5679876e-05  -1.3776543e-03  -7.4826137e-05   3.1868729e-04
   1.9180539e-04   6.7795605e-05  -1.1639266e-04   6.5908418e-04   1.7989837e-04   1.5482909e-04   3.7592588e-04   2.3808645e-04  -1.4024542e-04   2.0846479e-04   2.9651268e-04   1.3355514e-04  -1.1746582e-05   3.5087811e-04   1.6987722e-04   3.1265005e-04   2.4922373e-04   5.5952038e-04   5.8025471e-05   2.6113749e-04  -4.1643285e-05   5.8473193e-04  -2.1570911e-05   1.1944199e-03   1.2380267e-03   2.0818548e-04  -9.5608423e-04   8.1313815e-04  -1.3085274e-04   1.5002243e-03   5.7028118e-03   6.8754416e-05  -1.4663137e-03  -2.1410227e-04   2.4587219e-04
   1.2731926e-04   3.6078698e-05  -1.8017559e-04   5.9286394e-04   9.8807352e-05   1.1307927e-04   3.4927475e-04   2.0079661e-04  -1.8454506e-04   1.6123240e-04   2.6130100e-04   2.0747279e-05  -3.7994840e-05   3.2825640e-04   1.4465711e-04   2.6682549e-04   2.1586231e-04   5.2105432e-04  -1.1982112e-05   2.1185138e-04  -9.4520859e-05   5.0934177e-04  -7.7793447e-05   1.1133772e-03   1.1746339e-03   1.4109448e-04  -8.4730709e-04   7.8412984e-04  -2.2145675e-04   1.4722713e-03   5.3673061e-03   8.4450388e-05  -1.5539168e-03  -4.1382128e-04   1.9900456e-04
   4.0503503e-05  -2.3540819e-05  -2.5856416e-04   5.1027193e-04   3.5363867e-06   5.8896454e-05   2.9840929e-04   1.4919695e-04  -2.3103539e-04   1.1007545e-04   2.1583379e-04  -5.9349404e-05  -8.0253878e-05   2.8731170e-04   1.6040359e-04   2.1747698e-04   1.8149329e-04   4.6471457e-04  -8.9968154e-05   1.6928079e-04  -1.5045785e-04   4.2056825e-04  -1.4158625e-04   1.0216383e-03   1.0976782e-03   5.7336554e-05  -7.3951896e-04   7.4186875e-04  -1.9799189e-04   1.5097831e-03   5.2281111e-03   1.0395287e-04  -1.6394306e-03  -6.4859289e-04   1.6860612e-04
  -5.2961816e-05  -1.0130666e-04  -3.2823178e-04   4.1071846e-04  -9.5595475e-05   2.9856071e-06   2.3474643e-04   9.3021699e-05  -2.8128302e-04   6.2547020e-05   1.6570938e-04  -8.6078253e-05  -1.3112175e-04   2.3947001e-04   1.7928274e-04   1.7037716e-04   1.4997034e-04   4.0092631e-04  -1.6457637e-04   1.3628429e-04  -1.9919135e-04   3.2608054e-04  -1.9319906e-04   9.2393655e-04   1.0109307e-03  -3.9996776e-05  -6.7488290e-04   6.7770958e-04  -1.0065153e-04   1.5553461e-03   5.2784514e-03   9.8722012e-05  -1.7207499e-03  -8.6851337e-04   1.3204446e-04
  -1.3941887e-04  -1.8121411e-04  -3.7336431e-04   2.9906913e-04  -1.9264531e-04  -4.6011100e-05   1.7114954e-04   4.2035230e-05  -3.3612869e-04   2.1847323e-05   1.1619263e-04  -6.3758831e-05  -1.8591277e-04   1.9478507e-04   1.5703478e-04   1.2768808e-04   1.2139576e-04   3.3982890e-04  -2.2812893e-04   1.0853873e-04  -2.3456752e-04   2.3661455e-04  -2.2064113e-04   8.2232262e-04   9.1744825e-04  -1.4641616e-04  -6.6952669e-04   5.9211062e-04   7.3045494e-06   1.5300760e-03   5.4110233e-03   4.2337044e-05  -1.7949773e-03  -1.0169481e-03   6.2943669e-05
  -2.0996979e-04  -2.4684807e-04  -3.9076229e-04   1.8603627e-04  -2.8499603e-04  -8.4328851e-05   1.1685718e-04   2.8936522e-06  -3.9408848e-04  -1.3637647e-05   7.1296803e-05  -1.8391343e-05  -2.4396590e-04   1.5857443e-04   6.3373671e-05   8.7859837e-05   9.2748967e-05   2.8683484e-04  -2.7803468e-04   7.7559453e-05  -2.5582418e-04   1.6276831e-04  -2.2371745e-04   7.1852427e-04   8.2026777e-04  -2.5493998e-04  -7.0913020e-04   4.9545296e-04   6.8755005e-05   1.3713326e-03   5.4617692e-03  -7.6988130e-05  -1.8607782e-03  -1.0529853e-03  -5.6529883e-05
  -2.6057355e-04  -2.8708042e-04  -3.8836885e-04   8.6134707e-05  -3.7014048e-04  -1.1337588e-04   7.5294593e-05  -2.2125716e-05  -4.5089753e-04  -4.7992547e-05   3.3489494e-05   1.5717538e-05  -3.0651499e-04   1.3139294e-04  -1.0377607e-04   4.7749141e-05   6.0254333e-05   2.4145201e-04  -3.1584033e-04   3.5823738e-05  -2.6649144e-04   1.1178645e-04  -2.1226141e-04   6.1641721e-04   7.2311127e-04  -3.5595853e-04  -7.6033099e-04   4.0356856e-04   5.6553996e-05   1.0665932e-03   5.2883266e-03  -2.4966651e-04  -1.9208379e-03  -9.6890319e-04  -2.2654535e-04
  -2.9052130e-04  -2.9938162e-04  -3.7877820e-04   1.3643347e-05  -4.4288204e-04  -1.3761263e-04   4.5336870e-05  -3.4369685e-05  -5.0052174e-04  -8.4132182e-05   3.8258886e-06   1.3074829e-05  -3.7277857e-04   1.1162674e-04  -3.1773606e-04   5.7649277e-06   2.2212664e-05   1.9970245e-04  -3.4468141e-04  -1.8677732e-05  -2.7168053e-04   8.5776453e-05  -1.9983143e-04   5.2291167e-04   6.3055963e-04  -4.3869679e-04  -7.8916090e-04   3.3042318e-04  -1.7066770e-05   6.6257158e-04   4.8477938e-03  -4.4748126e-04  -1.9820440e-03  -7.9595047e-04  -4.2845882e-04
  -3.0077354e-04  -2.8961414e-04  -3.7146104e-04  -2.2002694e-05  -4.9501611e-04  -1.6119493e-04   2.4617118e-05  -3.6862737e-05  -5.3726393e-04  -1.2092639e-04  -1.7687940e-05  -3.0372217e-05  -4.3688185e-04   9.8673598e-05  -5.3575472e-04  -3.5716006e-05  -1.9212723e-05   1.5840202e-04  -3.6654354e-04  -8.0743448e-05  -2.7515506e-04   8.2102109e-05  -1.9614595e-04   4.4675608e-04   5.4761500e-04  -4.9393956e-04  -7.7616778e-04   2.8187604e-04  -1.0877148e-04   2.4416932e-04   4.2174570e-03  -6.3409645e-04  -2.0523202e-03  -5.9571996e-04  -6.3192227e-04
  -2.9311399e-04  -2.6873228e-04  -3.6781747e-04  -1.9495094e-05  -5.1795266e-04  -1.8506456e-04   1.2624424e-05  -3.2355201e-05  -5.5802322e-04  -1.5283236e-04  -3.1679851e-05  -9.5564174e-05  -4.8782636e-04   9.4641036e-05  -7.1697740e-04  -7.0135560e-05  -5.8192440e-05   1.1865032e-04  -3.8072112e-04  -1.3981463e-04  -2.7755671e-04   9.5631069e-05  -2.0206610e-04   3.9592673e-04   4.7885929e-04  -5.1685009e-04  -7.2193233e-04   2.5398118e-04  -1.6601305e-04  -1.0150179e-04   3.5436277e-03  -7.7773893e-04  -2.1353541e-03  -4.3841545e-04  -8.0615428e-04
  -2.7023524e-04  -2.4799453e-04  -3.6145275e-04   1.3691434e-05  -5.0679204e-04  -2.0595576e-04   1.1665766e-05  -2.2290180e-05  -5.6358270e-04  -1.7229910e-04  -3.9077288e-05  -1.5071018e-04  -5.1295804e-04   1.0348757e-04  -8.3660113e-04  -8.8972251e-05  -8.7317836e-05   8.6366614e-05  -3.8422024e-04  -1.8425562e-04  -2.7656546e-04   1.2155524e-04  -2.0958767e-04   3.7487983e-04   4.2756580e-04  -5.0864014e-04  -6.4236944e-04   2.3668657e-04  -1.5186460e-04  -3.1547231e-04   2.9663614e-03  -8.6048257e-04  -2.2261362e-03  -3.7526785e-04  -9.2959823e-04
  -2.3617088e-04  -2.3471499e-04  -3.4306842e-04   6.3650921e-05  -4.6359072e-04  -2.1772842e-04   2.5248250e-05  -7.0121014e-06  -5.5834762e-04  -1.7360882e-04  -4.0886851e-05  -1.6803689e-04  -5.0334632e-04   1.2826547e-04  -8.9110021e-04  -8.5442764e-05  -1.0052673e-04   6.9463626e-05  -3.7378495e-04  -2.0592801e-04  -2.6874404e-04   1.5720587e-04  -2.0658993e-04   3.8288752e-04   3.9504466e-04  -4.7623969e-04  -5.5791490e-04   2.2055037e-04  -6.0551767e-05  -3.8138346e-04   2.5700198e-03  -8.8137365e-04  -2.3102588e-03  -4.1794628e-04  -9.9429721e-04
  -1.9622123e-04  -2.3023336e-04  -3.0680647e-04   1.1458165e-04  -3.9780841e-04  -2.1431051e-04   5.5017277e-05   1.3260501e-05  -5.4857798e-04  -1.5609519e-04  -3.8093465e-05  -1.3805165e-04  -4.5845564e-04   1.6821276e-04  -8.9460076e-04  -5.7908219e-05  -9.5530537e-05   7.3271847e-05  -3.4842911e-04  -2.0302169e-04  -2.5200119e-04   2.0182916e-04  -1.8358660e-04   4.1399096e-04   3.8025892e-04  -4.3006809e-04  -4.8320054e-04   2.0241500e-04   8.2904058e-05  -3.2400998e-04   2.3705477e-03  -8.5356052e-04  -2.3681696e-03  -5.3632224e-04  -1.0046693e-03
  -1.5603007e-04  -2.3063824e-04  -2.5442973e-04   1.5379960e-04  -3.2351230e-04  -1.9275834e-04   9.8251861e-05   3.7465092e-05  -5.3993618e-04  -1.2497684e-04  -3.1635114e-05  -7.4238160e-05  -3.8770391e-04   2.1752751e-04  -8.6981204e-04  -1.1410860e-05  -7.4714153e-05   9.6759395e-05  -3.1107094e-04  -1.8017358e-04  -2.2737455e-04   2.5448223e-04  -1.3896829e-04   4.5852197e-04   3.7981663e-04  -3.8080855e-04  -4.2271850e-04   1.8692888e-04   2.3615830e-04  -1.9595740e-04   2.3282759e-03  -7.9754676e-04  -2.3830512e-03  -6.7554874e-04  -9.7288017e-04
  -1.2007316e-04  -2.2960138e-04  -1.9513168e-04   1.7527958e-04  -2.5441055e-04  -1.5513285e-04   1.4756464e-04   6.3446802e-05  -5.3541706e-04  -8.9393914e-05  -2.2361826e-05  -6.3441666e-06  -3.0795921e-04   2.6675244e-04  -8.3825452e-04   4.3486642e-05  -4.4224209e-05   1.3168548e-04  -2.6832806e-04  -1.4622840e-04  -1.9920526e-04   3.1146916e-04  -8.0280683e-05   5.0555402e-04   3.8837816e-04  -3.3659252e-04  -3.7356844e-04   1.8334926e-04   3.5762429e-04  -5.7509686e-05   2.3751252e-03  -7.3354895e-04  -2.3488894e-03  -7.8173249e-04  -9.1382064e-04
  -9.0402129e-05  -2.2182327e-04  -1.4124997e-04   1.8036630e-04  -1.9910990e-04  -1.0838135e-04   1.9319108e-04   8.8499786e-05  -5.3451775e-04  -5.8478337e-05  -1.0998625e-05   3.4182776e-05  -2.3776833e-04   3.0623242e-04  -8.1397482e-04   9.4217474e-05  -1.1736745e-05   1.6534342e-04  -2.2843486e-04  -1.1083673e-04  -1.7359166e-04   3.6503989e-04  -2.1071126e-05   5.4549484e-04   3.9958654e-04  -3.0164819e-04  -3.3157002e-04   1.9957607e-04   4.2111019e-04   4.3707874e-05   2.4459520e-03  -6.7591661e-04  -2.2747703e-03  -8.2288979e-04  -8.4193191e-04
  -6.6439177e-05  -2.0555632e-04  -1.0230906e-04   1.7551697e-04  -1.5891680e-04  -6.2265492e-05   2.2680502e-04   1.1035590e-04  -5.3395616e-04  -3.7556776e-05   1.8946082e-06   2.9235956e-05  -1.9077463e-04   3.2985510e-04  -8.0259150e-04   1.3067969e-04   1.6086091e-05   1.8562099e-04  -1.9818223e-04  -8.1429243e-05  -1.5586954e-04   4.0461155e-04   2.5043642e-05   5.7204167e-04   4.0739894e-04  -2.7672233e-04  -2.9546607e-04   2.3666488e-04   4.2261145e-04   8.5579501e-05   2.5005005e-03  -6.3126592e-04  -2.1827454e-03  -7.9735275e-04  -7.7037618e-04
  -4.6091340e-05  -1.8322002e-04  -8.0694190e-05   1.6829946e-04  -1.2923760e-04  -2.6174992e-05   2.4476548e-04   1.2788741e-04  -5.2958657e-04  -2.6424237e-05   1.5894138e-05  -1.8012075e-05  -1.7138656e-04   3.3710789e-04  -8.0443145e-04   1.4866625e-04   3.5389327e-05   1.8587917e-04  -1.8039983e-04  -6.1651685e-05  -1.4834919e-04   4.2032346e-04   5.0141418e-05   5.8299588e-04   4.0748797e-04  -2.6067384e-04  -2.6637022e-04   2.8680646e-04   3.7863679e-04   7.1996408e-05   2.5266551e-03  -6.0008251e-04  -2.0994334e-03  -7.2899694e-04  -7.1132561e-04
  -2.7665517e-05  -1.6017562e-04  -7.1343049e-05   1.6355710e-04  -1.0358158e-04  -6.0957314e-06   2.4905396e-04   1.4107900e-04  -5.1860098e-04  -2.0598140e-05   3.0510906e-05  -8.6152198e-05  -1.7466383e-04   3.3227654e-04  -8.1859517e-04   1.5066366e-04   4.5536428e-05   1.6710807e-04  -1.7321625e-04  -5.1541818e-05  -1.4947898e-04   4.0730706e-04   5.4665172e-05   5.7987648e-04   3.9820725e-04  -2.5214127e-04  -2.4353992e-04   3.3601600e-04   3.1770483e-04   2.3001579e-05   2.5288060e-03  -5.7982345e-04  -2.0449357e-03  -6.5344002e-04  -6.7549478e-04
  -1.1551898e-05  -1.4239321e-04  -6.5368396e-05   1.6139178e-04  -7.7893790e-05  -2.9824239e-06   2.4538019e-04   1.5025321e-04  -5.0104037e-04  -1.4753914e-05   4.4914595e-05  -1.4730364e-04  -1.9031351e-04   3.2136092e-04  -8.4496808e-04   1.4372193e-04   4.8213125e-05   1.3631843e-04  -1.7150586e-04  -4.8894464e-05  -1.5486230e-04   3.6832632e-04   4.5845576e-05   5.6650030e-04   3.8070939e-04  -2.5029012e-04  -2.2072002e-04   3.7010136e-04   2.6881296e-04  -3.8139340e-05   2.5141549e-03  -5.6739076e-04  -2.0245241e-03  -6.0198334e-04  -6.6991872e-04
  -7.0680312e-07  -1.3418624e-04  -5.5422228e-05   1.5761574e-04  -5.2866664e-05  -1.3060559e-05   2.3963607e-04   1.5511259e-04  -4.7991442e-04  -6.3344814e-06   5.7691042e-05  -1.8084598e-04  -2.0851304e-04   3.0845741e-04  -8.8333676e-04   1.3559779e-04   4.5895988e-05   1.0220793e-04  -1.6980109e-04  -5.0906157e-05  -1.5962434e-04   3.1309010e-04   3.2943000e-05   5.4710376e-04   3.5810331e-04  -2.5429393e-04  -1.8770286e-04   3.8060755e-04   2.5151871e-04  -9.3829367e-05   2.4862287e-03  -5.5984402e-04  -2.0274608e-03  -5.9037731e-04  -6.9475319e-04
   4.4264038e-07  -1.3688863e-04  -3.9653347e-05   1.4626417e-04  -3.3161374e-05  -2.9763349e-05   2.3468459e-04   1.5425330e-04  -4.6007609e-04   2.7077435e-06   6.6882189e-05  -1.8204337e-04  -2.2462338e-04   2.9359414e-04  -9.3094067e-04   1.3113234e-04   4.0542465e-05   7.0608730e-05  -1.6515290e-04  -5.5300639e-05  -1.6092997e-04   2.5428092e-04   2.2095835e-05   5.2459736e-04   3.3393322e-04  -2.6202455e-04  -1.3817330e-04   3.6759963e-04   2.7130742e-04  -1.3445805e-04   2.4456878e-03  -5.5390067e-04  -2.0333757e-03  -6.1673939e-04  -7.4120623e-04
  -1.1816800e-05  -1.4887047e-04  -2.2297176e-05   1.2279747e-04  -2.4218805e-05  -4.6357200e-05   2.2922702e-04   1.4560425e-04  -4.4632808e-04   6.9289968e-06   7.0468886e-05  -1.6187466e-04  -2.4065070e-04   2.7313872e-04  -9.8098640e-04   1.3046866e-04   3.3065833e-05   4.2117164e-05  -1.5855620e-04  -6.0693026e-05  -1.5940832e-04   2.0220445e-04   1.3384298e-05   4.9959455e-04   3.1060571e-04  -2.6906104e-04  -7.9007550e-05   3.3831983e-04   3.2084974e-04  -1.5615294e-04   2.3937563e-03  -5.4551440e-04  -2.0227218e-03  -6.6773733e-04  -7.9277193e-04
  -3.8308586e-05  -1.6665256e-04  -1.0805066e-05   8.6532942e-05  -2.8594433e-05  -5.8246515e-05   2.1920525e-04   1.2761656e-04  -4.4168212e-04   5.4966387e-07   6.7208581e-05  -1.3910630e-04  -2.6312729e-04   2.4236622e-04  -1.0237636e-03   1.2972872e-04   2.3610619e-05   1.2911602e-05  -1.5422709e-04  -6.6371358e-05  -1.5876671e-04   1.6064769e-04   1.5206278e-06   4.7059185e-04   2.8847321e-04  -2.6906721e-04  -3.3352066e-05   3.0301834e-04   3.8484117e-04  -1.5786580e-04   2.3350706e-03  -5.3072401e-04  -1.9860591e-03  -7.2790572e-04  -8.3065266e-04
  -7.5914191e-05  -1.8650127e-04  -1.1283736e-05   4.1163021e-05  -4.3972181e-05  -6.4189764e-05   2.0079664e-04   1.0056984e-04  -4.4639513e-04  -1.9032264e-05   5.7435333e-05  -1.2948005e-04  -2.9877297e-04   1.9878249e-04  -1.0502115e-03   1.2352027e-04   1.2262014e-05  -2.1941099e-05  -1.5716866e-04  -7.1911003e-05  -1.6378085e-04   1.2601230e-04  -2.0447200e-05   4.3520832e-04   2.6599158e-04  -2.5589028e-04  -3.3558816e-05   2.7044021e-04   4.4543037e-04  -1.4074106e-04   2.2781950e-03  -5.0771172e-04  -1.9279877e-03  -7.8640721e-04  -8.4164058e-04
  -1.1827441e-04  -2.0572901e-04  -2.4918098e-05  -6.7037090e-06  -6.4013228e-05  -6.6163302e-05   1.7323482e-04   6.7174529e-05  -4.5822185e-04  -4.9429142e-05   4.3400825e-05  -1.3803841e-04  -3.5033506e-04   1.4425027e-04  -1.0560653e-03   1.0791022e-04  -4.1402535e-07  -6.4722924e-05  -1.7029194e-04  -7.6981400e-05  -1.7765694e-04   9.0077476e-05  -5.6440069e-05   3.9195502e-04   2.4084530e-04  -2.2667507e-04  -1.0655582e-04   2.4501001e-04   4.8657789e-04  -1.0984549e-04   2.2318203e-03  -4.7885778e-04  -1.8642312e-03  -8.3870260e-04  -8.2442752e-04
  -1.5790093e-04  -2.2328306e-04  -4.7311954e-05  -5.0195693e-05  -8.1463644e-05  -6.8110465e-05   1.3981557e-04   3.1989090e-05  -4.7372424e-04  -8.4197673e-05   2.8691631e-05  -1.5826270e-04  -4.1463744e-04   8.4840867e-05  -1.0442166e-03   8.2359351e-05  -1.3330463e-05  -1.1302819e-04  -1.9266547e-04  -8.1443075e-05  -2.0009813e-04   4.5031327e-05  -1.0417103e-04   3.4157888e-04   2.1141279e-04  -1.8459714e-04  -2.5786727e-04   2.2655340e-04   4.9728487e-04  -7.5990421e-05   2.1980403e-03  -4.5118245e-04  -1.8136388e-03  -8.8418648e-04  -7.9034414e-04
  -1.8872687e-04  -2.3954801e-04  -7.0950242e-05  -8.4766223e-05  -9.1782400e-05  -7.4149546e-05   1.0657356e-04  -1.2845472e-07  -4.9006747e-04  -1.1605553e-04   1.6823000e-05  -1.7747744e-04  -4.8365098e-04   2.8579605e-05  -1.0238345e-03   4.9786875e-05  -2.5339425e-05  -1.6055988e-04  -2.1981906e-04  -8.5604872e-05  -2.2711248e-04  -1.1823523e-05  -1.5521844e-04   2.8725882e-04   1.7772222e-04  -1.3959449e-04  -4.6108061e-04   2.1194879e-04   4.7391036e-04  -5.4618584e-05   2.1685772e-03  -4.3413980e-04  -1.7893787e-03  -9.2309574e-04  -7.5767387e-04
  -2.0797673e-04  -2.5564313e-04  -8.9183668e-05  -1.0955281e-04  -9.5203766e-05  -8.6911816e-05   7.9457575e-05  -2.5868687e-05  -5.0643052e-04  -1.4058543e-04   9.5171181e-06  -1.8467354e-04  -5.4770336e-04  -1.7674667e-05  -1.0064802e-03   1.4962173e-05  -3.5867703e-05  -2.0017823e-04  -2.4592542e-04  -9.0386144e-05  -2.5267448e-04  -7.6139841e-05  -1.9820781e-04   2.3337116e-04   1.4140140e-04  -1.0617640e-04  -6.5952190e-04   1.9732055e-04   4.2145059e-04  -6.0440569e-05   2.1288851e-03  -4.3531964e-04  -1.7939211e-03  -9.5554831e-04  -7.4260373e-04
  -2.1662831e-04  -2.7264157e-04  -9.9430457e-05  -1.2707300e-04  -9.6235395e-05  -1.0654524e-04   6.1618281e-05  -4.4642333e-05  -5.2436331e-04  -1.5836123e-04   5.4787965e-06  -1.7621936e-04  -5.9902627e-04  -5.0530627e-05  -1.0009654e-03  -1.7731210e-05  -4.5241359e-05  -2.2742696e-04  -2.6672275e-04  -9.7216034e-05  -2.7146775e-04  -1.3835306e-04  -2.2351736e-04   1.8335458e-04   1.0456122e-04  -9.8712211e-05  -7.8467478e-04   1.7941659e-04   3.5284451e-04  -9.9593170e-05   2.0685641e-03  -4.5599532e-04  -1.8199570e-03  -9.8335498e-04  -7.5146899e-04
  -2.1845035e-04  -2.9102701e-04  -1.0389760e-04  -1.4158343e-04  -1.0088989e-04  -1.3062947e-04   5.2273226e-05  -5.8553393e-05  -5.4688001e-04  -1.7434366e-04   4.9436517e-07  -1.5682055e-04  -6.3391856e-04  -7.0616778e-05  -1.0094383e-03  -4.5920686e-05  -5.4460281e-05  -2.4257411e-04  -2.8157904e-04  -1.0763557e-04  -2.8129542e-04  -1.8825990e-04  -2.2716890e-04   1.3772030e-04   6.8225629e-05  -1.2595058e-04  -7.8697945e-04   1.5574505e-04   2.8567744e-04  -1.6366801e-04   1.9909027e-03  -4.8901729e-04  -1.8557862e-03  -1.0127024e-03  -7.7783281e-04
  -2.1820910e-04  -3.1049934e-04  -1.0765541e-04  -1.5694543e-04  -1.1320200e-04  -1.5499379e-04   4.7656107e-05  -7.1130642e-05  -5.7661795e-04  -1.9487669e-04  -1.0926720e-05  -1.3595421e-04  -6.5278320e-04  -8.1299680e-05  -1.0265416e-03  -6.9548616e-05  -6.4495020e-05  -2.5016238e-04  -2.9363451e-04  -1.2267777e-04  -2.8404171e-04  -2.1982449e-04  -2.1224731e-04   9.3323470e-05   3.1145944e-05  -1.8725691e-04  -6.6234102e-04   1.2403216e-04   2.3652046e-04  -2.2982864e-04   1.9145778e-03  -5.2053906e-04  -1.8912739e-03  -1.0548023e-03  -8.0571458e-04
  -2.1986182e-04  -3.3003610e-04  -1.1529642e-04  -1.7502111e-04  -1.3291834e-04  -1.7511680e-04   4.3423865e-05  -8.5452819e-05  -6.1387609e-04  -2.2383763e-04  -3.2901193e-05  -1.2241170e-04  -6.5848645e-04  -8.6491971e-05  -1.0418098e-03  -8.9880421e-05  -7.5435411e-05  -2.5637168e-04  -3.0792196e-04  -1.4227076e-04  -2.8464021e-04  -2.3389315e-04  -1.8731209e-04   4.4509710e-05  -1.0292644e-05  -2.7231290e-04  -4.5616677e-04   8.2053208e-05   2.1451121e-04  -2.6800754e-04   1.8663696e-03  -5.3501065e-04  -1.9209137e-03  -1.1226266e-03  -8.1770675e-04
  -2.2549088e-04  -3.4813827e-04  -1.2815057e-04  -1.9526687e-04  -1.5559205e-04  -1.8761228e-04   3.7140679e-05  -1.0258509e-04  -6.5538456e-04  -2.6003798e-04  -6.5715358e-05  -1.2034380e-04  -6.5424718e-04  -8.8745197e-05  -1.0439244e-03  -1.0795250e-04  -8.6008826e-05  -2.6576183e-04  -3.2839130e-04  -1.6482540e-04  -2.8855755e-04  -2.3750809e-04  -1.6263628e-04  -1.4203007e-05  -6.0822575e-05  -3.6457778e-04  -2.4259285e-04   2.8430544e-05   2.1661626e-04  -2.5216036e-04   1.8692309e-03  -5.2117708e-04  -1.9427096e-03  -1.2245266e-03  -8.0408849e-04
  -2.3515878e-04  -3.6308268e-04  -1.4357219e-04  -2.1555051e-04  -1.7493083e-04  -1.9124524e-04   2.9489167e-05  -1.2105532e-04  -6.9449522e-04  -2.9726618e-04  -1.0480005e-04  -1.2888218e-04  -6.4222427e-04  -8.8570698e-05  -1.0247198e-03  -1.2338905e-04  -9.3759059e-05  -2.7910521e-04  -3.5539962e-04  -1.8723922e-04  -2.9895219e-04  -2.4033162e-04  -1.4596533e-04  -8.5068168e-05  -1.2422509e-04  -4.4714558e-04  -9.3030911e-05  -3.5917699e-05   2.2704313e-04  -1.7052458e-04   1.9315548e-03  -4.7631818e-04  -1.9544638e-03  -1.3581360e-03  -7.6779450e-04
  -2.4752502e-04  -3.7318704e-04  -1.5653629e-04  -2.3362493e-04  -1.8599509e-04  -1.8711221e-04   2.3631716e-05  -1.3760630e-04  -7.2285649e-04  -3.2692368e-04  -1.4187198e-04  -1.4474260e-04  -6.2339165e-04  -8.5085107e-05  -9.8145043e-04  -1.3419395e-04  -9.5847921e-05  -2.9343818e-04  -3.8491737e-04  -2.0533548e-04  -3.1490941e-04  -2.5003744e-04  -1.3968993e-04  -1.6520813e-04  -2.0131648e-04  -5.0866493e-04  -4.9700488e-05  -1.0677439e-04   2.2209923e-04  -3.0528368e-05   2.0423071e-03  -4.0691943e-04  -1.9505392e-03  -1.5084530e-03  -7.2198379e-04
  -2.6069136e-04  -3.7707464e-04  -1.6247110e-04  -2.4842608e-04  -1.8752198e-04  -1.7794709e-04   2.3221077e-05  -1.4873534e-04  -7.3299377e-04  -3.4182036e-04  -1.6788347e-04  -1.6518572e-04  -5.9837755e-04  -7.7353594e-05  -9.1687433e-04  -1.3758322e-04  -9.0106470e-05  -3.0409917e-04  -4.0991852e-04  -2.1477327e-04  -3.3159292e-04  -2.6899629e-04  -1.4056083e-04  -2.4690246e-04  -2.8894606e-04  -5.4681388e-04  -1.1219036e-04  -1.7710374e-04   1.7965250e-04   1.4365844e-04   2.1745230e-03  -3.2556342e-04  -1.9218643e-03  -1.6518986e-03  -6.8177923e-04
  -2.7283741e-04  -3.7397546e-04  -1.5962301e-04  -2.6052588e-04  -1.8214501e-04  -1.6685062e-04   3.0272575e-05  -1.5223272e-04  -7.2083733e-04  -3.3913078e-04  -1.7658403e-04  -1.8886829e-04  -5.6833454e-04  -6.5445347e-05  -8.3776528e-04  -1.3129544e-04  -7.5869000e-05  -3.0743639e-04  -4.2318064e-04  -2.1217545e-04  -3.4223797e-04  -2.9382808e-04  -1.4179587e-04  -3.2007400e-04  -3.8045627e-04  -5.6776579e-04  -2.3977710e-04  -2.3911489e-04   8.9720546e-05   3.2011751e-04   2.2962946e-03  -2.4555688e-04  -1.8597109e-03  -1.7647226e-03  -6.5518060e-04
  -2.8251138e-04  -3.6398286e-04  -1.4971837e-04  -2.7155940e-04  -1.7455687e-04  -1.5597709e-04   4.4097938e-05  -1.4794680e-04  -6.8719493e-04  -3.2113917e-04  -1.6706430e-04  -2.1399747e-04  -5.3507683e-04  -5.0568200e-05  -7.5283332e-04  -1.1467232e-04  -5.4176042e-05  -3.0262131e-04  -4.2011534e-04  -1.9619321e-04  -3.4097399e-04  -3.1780635e-04  -1.3638679e-04  -3.7583715e-04  -4.6739785e-04  -5.8184768e-04  -3.6970433e-04  -2.8698237e-04  -3.8700506e-05   4.7112210e-04   2.3843735e-03  -1.7582857e-04  -1.7612426e-03  -1.8316230e-03  -6.3811458e-04
  -2.8865456e-04  -3.4813624e-04  -1.3665944e-04  -2.8301173e-04  -1.6870933e-04  -1.4572438e-04   6.1797567e-05  -1.3748152e-04  -6.3756475e-04  -2.9356612e-04  -1.4402838e-04  -2.3550700e-04  -5.0026993e-04  -3.4244978e-05  -6.7087647e-04  -8.8981775e-05  -2.7312153e-05  -2.9159081e-04  -4.0032942e-04  -1.6809323e-04  -3.2520312e-04  -3.3458861e-04  -1.1997354e-04  -4.0953961e-04  -5.4176658e-04  -5.9754821e-04  -4.4597100e-04  -3.1866753e-04  -1.7828547e-04   5.8256398e-04   2.4333005e-03  -1.1855501e-04  -1.6334822e-03  -1.8505407e-03  -6.1591063e-04
  -2.9060387e-04  -3.2821234e-04  -1.2421211e-04  -2.9503737e-04  -1.6562028e-04  -1.3479398e-04   7.9955462e-05  -1.2312752e-04  -5.8032281e-04  -2.6253119e-04  -1.1564255e-04  -2.4406903e-04  -4.6425647e-04  -1.7225640e-05  -5.9944205e-04  -5.6931869e-05   2.1122821e-06  -2.7738200e-04  -3.6733024e-04  -1.3157738e-04  -2.9649975e-04  -3.4118560e-04  -9.2199909e-05  -4.2197414e-04  -5.9791259e-04  -6.1690365e-04  -4.4501646e-04  -3.3582954e-04  -2.9194434e-04   6.5625127e-04   2.4548697e-03  -7.0416303e-05  -1.4927976e-03  -1.8315484e-03  -5.7069160e-04
  -2.8818473e-04  -3.0621659e-04  -1.1404485e-04  -3.0604197e-04  -1.6297138e-04  -1.2107642e-04   9.6479525e-05  -1.0662073e-04  -5.2391877e-04  -2.3183273e-04  -8.9953268e-05  -2.2873783e-04  -4.2551497e-04   1.0804083e-06  -5.4380990e-04  -2.1722853e-05   3.2044878e-05  -2.6195325e-04  -3.2673063e-04  -9.1769929e-05  -2.5979115e-04  -3.3879821e-04  -5.6290981e-05  -4.1832452e-04  -6.3354161e-04  -6.3448172e-04  -3.8379509e-04  -3.4189489e-04  -3.4611695e-04   7.0442312e-04   2.4685066e-03  -2.6427144e-05  -1.3593092e-03  -1.7906546e-03  -4.9146771e-04
  -2.8186044e-04  -2.8370784e-04  -1.0527830e-04  -3.1324654e-04  -1.5666927e-04  -1.0294550e-04   1.1152669e-04  -8.8476823e-05  -4.7411703e-04  -2.0194471e-04  -7.1524468e-05  -1.8256644e-04  -3.8144144e-04   2.2107168e-05  -5.0611747e-04   1.3828881e-05   6.1451989e-05  -2.4493589e-04  -2.8395871e-04  -5.3642310e-05  -2.2132698e-04  -3.3141227e-04  -1.7382703e-05  -4.0551560e-04  -6.4963271e-04  -6.4029935e-04  -3.0690615e-04  -3.3948736e-04  -3.2368189e-04   7.4039807e-04   2.4884408e-03   1.6161319e-05  -1.2484674e-03  -1.7417313e-03  -3.8155777e-04
