-0.0000000 -0.0000000 -0.0000000 -0.0000000 -0.0000000 -0.0000000 -0.0000000 -0.0000000 -0.0000000 -0.0000000 -0.0000000 -0.0000000 -0.0000000 -0.0000000 -0.0000000 -0.0000000 -0.0000000 -0.0000000 -0.0000000 -0.0000000 -0.0000000 -0.0000000 -0.0000000 -0.0000000 -0.0000000 -0.0000000 -0.0000000 -0.0000000 -0.0000000 -0.0000000 -0.0000000 -0.0000000 -0.0000000 -0.0000000 -0.0000000 -0.0000000 -0.0000000 -0.0000000 -0.0000000 -0.0000000 -0.0000000 -0.0000000 -0.0000000 -0.0000000 -0.0000000 -0.0000000 -0.0000000 -0.0000000 -0.0000000 -0.0000000 -0.0000000 -0.0000000 -0.0000000 -0.0000000 -0.0000000 -0.0000000 -0.0000000 -0.0000000 -0.0000000 -0.0000000 -0.0000000 -0.0000000 -0.0000000 -0.0000000 -0.0000000 -0.0000000 -0.0000000 -0.0000000 -0.0000000 -0.0000000 -0.0000000 -0.0000000 -0.0000000 -0.0000000 -0.0000000 -0.0000000 -0.0000000 -0.0000000 -0.0000000 -0.0000000 -0.0000000 -0.0000000 -0.0000000 -0.0000000 -0.0000000 -0.0000000 -0.0000000 -0.0000000 -0.0000000 -0.0000000 -0.0000000 -0.0000000 -0.0000000 -0.0000000 -0.0000000 -0.0000000 -0.0000000 -0.0000000 -0.0000000 -0.0000000 -0.0000000 -0.0000000 -0.0000000 -0.0000000 -0.0000000 -0.0000000 -0.0000000 -0.0000000 -0.0000000 -0.0000000 -0.0000000 -0.0000000 -0.0000000 -0.0000000 -0.0000000 -0.0000000 -0.0000000 -0.0000000 -0.0000000 -0.0000000 -0.0000000 -0.0000000 -0.0000000 -0.0000000 -0.0000000 -0.0000000 -0.0000000 -0.0000000 -0.0000000 -0.0000000 -0.0000000 -0.0000000 -0.0000000 -0.0000000 -0.0000000 -0.0000000 -0.0000000 -0.0000000 -0.0000000 -0.0000000 -0.0000000 -0.0000000 -0.0000000 -0.0000000 -0.0000000 -0.0000000 -0.0000000 -0.0000000 -0.0000000 -0.0000000 -0.0000000 -0.0000000 -0.0000000 -0.0000000 -0.0000000 -0.0000000 -0.0000000 -0.0000000 -0.0000000 -0.0000000 -0.0000000 -0.0000000 -0.0000000 -0.0000000 -0.0000000 -0.0000000 -0.0000000 -0.0000000 -0.0000000 -0.0000000 -0.0000000 -0.0000000 -0.0000000 -0.0000000 -0.0000000 -0.0000000 -0.0000000 -0.0000000 -0.0000000 -0.0000000 -0.0000000 -0.0000000 -0.0000000 -0.0000000 -0.0000000 -0.0000000 -0.0000000 -0.0000000 -0.0000000 -0.0000000 -0.0000000 -0.0000000 -0.0000000 -0.0000000 -0.0000000 -0.0000000 -0.0000000 -0.0000000 -0.0000000 -0.0000000 -0.0000000 -0.0000000 -0.0000000 -0.0000000 -0.0000000 -0.0000000 -0.0000000 -0.0000000 -0.0000000 -0.0000000 -0.0000000 -0.0000000 -0.0000000 -0.0000000 -0.0000000 -0.0000000
-0.0000000 -0.0000000 -0.0000000 -0.0000000 -0.0000000 -0.0000000 -0.0000000 -0.0000000 -0.0000000 -0.0000000 -0.0000000 -0.0000000 -0.0000000 -0.0000000 -0.0000000 -0.0000000 -0.0000000 -0.0000000 -0.0000000 -0.0000000 -0.0000000 -0.0000000 -0.0000000 -0.0000000 -0.0000000 -0.0000000 -0.0000000 -0.0000000 -0.0000000 -0.0000000 -0.0000000 -0.0000000 -0.0000000 -0.0000000 -0.0000000 -0.0000000 -0.0000000 -0.0000000 -0.0000000 -0.0000000 -0.0000000 -0.0000000 -0.0000000 -0.0000000 -0.0000000 -0.0000000 -0.0000000 -0.0000000 -0.0000000 -0.0000000 -0.0000000 -0.0000000 -0.0000000 -0.0000000 -0.0000000 -0.0000000 -0.0000000 -0.0000000 -0.0000000 -0.0000000 -0.0000000 -0.0000000 -0.0000000 -0.0000000 -0.0000000 -0.0000000 -0.0000000 -0.0000000 -0.0000000 -0.0000000 -0.0000000 -0.0000000 -0.0000000 -0.0000000 -0.0000000 -0.0000000 -0.0000000 -0.0000000 -0.0000000 -0.0000000 -0.0000000 -0.0000000 -0.0000000 -0.0000000 -0.0000000 -0.0000000 -0.0000000 -0.0000000 -0.0000000 -0.0000000 -0.0000000 -0.0000000 -0.0000000 -0.0000000 -0.0000000 -0.0000000 -0.0000000 -0.0000000 -0.0000000 -0.0000000 -0.0000000 -0.0000000 -0.0000000 -0.0000000 -0.0000000 -0.0000000 -0.0000000 -0.0000000 -0.0000000 -0.0000000 -0.0000000 -0.0000000 -0.0000000 -0.0000000 -0.0000000 -0.0000000 -0.0000000 -0.0000000 -0.0000000 -0.0000000 -0.0000000 -0.0000000 -0.0000000 -0.0000000 -0.0000000 -0.0000000 -0.0000000 -0.0000000 -0.0000000 -0.0000000 -0.0000000 -0.0000000 -0.0000000 -0.0000000 -0.0000000 -0.0000000 -0.0000000 -0.0000000 -0.0000000 -0.0000000 -0.0000000 -0.0000000 -0.0000000 -0.0000000 -0.0000000 -0.0000000 -0.0000000 -0.0000000 -0.0000000 -0.0000000 -0.0000000 -0.0000000 -0.0000000 -0.0000000 -0.0000000 -0.0000000 -0.0000000 -0.0000000 -0.0000000 -0.0000000 -0.0000000 -0.0000000 -0.0000000 -0.0000000 -0.0000000 -0.0000000 -0.0000000 -0.0000000 -0.0000000 -0.0000000 -0.0000000 -0.0000000 -0.0000000 -0.0000000 -0.0000000 -0.0000000 -0.0000000 -0.0000000 -0.0000000 -0.0000000 -0.0000000 -0.0000000 -0.0000000 -0.0000000 -0.0000000 -0.0000000 -0.0000000 -0.0000000 -0.0000000 -0.0000000 -0.0000000 -0.0000000 -0.0000000 -0.0000000 -0.0000000 -0.0000000 -0.0000000 -0.0000000 -0.0000000 -0.0000000 -0.0000000 -0.0000000 -0.0000000 -0.0000000 -0.0000000 -0.0000000 -0.0000000 -0.0000000 -0.0000000 -0.0000000 -0.0000000 -0.0000000 -0.0000000 -0.0000000 -0.0000000 -0.0000000
-0.0000147 0.0000201 0.0000050 0.0000026 0.0000073 -0.0000013 -0.0000145 0.0000023 -0.0000029 0.0000237 -0.0000111 -0.0000245 0.0000191 -0.0000217 -0.0000020 0.0000174 -0.0000064 0.0000098 -0.0000125 0.0000115 0.0000193 -0.0000148 -0.0000097 0.0000063 -0.0000108 0.0000029 -0.0000005 0.0000852 -0.0000054 0.0000358 0.0000158 0.0001309 -0.0000049 -0.0000068 -0.0000215 0.0000196 -0.0000021 -0.0000013 -0.0000243 -0.0000470 0.0000001 -0.0000141 -0.0000186 0.0000081 0.0000892 -0.0000740 -0.0000044 -0.0000032 0.0000064 0.0000005 0.0000142 -0.0000088 0.0000144 -0.0000029 -0.0000264 0.0000214 0.0000181 -0.0000134 -0.0000026 -0.0000286 -0.0000026 -0.0000123 0.0000533 -0.0000410 0.0000247 -0.0000324 0.0000117 -0.0000416 -0.0000180 0.0000113 -0.0000094 -0.0000719 0.0000011 -0.0000194 0.0000179 -0.0000225 -0.0000035 -0.0000583 -0.0000056 -0.0000155 0.0000996 -0.0001230 -0.0000604 0.0000414 0.0000211 -0.0000906 -0.0000260 -0.0000069 0.0000013 -0.0000388 -0.0000030 -0.0000562 0.0000786 -0.0001158 0.0001038 -0.0000959 -0.0000319 -0.0000090 0.0001668 -0.0001349 -0.0000074 -0.0000477 -0.0000105 0.0000152 0.0000070 -0.0000440 -0.0000033 0.0000206 0.0000098 -0.0000123 -0.0000082 -0.0000054 0.0000168 -0.0000129 0.0001660 -0.0000807 0.0000327 -0.0000533 -0.0000261 -0.0000160 -0.0000333 -0.0000230 -0.0000691 0.0000496 0.0002160 -0.0002601 0.0000162 -0.0000223 0.0000012 -0.0000250 0.0000029 -0.0000162 -0.0004734 0.0002864 -0.0000183 -0.0000434 -0.0002583 0.0001637 -0.0000199 -0.0000790 0.0000009 -0.0000228 -0.0000043 -0.0000159 0.0000211 -0.0000533 -0.0001057 0.0000505 -0.0000488 0.0000629 0.0001244 -0.0001276 -0.0004635 0.0002824 -0.0000691 0.0000570 -0.0000174 0.0000082 0.0000020 -0.0000004 0.0000118 -0.0000035 -0.0001083 0.0000888 -0.0000096 0.0000712 -0.0000278 0.0000714 -0.0000382 0.0000255 -0.0000133 0.0000527 0.0000251 0.0000146 -0.0000506 0.0000622 -0.0000266 0.0000486 -0.0000167 0.0000636 -0.0000145 0.0000956 0.0000025 0.0000684 0.0002346 -0.0001015 0.0000327 0.0000019 -0.0009485 0.0007125 -0.0000225 0.0001107 -0.0001814 0.0001124 -0.0000081 0.0000309 0.0000850 0.0000317 -0.0000090 0.0000710 0.0000131 0.0001348 0.0000206 0.0000292 -0.0011887 0.0006327 -0.0000297 0.0000408 0.0002178 -0.0001211 -0.0001205 0.0001183 -0.0000170 0.0000355 -0.0001233 0.0000421
-0.0000244 0.0000955 -0.0000208 0.0000714 -0.0000118 0.0001026 -0.0000198 0.0000557 -0.0000125 0.0000688 -0.0000568 0.0000754 0.0000068 0.0000270 -0.0000162 0.0000977 -0.0000179 0.0000497 0.0000018 0.0000135 -0.0000112 0.0000365 -0.0000028 0.0000271 -0.0000159 0.0000230 -0.0000088 0.0001206 0.0000159 0.0000456 0.0000079 0.0001766 -0.0000052 -0.0000061 -0.0000250 0.0000499 0.0000027 0.0000271 0.0000677 -0.0001483 0.0000040 -0.0000322 0.0000104 -0.0000203 -0.0000329 0.0000538 -0.0000014 0.0000134 0.0000195 -0.0000049 -0.0000035 -0.0000071 0.0000193 0.0000130 -0.0000297 -0.0000024 0.0000049 -0.0000002 -0.0000151 -0.0000549 -0.0000395 0.0000024 -0.0000117 0.0000075 0.0000226 -0.0000276 -0.0000026 -0.0000393 -0.0000136 -0.0000581 -0.0000045 -0.0001908 0.0000145 -0.0000790 0.0000146 -0.0000507 -0.0000093 -0.0001041 -0.0000212 -0.0000443 0.0002537 -0.0003009 -0.0000974 0.0000439 0.0000445 -0.0002291 -0.0000147 -0.0000550 0.0000411 -0.0001526 -0.0000092 -0.0001224 0.0002199 -0.0003229 -0.0001352 0.0000889 -0.0002080 0.0001137 0.0000727 -0.0000793 -0.0000374 -0.0001044 -0.0000904 0.0000157 0.0000033 -0.0001150 0.0000203 0.0000108 0.0000145 -0.0000226 0.0000152 -0.0000789 0.0000378 -0.0000374 0.0001084 -0.0001134 0.0000256 -0.0000722 -0.0000066 -0.0001127 -0.0000276 -0.0000877 0.0002221 -0.0001782 0.0000651 -0.0002260 0.0000227 -0.0000704 -0.0000034 -0.0001152 0.0000025 -0.0000580 -0.0005554 -0.0000737 -0.0000135 -0.0001619 0.0000581 -0.0002716 0.0000855 -0.0002641 -0.0000039 -0.0001041 -0.0000038 -0.0001336 0.0000604 -0.0001994 -0.0000626 -0.0001595 0.0000337 -0.0001145 0.0001425 -0.0002093 -0.0000458 -0.0001517 0.0000836 -0.0001393 -0.0000275 -0.0000331 -0.0000526 -0.0001252 -0.0000169 -0.0000801 -0.0000411 -0.0000405 0.0000255 -0.0000864 -0.0000075 -0.0000611 -0.0001555 0.0000926 0.0000125 -0.0000177 0.0000205 -0.0000424 -0.0000396 0.0000417 -0.0000789 -0.0000047 -0.0000246 -0.0000358 0.0000279 -0.0000577 0.0002373 -0.0003169 0.0003688 -0.0002106 0.0000652 -0.0000702 -0.0005878 0.0003946 -0.0000855 0.0000435 -0.0008592 0.0005207 -0.0003216 0.0002693 -0.0000536 0.0000518 0.0000299 -0.0000149 -0.0000443 0.0001228 0.0000593 -0.0000261 -0.0011095 0.0006353 -0.0000141 0.0000238 0.0005217 -0.0003706 -0.0002614 0.0002068 -0.0000956 0.0001018 -0.0002388 0.0000592
-0.0000281 0.0001121 0.0000057 0.0000530 -0.0000182 0.0001107 -0.0000348 0.0000751 -0.0000173 0.0000881 -0.0000499 0.0001205 -0.0000068 0.0001035 -0.0000348 0.0001798 -0.0000354 0.0000516 0.0000030 0.0000170 -0.0000343 0.0000799 0.0000010 0.0000464 -0.0000210 0.0000486 -0.0000481 0.0001094 0.0000136 0.0001233 -0.0000054 0.0001415 -0.0000126 0.0000193 -0.0000169 0.0000705 0.0000043 0.0001084 -0.0000009 0.0000107 -0.0000043 0.0000330 -0.0000143 0.0000336 -0.0001146 0.0001759 0.0000102 0.0000726 0.0000208 0.0000269 -0.0000111 0.0000163 0.0000404 0.0000612 -0.0000237 0.0000102 0.0000167 0.0000515 -0.0000205 0.0000169 -0.0000441 0.0000371 -0.0000814 0.0000874 0.0000039 0.0000300 0.0000117 0.0000340 0.0000317 -0.0000597 0.0000030 -0.0001277 -0.0000013 -0.0000080 0.0000260 0.0000040 -0.0000388 -0.0000475 -0.0000531 0.0000395 0.0001896 -0.0001383 -0.0001369 0.0002033 0.0000258 -0.0001982 -0.0000339 -0.0000100 0.0000812 -0.0001395 -0.0000026 -0.0001431 0.0002233 -0.0002486 -0.0000708 0.0001001 -0.0001409 0.0001091 -0.0000423 -0.0000062 -0.0000365 -0.0001388 -0.0000493 0.0000137 -0.0000114 -0.0001366 0.0000405 -0.0000169 0.0000345 -0.0000496 0.0000345 -0.0001147 0.0000321 -0.0000416 -0.0001357 -0.0000528 0.0000160 -0.0001096 -0.0000655 -0.0001595 0.0000475 -0.0001560 0.0002755 -0.0002889 -0.0002199 -0.0000487 0.0000272 -0.0001259 -0.0000272 -0.0001721 0.0000131 -0.0001216 -0.0012386 0.0005601 0.0000542 -0.0003296 0.0000761 -0.0003918 0.0001337 -0.0003750 0.0000066 -0.0001770 0.0000251 -0.0002630 0.0000538 -0.0002614 -0.0000674 -0.0002184 0.0002487 -0.0003699 0.0000892 -0.0002206 0.0001951 -0.0001577 0.0000572 -0.0002655 -0.0000340 -0.0000959 -0.0000487 -0.0002345 0.0000080 -0.0001956 -0.0000418 -0.0001626 0.0000283 -0.0002069 -0.0000035 -0.0001711 -0.0000696 0.0001137 -0.0000485 -0.0000172 -0.0000080 -0.0000927 -0.0000782 0.0000230 -0.0001173 -0.0000722 -0.0000521 -0.0001028 0.0000489 -0.0001667 0.0002736 -0.0005467 -0.0002582 0.0000858 -0.0001276 -0.0000213 0.0001296 -0.0001286 -0.0000223 -0.0001326 -0.0006540 0.0001911 -0.0002002 0.0001408 -0.0000557 -0.0000850 0.0000385 -0.0001562 -0.0000211 -0.0001358 0.0000894 -0.0001286 -0.0008186 0.0007305 -0.0000081 -0.0000592 0.0003442 -0.0002652 -0.0002816 0.0001122 -0.0000483 -0.0000705 -0.0000577 -0.0001981
0.0000048 -0.0001149 0.0000333 -0.0000912 -0.0000181 -0.0001356 0.0000026 -0.0000861 0.0000059 0.0000370 -0.0000068 -0.0001561 0.0000074 -0.0000378 -0.0000347 0.0000644 -0.0000492 -0.0000893 0.0000083 -0.0000507 -0.0000067 -0.0000116 0.0000252 -0.0000533 -0.0000187 0.0000192 -0.0000749 0.0000075 0.0000108 0.0000102 -0.0000109 0.0000226 -0.0000103 -0.0000090 -0.0000064 -0.0000167 0.0000198 0.0000238 0.0000127 -0.0000352 -0.0000091 0.0000359 -0.0000117 0.0000183 -0.0000704 0.0000472 0.0000220 0.0000761 0.0000177 0.0000275 -0.0000169 -0.0000167 0.0000605 0.0000918 -0.0000206 0.0000012 0.0000457 0.0000830 0.0000008 0.0000179 -0.0000012 0.0000133 -0.0000498 0.0000866 0.0000015 0.0000697 0.0000258 0.0000096 0.0000690 -0.0000090 0.0000267 0.0000509 -0.0000245 0.0000756 0.0000247 0.0000890 0.0000104 0.0000269 -0.0000398 0.0000860 0.0001156 -0.0000091 -0.0000520 0.0001066 0.0000515 -0.0001161 -0.0000497 0.0000755 0.0000656 -0.0001201 0.0000258 -0.0001360 -0.0002403 0.0002100 -0.0000304 0.0000320 0.0000061 -0.0000086 0.0001701 -0.0001776 0.0000013 -0.0000858 0.0000005 0.0000124 0.0000118 -0.0001203 0.0000409 -0.0000210 0.0000418 -0.0000033 0.0000202 -0.0000406 -0.0000206 0.0000613 0.0000655 -0.0001182 0.0000252 -0.0000774 0.0000227 -0.0001563 0.0000271 -0.0000561 -0.0000262 -0.0000813 0.0003013 -0.0002571 0.0000370 -0.0000617 -0.0000255 -0.0000766 0.0000148 -0.0001082 -0.0006450 0.0006229 0.0000854 -0.0002272 0.0001264 -0.0002211 0.0001554 -0.0002619 0.0000402 -0.0001392 0.0000236 -0.0002112 0.0000390 -0.0002188 -0.0002279 0.0000152 -0.0000806 -0.0000200 -0.0000060 -0.0000885 -0.0000036 0.0001726 -0.0000281 -0.0001271 -0.0000408 -0.0000881 -0.0000420 -0.0002487 0.0000570 -0.0002208 -0.0000626 -0.0001045 0.0000135 -0.0001536 0.0000354 -0.0001351 -0.0000175 0.0001618 0.0000046 -0.0000466 -0.0000273 -0.0000415 -0.0000933 0.0000365 -0.0000777 -0.0001468 -0.0000296 -0.0001367 0.0000541 -0.0001659 0.0001088 -0.0003792 -0.0000296 -0.0002015 0.0000394 -0.0001698 0.0004370 -0.0003504 -0.0001180 -0.0000960 0.0004394 -0.0007849 -0.0001800 0.0001169 0.0002577 -0.0003698 0.0000505 -0.0002153 -0.0000119 -0.0002113 0.0000065 -0.0000773 -0.0004430 0.0002490 0.0000115 -0.0001093 -0.0000168 -0.0001262 -0.0001418 -0.0001429 0.0000465 -0.0002348 0.0000333 -0.0002700
0.0000063 -0.0002357 0.0000048 -0.0001443 -0.0000494 -0.0002476 0.0000311 -0.0001925 0.0000198 0.0000080 0.0000081 -0.0003537 0.0000218 -0.0001907 -0.0000315 -0.0000367 -0.0000488 -0.0001972 -0.0000085 -0.0000871 0.0000337 -0.0001129 0.0000397 -0.0001315 0.0000179 -0.0000633 -0.0000657 -0.0000468 0.0000107 -0.0001416 -0.0000043 -0.0000078 -0.0000022 -0.0000968 -0.0000038 -0.0001582 0.0000395 -0.0001529 0.0000732 -0.0002941 -0.0000046 -0.0001241 0.0000341 -0.0001059 0.0000750 -0.0001542 0.0000311 -0.0000070 0.0000568 -0.0000692 -0.0000058 -0.0000762 0.0000827 0.0000260 0.0000219 -0.0001544 0.0000486 0.0000206 0.0000388 -0.0001958 -0.0000027 -0.0000884 -0.0000494 -0.0000573 0.0000122 -0.0000673 0.0000432 -0.0002522 0.0000652 -0.0001744 0.0000510 -0.0001257 -0.0000211 -0.0000634 0.0000195 -0.0000232 0.0000132 -0.0001110 -0.0000159 -0.0000338 0.0000451 -0.0001045 0.0000255 -0.0001909 0.0000715 -0.0002541 -0.0000333 -0.0000306 0.0001033 -0.0002981 0.0000655 -0.0002927 -0.0006088 0.0003385 -0.0001737 -0.0000400 -0.0000419 -0.0000589 0.0002225 -0.0003244 0.0000036 -0.0000876 0.0000546 -0.0001825 0.0000421 -0.0001820 0.0000189 0.0000201 0.0000482 0.0000168 0.0000431 0.0000221 -0.0000056 0.0000882 0.0002529 -0.0002265 0.0000190 -0.0000253 -0.0000108 -0.0000713 0.0000046 -0.0000113 0.0001279 -0.0001595 0.0006264 -0.0004347 0.0000547 0.0000002 -0.0000041 0.0000102 0.0000318 -0.0001142 -0.0001843 0.0002932 0.0000741 -0.0000876 -0.0000009 0.0000367 0.0000054 -0.0000191 0.0000302 -0.0000471 0.0000182 -0.0001409 0.0000762 -0.0002147 -0.0000124 -0.0001043 -0.0000465 -0.0000115 0.0001339 -0.0001770 -0.0001848 0.0003334 -0.0002928 0.0002201 0.0000183 -0.0001198 0.0000147 -0.0002780 0.0000135 -0.0001543 0.0001112 -0.0001847 0.0000251 -0.0000787 0.0000145 -0.0000091 0.0000500 0.0000888 -0.0000311 0.0000582 0.0000098 -0.0000027 -0.0000644 0.0000423 0.0001482 -0.0003014 0.0000251 -0.0001540 0.0000481 -0.0000830 -0.0000873 -0.0000242 0.0002299 -0.0002257 0.0002186 -0.0003193 0.0000092 0.0000833 -0.0001592 0.0000346 0.0001902 -0.0004962 -0.0003957 0.0003107 0.0001449 -0.0001867 0.0000233 -0.0001564 0.0000666 -0.0001186 -0.0000244 -0.0000164 -0.0015912 0.0006665 0.0000188 -0.0001042 0.0002115 -0.0003747 -0.0003236 0.0000771 0.0000213 -0.0001815 -0.0001592 -0.0000353
-0.0000027 -0.0001046 -0.0000311 -0.0000366 -0.0000125 -0.0001181 0.0000081 -0.0001012 0.0000156 0.0000388 0.0000357 -0.0002218 -0.0000016 -0.0000810 -0.0000496 0.0000858 -0.0000617 -0.0001169 -0.0000229 -0.0000482 0.0000256 -0.0000793 0.0000167 -0.0000619 0.0000176 -0.0000570 -0.0000761 0.0000128 0.0000025 -0.0000497 0.0000190 0.0001311 -0.0000034 -0.0000540 0.0000063 -0.0001086 0.0000463 -0.0001304 0.0000517 -0.0002368 -0.0000003 -0.0001208 0.0000487 -0.0000970 0.0000127 -0.0000563 0.0000329 0.0000131 0.0000750 -0.0000565 0.0000002 -0.0000601 0.0000952 0.0000322 0.0000614 -0.0001977 0.0000500 0.0000211 0.0000702 -0.0002528 -0.0000179 -0.0000783 0.0000402 -0.0001977 0.0000243 -0.0001309 0.0000198 -0.0003050 0.0001263 -0.0003213 0.0000525 -0.0002953 -0.0000032 -0.0001260 0.0000238 -0.0001028 0.0000793 -0.0002684 0.0000222 -0.0001457 0.0000567 -0.0001400 -0.0000683 -0.0001815 0.0000709 -0.0004083 -0.0000443 -0.0000845 0.0001449 -0.0004177 0.0001037 -0.0004050 0.0000445 -0.0002223 -0.0002082 -0.0001546 -0.0000555 -0.0001402 0.0001730 -0.0003820 0.0000198 -0.0002115 0.0000490 -0.0002475 0.0000514 -0.0002891 0.0000065 0.0000452 0.0000646 -0.0000425 0.0000591 0.0000115 0.0000204 0.0000368 -0.0001707 -0.0000543 0.0000369 -0.0000694 0.0000636 -0.0002733 -0.0000280 -0.0001095 0.0001923 -0.0001846 0.0001114 -0.0001372 0.0000608 -0.0000980 0.0000236 -0.0001236 0.0000367 -0.0002011 -0.0002031 0.0001570 0.0000387 -0.0001968 -0.0001449 0.0000179 -0.0000349 -0.0001141 0.0000276 -0.0001418 0.0000715 -0.0002318 0.0000947 -0.0003340 0.0000604 -0.0003513 0.0000850 -0.0003322 0.0001533 -0.0002938 0.0000982 0.0000234 -0.0005262 0.0001408 0.0000680 -0.0002528 0.0000472 -0.0003349 -0.0000644 -0.0001691 0.0000539 -0.0002591 0.0000624 -0.0001924 -0.0000058 -0.0001370 0.0002459 -0.0000284 -0.0000366 0.0000271 -0.0000296 -0.0000562 -0.0001126 0.0000328 0.0002518 -0.0004693 0.0000725 -0.0002153 0.0000093 -0.0001023 -0.0002059 0.0000409 -0.0000785 -0.0000155 0.0002962 -0.0003809 -0.0001355 0.0001666 -0.0000791 -0.0000646 0.0001646 -0.0009254 0.0000504 -0.0000890 -0.0000513 -0.0000711 0.0000513 -0.0001371 0.0001747 -0.0001398 0.0000484 -0.0000893 -0.0025271 0.0019252 -0.0000516 -0.0000503 0.0001525 -0.0003199 -0.0002114 0.0000878 0.0000420 -0.0001407 -0.0002602 0.0000415
0.0000021 -0.0000227 -0.0000012 0.0000022 0.0000251 -0.0000211 -0.0000103 -0.0000284 0.0000285 0.0000469 0.0000449 -0.0000850 -0.0000089 0.0000166 -0.0000477 0.0001654 -0.0000352 -0.0000781 -0.0000016 -0.0000454 0.0000279 -0.0000123 0.0000194 -0.0000160 0.0000270 -0.0000607 -0.0000883 0.0000168 -0.0000012 0.0000490 0.0000201 0.0000768 0.0000090 0.0000083 -0.0000029 0.0000003 0.0000536 -0.0000699 0.0000262 -0.0001127 0.0000001 -0.0000114 0.0000863 -0.0000554 0.0000637 -0.0000011 0.0000226 0.0000528 0.0000623 0.0000322 -0.0000016 -0.0000113 0.0001039 0.0001150 0.0000489 -0.0000995 0.0000550 0.0001187 0.0000760 -0.0001261 -0.0000276 0.0000304 0.0001040 -0.0001655 0.0000426 -0.0000721 -0.0000168 -0.0000838 0.0000844 -0.0001623 0.0000509 0.0000440 0.0000036 0.0000418 0.0000253 0.0000160 0.0001240 -0.0001560 -0.0000710 0.0000603 0.0001307 -0.0000309 -0.0000107 -0.0001443 0.0000441 -0.0001295 -0.0000180 0.0000722 0.0000807 -0.0001601 0.0001014 -0.0002036 0.0005549 -0.0005401 -0.0003006 0.0000272 0.0000032 -0.0000959 0.0000524 -0.0002117 0.0000051 -0.0000216 -0.0000052 -0.0001012 0.0000327 -0.0001164 0.0000258 0.0000924 0.0000611 0.0000506 0.0000535 0.0001265 0.0000609 0.0000853 -0.0000564 0.0000449 0.0000512 -0.0000154 0.0000254 -0.0001482 -0.0000261 -0.0000422 0.0001522 -0.0001164 -0.0000780 0.0000257 0.0000546 -0.0000851 0.0000175 -0.0001007 0.0000391 -0.0001533 0.0000294 0.0001500 0.0000315 -0.0002000 -0.0001391 0.0000188 0.0000151 -0.0001401 0.0000165 -0.0001424 0.0000769 -0.0002188 0.0001505 -0.0003752 -0.0000027 -0.0003127 -0.0000051 -0.0002849 -0.0000164 -0.0001008 0.0000968 0.0000201 -0.0002576 -0.0002667 0.0000098 -0.0001950 0.0000181 -0.0002618 -0.0000125 -0.0002306 0.0000821 -0.0003761 0.0000540 -0.0002491 -0.0000007 -0.0001913 0.0001642 -0.0001661 0.0000235 -0.0000559 -0.0000931 -0.0000328 -0.0001737 0.0000893 0.0001273 -0.0004424 0.0000622 -0.0002424 0.0000052 -0.0001550 -0.0002370 -0.0000480 -0.0000975 -0.0000950 0.0002371 -0.0002707 0.0001966 -0.0004327 -0.0001636 -0.0001053 0.0003124 -0.0008749 -0.0000586 -0.0000989 -0.0000733 -0.0001622 0.0000881 -0.0001911 0.0000833 -0.0001481 0.0000308 -0.0001481 -0.0004611 0.0004972 -0.0000464 -0.0001172 -0.0002953 -0.0000994 0.0000573 -0.0002023 -0.0000104 -0.0000919 0.0001248 -0.0004117
0.0000016 -0.0001165 -0.0000114 -0.0000669 0.0000159 -0.0001234 0.0000171 -0.0000969 0.0000420 -0.0000017 0.0000522 -0.0002153 0.0000223 -0.0000846 -0.0000104 0.0000098 -0.0000314 -0.0001369 0.0000231 -0.0000983 0.0000996 -0.0001199 0.0000352 -0.0000926 0.0000292 -0.0001312 -0.0000623 -0.0000309 0.0000168 -0.0000706 0.0000091 -0.0000805 0.0000282 -0.0000206 0.0000114 -0.0000410 0.0000702 -0.0001419 0.0001616 -0.0002589 0.0000030 -0.0000128 0.0000786 -0.0000183 0.0000943 0.0000236 0.0000250 0.0000490 0.0000617 0.0000872 -0.0000010 -0.0000022 0.0001100 0.0001676 0.0000317 -0.0000397 0.0000714 0.0001809 0.0000740 -0.0000823 -0.0000305 0.0000406 0.0000549 -0.0000803 0.0000414 -0.0000913 -0.0000152 -0.0000179 -0.0000136 0.0000100 0.0000679 0.0002802 -0.0000044 0.0001536 0.0000181 0.0001185 0.0001037 -0.0000241 -0.0001075 0.0001730 0.0000373 0.0001047 0.0000920 -0.0001190 0.0000162 0.0001053 -0.0000111 0.0001672 0.0000495 0.0000554 0.0000770 -0.0000228 0.0004824 -0.0004117 -0.0001613 0.0000978 -0.0000472 0.0000194 0.0001311 -0.0000943 -0.0000333 0.0001646 -0.0000696 0.0000087 0.0000170 0.0000236 0.0000484 0.0001298 0.0000557 0.0001289 0.0000384 0.0002427 0.0000998 0.0001364 0.0000310 0.0001422 0.0000266 0.0001029 -0.0000201 -0.0000281 0.0000874 -0.0000628 0.0001625 -0.0001079 0.0001281 -0.0001497 0.0000592 0.0000452 -0.0000043 0.0000805 0.0000461 -0.0000651 -0.0001969 0.0004763 0.0000434 -0.0000339 0.0003602 -0.0002340 -0.0000092 -0.0000077 0.0000404 -0.0000562 0.0000630 -0.0000830 0.0001216 -0.0001966 0.0001253 -0.0002003 0.0000398 -0.0001212 -0.0000603 0.0000185 0.0004533 -0.0002944 0.0000944 -0.0003872 -0.0000208 -0.0000702 -0.0000238 -0.0000770 0.0000090 -0.0001571 -0.0000309 -0.0001312 0.0000420 -0.0000706 -0.0000246 -0.0000056 0.0001822 -0.0002564 -0.0000199 0.0000626 -0.0000111 -0.0000105 -0.0001130 0.0000569 0.0000676 -0.0001839 0.0000934 -0.0001409 0.0000287 -0.0000032 -0.0000193 0.0001227 -0.0001424 0.0002373 0.0000939 -0.0000864 -0.0003049 0.0000075 -0.0000424 0.0000030 0.0000118 -0.0002257 0.0000093 -0.0000191 -0.0004165 0.0002363 0.0000463 0.0000134 -0.0000089 0.0000650 0.0000022 0.0000408 0.0001920 -0.0001643 -0.0000417 -0.0000397 -0.0003033 0.0000024 0.0000702 -0.0002037 -0.0000358 -0.0000041 0.0001456 -0.0002728
-0.0000024 -0.0000473 -0.0000293 -0.0000143 0.0000273 -0.0000466 0.0000230 -0.0000524 0.0000273 0.0000162 0.0000706 -0.0002076 0.0000580 -0.0000674 0.0000075 -0.0000351 -0.0000388 -0.0000518 0.0000368 -0.0001094 0.0000731 -0.0001189 0.0000260 -0.0001013 0.0000660 -0.0001632 -0.0000235 0.0000051 0.0000277 -0.0001222 0.0000128 -0.0000249 0.0000407 -0.0000295 0.0000607 -0.0000671 0.0000770 -0.0001891 0.0001992 -0.0003560 0.0000116 -0.0000600 0.0000459 0.0000093 0.0000505 0.0001330 0.0000274 0.0000414 0.0000761 0.0000876 -0.0000015 0.0000142 0.0001169 0.0001695 0.0000149 -0.0000386 0.0000814 0.0001778 0.0000750 -0.0001497 -0.0000381 -0.0000063 0.0000363 -0.0000770 0.0000991 -0.0001776 -0.0000089 -0.0001111 -0.0000003 -0.0000672 0.0000709 0.0000735 -0.0000125 0.0000584 0.0000175 0.0000628 0.0000783 -0.0000715 -0.0000791 0.0000611 0.0000523 -0.0000464 0.0001698 -0.0000974 0.0000185 -0.0000287 -0.0000514 0.0001057 0.0000756 -0.0000318 0.0000316 -0.0000294 -0.0000234 0.0000052 0.0001329 -0.0002065 0.0000038 -0.0000613 0.0000957 -0.0000961 -0.0000147 0.0000290 0.0000458 -0.0000784 0.0000054 -0.0000368 0.0000562 0.0001375 0.0000745 0.0000917 0.0000376 0.0002033 0.0000981 0.0001235 0.0000463 0.0000750 0.0000223 0.0000996 0.0000854 -0.0001797 0.0000830 -0.0001521 0.0000254 -0.0000805 0.0000790 -0.0000450 0.0000604 0.0000894 -0.0000024 0.0001434 0.0000361 -0.0000449 0.0001935 0.0000313 0.0000159 0.0000360 0.0000445 -0.0000477 0.0000671 -0.0001057 0.0000634 -0.0000461 0.0000465 -0.0000410 0.0001152 -0.0001630 0.0000536 -0.0000522 0.0001823 -0.0002009 0.0001140 -0.0001428 -0.0000173 0.0001414 -0.0002532 0.0001518 0.0000446 -0.0000852 0.0000236 -0.0000562 -0.0000065 -0.0000538 0.0000385 0.0000130 0.0000268 0.0000250 -0.0000699 0.0001034 0.0000857 -0.0001081 0.0000107 0.0000782 0.0000536 -0.0000747 -0.0001276 0.0000841 0.0001187 -0.0001856 0.0000923 -0.0000858 0.0000485 0.0000278 0.0005112 -0.0002979 0.0000562 0.0001022 0.0002320 -0.0002619 -0.0006965 0.0005245 0.0001379 -0.0000726 -0.0000629 -0.0003758 0.0000509 0.0000015 0.0000659 -0.0001540 -0.0000137 0.0002188 -0.0000363 0.0002963 0.0000171 0.0001354 -0.0022539 0.0019044 -0.0000251 0.0000580 -0.0001023 -0.0000514 0.0000253 -0.0000267 -0.0000253 0.0000686 0.0003538 -0.0000658
0.0000001 0.0001045 -0.0000226 0.0000958 0.0000075 0.0001542 0.0000003 0.0000536 0.0000194 0.0000653 0.0000723 -0.0000061 0.0000278 0.0000820 0.0000112 0.0000835 -0.0000019 0.0000871 0.0000324 -0.0000597 0.0000024 0.0000545 0.0000343 -0.0000517 0.0000302 -0.0000771 -0.0000081 0.0001604 0.0000201 0.0001101 0.0000307 0.0001204 0.0000366 0.0000874 0.0000610 0.0000736 0.0000660 -0.0000114 0.0002004 -0.0002271 0.0000064 0.0001069 0.0000304 0.0001100 0.0000045 0.0003273 0.0000185 0.0001077 0.0000581 0.0001813 -0.0000102 0.0001058 0.0001237 0.0002156 0.0000013 0.0000667 0.0000699 0.0002663 0.0000552 -0.0000065 -0.0000735 0.0000851 0.0000717 -0.0000547 0.0000281 -0.0000391 0.0000022 0.0000066 0.0000160 0.0000078 0.0000492 -0.0000150 -0.0000002 0.0000400 0.0000251 0.0000607 0.0000591 -0.0000603 -0.0000671 0.0000348 -0.0000517 0.0000464 0.0002695 -0.0000648 -0.0000142 -0.0000282 -0.0000713 0.0000915 0.0000718 -0.0000643 -0.0000201 0.0000124 -0.0002693 0.0002502 0.0001552 -0.0002850 -0.0000017 -0.0000498 -0.0000700 -0.0000510 -0.0000348 -0.0000085 0.0001140 -0.0000952 0.0000013 -0.0000304 0.0000402 0.0001701 0.0000876 0.0001143 0.0000648 0.0001494 0.0001111 0.0001110 -0.0000105 0.0001821 0.0000169 0.0000753 0.0000676 -0.0001955 0.0000581 -0.0001903 -0.0000088 -0.0000243 0.0000867 -0.0001628 0.0000525 0.0000609 -0.0000219 0.0001063 0.0000303 -0.0000365 0.0004211 -0.0000651 0.0000172 -0.0000854 -0.0002087 0.0000111 0.0000856 -0.0002091 0.0000297 -0.0000723 0.0000129 -0.0000892 0.0001707 -0.0002976 0.0000592 -0.0001794 0.0000644 -0.0002382 0.0000943 -0.0002324 -0.0002499 0.0005836 -0.0002482 -0.0000184 0.0000908 -0.0001277 0.0000232 -0.0000922 -0.0000290 -0.0000049 0.0002464 -0.0001494 0.0000224 -0.0000965 -0.0000666 0.0000108 -0.0000227 -0.0000584 0.0000172 0.0000134 0.0000494 -0.0001669 -0.0001007 -0.0000024 0.0001174 -0.0003932 0.0000487 -0.0001319 0.0000223 -0.0001132 0.0003865 -0.0004097 0.0002075 -0.0002138 0.0002461 -0.0003043 -0.0001811 0.0003238 0.0002209 -0.0002777 -0.0011062 0.0004767 0.0000919 -0.0001436 0.0002902 -0.0002696 -0.0000045 0.0001410 0.0000228 0.0002185 0.0000270 0.0000453 -0.0024093 0.0017726 0.0000521 -0.0000024 -0.0003149 0.0001823 0.0002120 -0.0000488 -0.0000034 0.0000831 0.0002935 0.0000982
-0.0000009 0.0001168 -0.0000197 0.0001102 -0.0000010 0.0001603 -0.0000317 0.0000489 0.0000165 0.0000701 0.0000394 0.0000801 0.0000302 0.0000966 0.0000198 0.0001135 0.0000143 0.0001368 0.0000215 -0.0000377 0.0000308 0.0000318 0.0000368 -0.0000441 -0.0000331 0.0000184 0.0000044 0.0002577 0.0000152 0.0002602 0.0000198 0.0001067 0.0000314 0.0001309 0.0000286 0.0001349 0.0000585 0.0001096 0.0001854 -0.0001623 0.0000144 0.0001938 0.0000325 0.0000952 0.0000996 0.0002311 0.0000143 0.0001550 0.0000315 0.0002461 0.0000035 0.0001059 0.0001225 0.0002609 -0.0000092 0.0001435 0.0000505 0.0003456 0.0000158 0.0001573 -0.0000548 0.0001450 0.0000610 0.0000028 0.0000171 0.0000444 0.0000192 0.0001853 -0.0000091 0.0001154 0.0000468 0.0002328 0.0000160 0.0001339 0.0000303 0.0001881 0.0000336 0.0000618 -0.0000408 0.0001265 -0.0001491 0.0002374 -0.0000142 0.0002920 -0.0000317 0.0001958 -0.0000833 0.0002390 -0.0000326 0.0001678 -0.0000604 0.0001624 0.0002256 -0.0000658 0.0000536 -0.0000617 -0.0001342 0.0001064 -0.0000916 0.0001203 -0.0000678 0.0001875 -0.0000164 0.0001154 -0.0000248 0.0001264 0.0000436 0.0002218 0.0000799 0.0002319 0.0000461 0.0002143 0.0000845 0.0001878 -0.0000584 0.0001730 0.0000400 0.0001177 0.0001226 -0.0001638 0.0000475 -0.0000914 0.0001612 -0.0000580 0.0001187 -0.0002452 0.0000436 0.0000634 -0.0000250 0.0000816 0.0000057 0.0000311 0.0000538 0.0002491 -0.0000254 -0.0001108 -0.0000223 -0.0000182 0.0001066 -0.0002504 -0.0000069 -0.0000537 0.0000151 -0.0001111 0.0000741 -0.0002398 0.0000517 -0.0002942 -0.0000082 -0.0002272 0.0000290 -0.0002405 0.0003835 -0.0002341 0.0001676 -0.0005244 0.0000409 -0.0000498 0.0000366 -0.0000892 0.0000257 -0.0000413 0.0000317 0.0000157 0.0000404 -0.0001796 0.0000067 -0.0000944 0.0000744 -0.0000286 0.0000123 -0.0000338 0.0000905 -0.0002339 0.0000390 -0.0001708 0.0000715 -0.0003994 0.0000213 -0.0001409 0.0000324 -0.0001859 0.0000896 -0.0001965 -0.0000982 0.0000425 0.0000742 -0.0001135 0.0003816 -0.0001030 0.0002759 -0.0003067 -0.0007248 0.0002943 0.0002909 -0.0003100 -0.0001551 0.0001737 -0.0000164 0.0000561 0.0000094 0.0000777 0.0000492 -0.0000459 0.0005259 -0.0000396 0.0000258 -0.0000191 -0.0001642 0.0002458 0.0002342 -0.0001248 0.0000525 0.0000015 -0.0002924 0.0004537
0.0000090 -0.0000216 -0.0000043 0.0000168 0.0000265 -0.0000329 -0.0000254 -0.0000756 0.0000387 0.0000108 0.0000461 -0.0001073 0.0000362 -0.0000844 0.0000528 -0.0000492 0.0000247 0.0000403 0.0000064 -0.0000984 0.0000561 -0.0001279 0.0000541 -0.0001407 -0.0000084 -0.0000714 0.0000400 0.0001863 0.0000551 0.0000227 -0.0000005 0.0000014 0.0000389 0.0000104 0.0000473 -0.0000341 0.0000631 -0.0000250 0.0000668 -0.0002641 0.0000207 0.0000252 0.0000174 -0.0000567 0.0002237 -0.0000816 0.0000219 0.0000905 0.0000363 0.0001314 0.0000368 -0.0000204 0.0001149 0.0002270 -0.0000402 0.0000591 0.0000567 0.0002842 -0.0000048 0.0000706 -0.0000567 0.0000985 0.0000261 -0.0000152 0.0000785 -0.0000475 0.0000107 0.0001342 -0.0000269 0.0000623 0.0000651 0.0003585 -0.0000047 0.0001519 0.0000240 0.0002242 -0.0000096 0.0001247 -0.0001011 0.0002356 -0.0000093 0.0001579 -0.0003029 0.0004716 -0.0000162 0.0002121 -0.0000524 0.0002623 -0.0000601 0.0002519 -0.0000713 0.0002084 -0.0000171 0.0000883 0.0001952 -0.0001313 -0.0001027 0.0001172 -0.0000685 0.0001829 -0.0001017 0.0003043 -0.0000110 0.0002151 -0.0000768 0.0002211 0.0000512 0.0002387 0.0000803 0.0002996 0.0000443 0.0002533 0.0000829 0.0002429 0.0001623 0.0001082 0.0000622 0.0001801 0.0001176 -0.0000963 0.0000743 -0.0000322 0.0003151 -0.0001817 -0.0000516 0.0000495 0.0000357 0.0001348 0.0000028 0.0001454 -0.0000096 0.0001039 0.0009344 -0.0007147 -0.0000610 0.0000251 0.0000994 0.0000129 0.0001010 -0.0001512 0.0000080 0.0000245 0.0000144 -0.0000364 0.0000029 -0.0000886 0.0002594 -0.0003604 -0.0000300 -0.0001012 0.0000497 -0.0001804 -0.0001140 -0.0002006 -0.0003470 0.0001024 -0.0000066 0.0000813 0.0000654 -0.0000376 0.0000224 0.0000324 -0.0000314 0.0001988 0.0000279 -0.0000485 0.0000182 0.0000247 0.0000648 -0.0000215 0.0000185 0.0000671 0.0000429 -0.0000935 0.0000156 -0.0000614 0.0000727 -0.0002595 0.0000093 -0.0000604 0.0000630 -0.0000978 0.0002231 -0.0001736 -0.0001930 0.0002778 -0.0000661 0.0000465 0.0001082 0.0000716 0.0000765 -0.0000228 0.0001976 -0.0002786 0.0001300 -0.0001229 -0.0001755 0.0000124 -0.0000289 0.0001208 0.0000668 0.0001007 0.0000268 0.0000070 0.0003423 0.0005437 0.0000048 -0.0000085 0.0001278 0.0000744 -0.0002940 0.0002278 -0.0000706 0.0001102 -0.0000018 0.0000118
0.0000152 -0.0000753 0.0000382 -0.0000466 0.0000617 -0.0001255 -0.0000113 -0.0001252 0.0000444 -0.0000208 0.0000758 -0.0002423 0.0000311 -0.0001846 0.0000708 -0.0001504 0.0000448 -0.0000501 0.0000137 -0.0001407 0.0000610 -0.0001714 0.0000458 -0.0001781 0.0000778 -0.0002262 0.0000681 0.0001356 0.0000733 -0.0001323 -0.0000045 -0.0000037 0.0000542 -0.0000824 0.0000536 -0.0001377 0.0000719 -0.0001145 0.0000810 -0.0004223 0.0000268 -0.0001016 0.0000569 -0.0001937 0.0000500 -0.0000849 0.0000197 0.0000089 0.0000680 -0.0000119 0.0000445 -0.0000816 0.0001082 0.0001499 -0.0000315 -0.0000720 0.0000608 0.0001675 -0.0000105 -0.0001164 -0.0000700 0.0000134 0.0000301 -0.0001387 0.0000410 -0.0001065 0.0000222 -0.0000477 0.0000210 -0.0001456 0.0000563 -0.0000234 0.0000078 -0.0000331 0.0000153 0.0000449 -0.0000394 -0.0000322 -0.0001385 0.0001510 -0.0000155 0.0000153 -0.0001013 0.0001834 0.0000101 -0.0001039 -0.0000323 0.0000181 -0.0000084 -0.0000190 -0.0000895 0.0000433 0.0000886 -0.0001583 0.0002136 -0.0002848 0.0000253 -0.0000990 0.0001018 -0.0001650 -0.0000878 0.0000621 -0.0000008 0.0001496 -0.0000768 0.0000693 0.0000432 0.0001699 0.0000953 0.0002003 0.0000589 0.0001130 0.0001140 0.0001602 0.0004268 -0.0000650 0.0000558 0.0001366 0.0001501 -0.0001893 0.0001162 -0.0001914 0.0004442 -0.0003284 0.0000963 0.0000112 0.0000389 0.0001404 0.0000080 0.0001614 -0.0000006 0.0000861 0.0009198 -0.0008604 -0.0000628 0.0000523 -0.0000207 -0.0001462 0.0000436 -0.0001131 0.0000149 0.0000164 0.0000488 -0.0000695 0.0000446 -0.0000750 0.0003090 -0.0003979 -0.0000270 -0.0001158 0.0000132 -0.0001100 -0.0003526 0.0001416 -0.0006278 0.0003771 0.0000087 0.0000915 0.0000804 -0.0000476 -0.0000318 0.0001103 0.0000220 0.0001556 0.0000107 0.0000116 -0.0000180 0.0001147 0.0000797 -0.0001764 -0.0000175 0.0001297 -0.0000300 -0.0000226 -0.0000559 -0.0000165 0.0000983 -0.0002294 0.0000566 -0.0000651 0.0000748 -0.0000753 0.0002510 -0.0000856 0.0002567 -0.0000330 -0.0002730 0.0001642 -0.0003650 0.0004683 0.0001713 -0.0000172 -0.0000989 0.0002095 0.0002456 -0.0002153 -0.0002225 -0.0000936 0.0000037 0.0001290 0.0000843 0.0002363 0.0000147 0.0000457 -0.0004367 0.0007891 0.0000439 0.0000066 0.0000414 0.0001706 -0.0004702 0.0004521 -0.0000889 0.0001746 0.0003412 -0.0002494
0.0000099 -0.0000178 0.0000448 0.0000081 0.0000731 -0.0000452 -0.0000138 -0.0000991 0.0000231 0.0000073 0.0000479 -0.0001435 0.0000755 -0.0001805 0.0000559 -0.0000781 0.0000289 -0.0000643 0.0000195 -0.0000947 0.0000476 -0.0000973 0.0000431 -0.0001212 0.0000516 -0.0001780 0.0000458 0.0001815 0.0000343 0.0000277 0.0000047 0.0000536 0.0000526 -0.0000372 0.0000627 -0.0000579 0.0000748 -0.0000058 0.0000698 -0.0003917 0.0000265 0.0000093 0.0000575 -0.0001615 -0.0000013 0.0000265 0.0000172 0.0000530 0.0000651 -0.0000001 0.0000332 -0.0000413 0.0001030 0.0002034 -0.0000366 0.0000151 0.0000638 0.0002542 -0.0000354 0.0000276 -0.0000754 0.0001216 0.0000167 -0.0000372 0.0000288 0.0000338 0.0000351 0.0000915 -0.0000244 -0.0000030 0.0000541 -0.0000314 -0.0000002 0.0000407 0.0000058 0.0000781 -0.0000120 -0.0000359 -0.0000715 0.0001532 -0.0001181 0.0001102 0.0001199 0.0000872 0.0000110 -0.0001187 -0.0000341 -0.0000127 -0.0000941 0.0000625 -0.0001060 0.0000501 0.0003653 -0.0004254 0.0000277 0.0000181 0.0000711 -0.0001362 0.0001369 -0.0000927 -0.0000479 -0.0000839 -0.0000113 0.0001443 -0.0000496 0.0000023 0.0000440 0.0001520 0.0001032 0.0001402 0.0000275 0.0000524 0.0001051 0.0001111 0.0002051 -0.0001409 0.0000691 0.0000520 0.0001803 -0.0003202 0.0000527 -0.0002537 0.0002732 -0.0003065 0.0000412 -0.0001070 0.0000483 0.0000102 -0.0000015 0.0000196 0.0000071 0.0000310 0.0012949 -0.0010428 -0.0000169 -0.0002031 -0.0000145 -0.0003071 0.0000742 -0.0003585 -0.0000041 -0.0000719 -0.0000005 -0.0001659 0.0000641 -0.0002133 0.0000710 -0.0003798 0.0002336 -0.0004034 -0.0000457 -0.0002001 -0.0005844 0.0003170 -0.0001459 0.0000439 0.0000501 -0.0000283 0.0000432 -0.0001126 -0.0000113 -0.0000056 0.0000074 0.0000265 0.0000323 -0.0001671 0.0000318 -0.0001152 0.0001426 -0.0003024 -0.0000105 -0.0000395 -0.0000181 -0.0001698 -0.0000034 -0.0001644 0.0001096 -0.0003302 0.0000928 -0.0002168 0.0001148 -0.0002738 0.0003392 -0.0003671 0.0002447 -0.0001740 -0.0001982 0.0000176 0.0001548 -0.0000707 0.0002054 -0.0002157 -0.0005516 0.0002773 0.0001584 -0.0002529 -0.0002960 0.0001905 -0.0000628 0.0000487 0.0000316 0.0000809 -0.0000218 0.0000253 -0.0001925 0.0003561 0.0000849 -0.0000539 0.0000323 0.0000870 -0.0000075 0.0000339 0.0000047 0.0000392 0.0000804 -0.0000869
0.0000106 -0.0000863 0.0000342 -0.0000173 0.0000805 -0.0001466 -0.0000002 -0.0001631 0.0000342 -0.0000327 0.0000439 -0.0001869 0.0000888 -0.0002512 0.0000471 -0.0000946 0.0000134 -0.0001492 0.0000070 -0.0000805 0.0001240 -0.0001891 0.0000794 -0.0001452 0.0000468 -0.0001323 0.0000280 0.0001418 0.0000475 0.0000196 0.0000114 0.0000485 0.0000546 -0.0000666 0.0000712 -0.0000561 0.0000846 0.0000541 0.0000453 -0.0003704 0.0000244 0.0000313 0.0000040 -0.0001430 0.0000553 -0.0000287 0.0000357 0.0000625 0.0000415 -0.0000012 0.0000431 -0.0000513 0.0001147 0.0002047 -0.0000410 0.0000472 0.0000535 0.0003221 -0.0000329 0.0001160 -0.0000886 0.0001877 -0.0000529 0.0000926 0.0000210 0.0001321 0.0000398 0.0001609 -0.0000481 0.0000790 0.0000538 0.0001681 0.0000040 0.0001334 0.0000156 0.0001494 0.0000376 -0.0000185 0.0000049 0.0002153 -0.0000525 0.0001214 0.0000310 0.0002910 -0.0000091 0.0000448 -0.0000029 0.0000759 -0.0001355 0.0002022 -0.0000861 0.0001401 -0.0001288 -0.0000004 0.0000708 0.0000628 -0.0000027 -0.0000665 0.0001241 -0.0000044 -0.0000617 0.0000460 0.0000033 0.0001655 -0.0000448 0.0000930 0.0000550 0.0001410 0.0001086 0.0002006 -0.0000250 0.0001367 0.0000631 0.0002170 -0.0000147 0.0000877 0.0000380 0.0001115 0.0001173 -0.0001910 0.0000229 -0.0000774 0.0002172 -0.0002666 0.0000713 -0.0001760 0.0000648 0.0000705 -0.0000213 0.0001243 0.0000017 0.0000689 0.0013870 -0.0005661 0.0000103 -0.0000866 0.0000667 -0.0001314 0.0000593 -0.0002388 -0.0000171 0.0000582 -0.0000178 -0.0000753 0.0000518 -0.0001345 0.0000472 -0.0002755 0.0002641 -0.0002841 0.0000074 -0.0001224 -0.0005022 0.0002669 0.0002161 -0.0002191 0.0000263 0.0000655 -0.0000310 -0.0000299 0.0000242 0.0000180 0.0000848 0.0000604 0.0000196 -0.0000266 0.0000539 -0.0000270 0.0001204 -0.0002931 0.0000040 0.0000697 0.0000316 -0.0000958 0.0000543 -0.0001574 0.0001891 -0.0003023 0.0000715 -0.0001274 0.0000748 -0.0000972 0.0003937 -0.0003118 0.0001953 -0.0000978 -0.0001346 0.0001581 0.0001930 -0.0001077 -0.0002281 0.0000874 0.0001829 -0.0001071 0.0002252 -0.0003527 -0.0003432 0.0003421 -0.0001376 0.0001108 0.0001365 -0.0000591 -0.0000257 0.0000514 0.0000244 -0.0001969 0.0000732 -0.0000673 0.0002191 0.0000324 0.0002185 -0.0002496 0.0000250 -0.0000370 0.0003534 -0.0003520
0.0000236 -0.0002061 0.0000465 -0.0001044 0.0000774 -0.0003006 0.0000067 -0.0002054 0.0000551 -0.0000850 0.0000945 -0.0004065 0.0001100 -0.0003781 0.0000613 -0.0002287 0.0000514 -0.0003268 0.0000232 -0.0001257 0.0001527 -0.0003083 0.0000780 -0.0001877 0.0000938 -0.0001953 0.0000461 0.0000871 0.0000683 -0.0001791 0.0000199 0.0000402 0.0000695 -0.0002096 0.0000707 -0.0002134 0.0001027 -0.0000510 0.0000786 -0.0005410 0.0000381 -0.0001551 0.0000276 -0.0002710 0.0000412 -0.0000774 0.0000524 -0.0000197 0.0000356 -0.0000763 0.0000677 -0.0001351 0.0001185 0.0001211 -0.0000191 -0.0000987 0.0000610 0.0001975 -0.0000082 -0.0001012 -0.0000687 0.0000577 0.0000254 -0.0001011 0.0000475 -0.0000302 0.0000411 -0.0000777 0.0000069 -0.0001574 0.0000456 0.0000465 0.0000007 0.0000315 0.0000387 0.0000336 0.0000645 -0.0001654 -0.0000330 0.0001956 -0.0000910 0.0000141 0.0000737 0.0001306 0.0000213 0.0000060 0.0000042 0.0000057 0.0000067 0.0000010 -0.0000518 0.0000738 -0.0004746 0.0001596 -0.0000675 -0.0000070 0.0001321 -0.0002321 0.0001215 -0.0001601 -0.0000386 0.0000151 0.0000094 0.0000940 -0.0000432 0.0000848 0.0000239 0.0001307 0.0001203 0.0001995 -0.0000295 0.0001169 0.0000548 0.0002446 0.0004352 -0.0001901 -0.0000006 0.0001634 0.0001247 -0.0001493 0.0000265 -0.0000054 0.0004822 -0.0003641 -0.0002433 0.0001408 0.0000684 0.0001149 -0.0000278 0.0001763 -0.0000299 0.0000625 0.0003354 0.0001180 -0.0000221 0.0000664 -0.0002030 0.0001866 -0.0000602 -0.0000631 -0.0000518 0.0001470 0.0000094 -0.0000420 0.0000582 -0.0000596 0.0002035 -0.0003739 0.0000732 -0.0001793 0.0000226 -0.0000689 0.0003265 -0.0004016 -0.0000216 0.0000370 0.0000195 0.0001082 -0.0000609 0.0000272 0.0000018 0.0000616 0.0001410 0.0000529 0.0000165 0.0000807 0.0000262 0.0000740 0.0001591 -0.0003097 0.0000096 0.0001496 0.0000443 -0.0000568 -0.0000827 0.0000244 0.0002484 -0.0002997 0.0000682 -0.0000465 0.0000430 0.0000245 0.0002416 -0.0000764 0.0004869 -0.0004630 -0.0001307 0.0001846 -0.0005818 0.0005908 -0.0003325 0.0002838 0.0008032 -0.0005357 0.0000381 -0.0001527 0.0001641 -0.0000309 -0.0000686 0.0001552 0.0000914 0.0001407 -0.0000544 0.0001324 0.0001380 -0.0000154 0.0000135 -0.0000038 0.0002031 0.0002056 0.0002477 -0.0001257 -0.0000769 0.0000941 0.0001566 0.0000550
0.0000082 -0.0000502 0.0000572 -0.0000195 0.0000518 -0.0001155 -0.0000233 -0.0000517 0.0000408 -0.0000311 0.0000820 -0.0002206 0.0001172 -0.0002433 0.0000521 -0.0001123 0.0000620 -0.0002633 0.0000217 -0.0000410 0.0000643 -0.0001196 0.0000473 -0.0000692 0.0000314 -0.0000692 0.0000293 0.0001916 0.0000651 -0.0000284 0.0000309 0.0001708 0.0000883 -0.0001420 0.0000635 -0.0001034 0.0000925 0.0000808 0.0001113 -0.0003758 0.0000433 -0.0000229 0.0000682 -0.0002058 0.0001680 -0.0000351 0.0000522 0.0000752 0.0000129 0.0000300 0.0000578 -0.0000559 0.0001056 0.0002270 -0.0000231 0.0000334 0.0000528 0.0002724 -0.0000100 0.0000416 -0.0000772 0.0001679 0.0000475 -0.0000011 0.0000214 0.0000910 0.0000431 0.0000942 0.0000268 -0.0000098 0.0000375 0.0000957 -0.0000152 0.0001524 0.0000164 0.0001089 0.0000468 -0.0000474 -0.0000893 0.0003067 -0.0000386 0.0000873 0.0000837 0.0001975 0.0000269 0.0000792 -0.0000472 0.0000781 0.0000429 0.0000316 -0.0000353 0.0000818 -0.0000968 0.0000805 -0.0000224 0.0000650 0.0002689 -0.0003254 0.0000998 -0.0001681 -0.0000086 -0.0000734 0.0000025 0.0000660 -0.0000431 0.0000316 -0.0000003 0.0001517 0.0001268 0.0001353 -0.0000333 0.0000870 0.0000767 0.0001870 0.0003239 -0.0001715 -0.0000050 0.0001350 0.0001989 -0.0002566 -0.0000140 -0.0000758 0.0002917 -0.0002553 -0.0005022 0.0002667 0.0000606 0.0000462 -0.0000222 0.0000607 -0.0000414 0.0000069 -0.0017193 0.0012140 0.0000262 -0.0001003 -0.0002332 0.0000532 0.0000003 -0.0001853 -0.0000694 0.0000925 -0.0000130 -0.0000898 0.0000618 -0.0001278 0.0001534 -0.0003914 -0.0000646 -0.0002187 -0.0000002 -0.0001194 -0.0001433 0.0000880 -0.0006560 0.0005416 0.0000266 0.0000264 -0.0000759 -0.0000067 -0.0000572 0.0000664 0.0000640 -0.0000042 0.0000385 -0.0000682 0.0000054 -0.0000489 0.0002502 -0.0003252 0.0000659 -0.0000036 0.0000998 -0.0001985 -0.0001305 0.0000555 0.0001818 -0.0002391 0.0000830 -0.0001441 0.0000813 -0.0001445 0.0002475 -0.0001945 0.0002639 -0.0004152 -0.0000494 0.0000026 -0.0003376 0.0003113 -0.0000131 -0.0000630 0.0004400 -0.0003459 -0.0001096 0.0001062 0.0005073 -0.0003538 0.0000251 0.0000408 0.0000296 0.0001172 -0.0000134 0.0000685 0.0010874 -0.0011795 0.0000136 -0.0000469 -0.0004821 0.0004874 -0.0001527 0.0002481 -0.0000265 0.0000743 -0.0002063 0.0002527
-0.0000036 0.0000230 0.0000556 -0.0000042 0.0000174 -0.0000606 -0.0000015 -0.0000115 0.0000429 -0.0000025 0.0000550 -0.0000886 0.0001249 -0.0001977 0.0000469 -0.0000413 0.0000777 -0.0002009 0.0000271 0.0000009 0.0000736 -0.0000915 0.0000549 -0.0000157 0.0000427 -0.0000745 0.0000220 0.0002600 0.0000755 0.0000588 0.0000390 0.0002448 0.0001027 -0.0000939 0.0000559 -0.0000112 0.0000878 0.0001635 0.0001554 -0.0002808 0.0000382 0.0000786 0.0000851 -0.0001275 0.0002203 -0.0000650 0.0000497 0.0001517 0.0000101 0.0001026 0.0000293 0.0000133 0.0001010 0.0002964 -0.0000230 0.0001429 0.0000268 0.0003779 -0.0000113 0.0001725 -0.0000630 0.0002328 0.0000260 0.0001023 -0.0000342 0.0002113 0.0000303 0.0002592 0.0000320 0.0001026 0.0000239 0.0003953 -0.0000409 0.0003162 0.0000023 0.0002461 -0.0000188 0.0001510 -0.0001131 0.0004375 0.0000674 0.0001202 -0.0000892 0.0003379 -0.0000311 0.0003798 -0.0000741 0.0002864 -0.0000710 0.0002843 -0.0000678 0.0002331 0.0000191 0.0002032 0.0000943 0.0001721 0.0001968 -0.0001917 -0.0000576 0.0001006 -0.0000581 0.0001678 0.0000376 0.0001332 -0.0000332 0.0001583 0.0000227 0.0001986 0.0001214 0.0002182 -0.0000518 0.0002441 0.0000642 0.0002926 0.0002128 0.0000484 0.0000076 0.0002096 0.0002031 -0.0001605 0.0000042 -0.0000113 0.0003741 -0.0002709 -0.0000170 -0.0000019 0.0000456 0.0001969 -0.0000129 0.0002124 -0.0000121 0.0000675 -0.0013005 0.0009960 0.0000609 0.0000527 -0.0004930 0.0004413 0.0000717 -0.0000088 -0.0000939 0.0002413 -0.0000151 0.0000649 0.0000389 0.0000673 -0.0002093 0.0002035 0.0000592 -0.0000975 -0.0000486 0.0000701 -0.0002910 0.0005440 -0.0002265 0.0003100 -0.0000500 0.0001421 -0.0000630 0.0000818 -0.0000037 0.0001080 -0.0000307 0.0001734 0.0000392 0.0000599 -0.0000021 0.0001487 0.0003354 -0.0003581 0.0000633 0.0001306 0.0000920 -0.0000696 -0.0000551 0.0000322 0.0001375 -0.0001127 0.0001255 -0.0001132 0.0000577 -0.0000021 0.0001676 -0.0000397 -0.0002595 0.0002640 -0.0000197 0.0001094 -0.0004701 0.0004790 0.0000136 -0.0001598 0.0004047 -0.0001613 0.0001005 -0.0000430 0.0000703 -0.0001526 0.0000076 0.0000787 0.0000781 0.0000544 0.0000301 -0.0000061 0.0004896 -0.0011197 -0.0000264 -0.0000425 -0.0007679 0.0006277 -0.0001855 0.0002246 0.0000687 -0.0000220 0.0003500 -0.0003468
0.0000083 -0.0000201 0.0000048 0.0000024 0.0000236 -0.0001276 0.0000168 -0.0000206 0.0000464 0.0000208 0.0000678 -0.0001713 0.0001257 -0.0002232 0.0000637 -0.0000936 0.0000865 -0.0001902 0.0000318 -0.0000189 0.0000628 -0.0001289 0.0000644 -0.0000349 0.0000114 -0.0000575 0.0000445 0.0002805 0.0000834 -0.0000480 0.0000337 0.0002824 0.0001087 -0.0001239 0.0000623 -0.0000730 0.0000826 0.0000939 0.0000714 -0.0002915 0.0000362 0.0000028 0.0000954 -0.0001495 0.0001907 -0.0000867 0.0000513 0.0001298 0.0000076 0.0001071 0.0000069 0.0000330 0.0000962 0.0002634 -0.0000356 0.0001250 0.0000491 0.0002904 0.0000207 0.0000326 -0.0000880 0.0001828 0.0001059 -0.0000727 -0.0000091 0.0000418 0.0000544 0.0000898 -0.0000184 -0.0000419 0.0000194 0.0003050 -0.0000532 0.0002420 0.0000273 0.0001757 -0.0000489 0.0000860 -0.0001275 0.0004105 -0.0000119 0.0000276 0.0000021 0.0001301 -0.0000858 0.0004262 -0.0000801 0.0002577 -0.0001687 0.0002735 -0.0000829 0.0002124 0.0001283 -0.0001484 0.0000919 0.0000759 0.0000368 -0.0000441 -0.0004023 0.0004334 -0.0000804 0.0002530 0.0000565 0.0001284 -0.0000519 0.0002269 0.0000212 0.0002240 0.0001134 0.0002738 -0.0000622 0.0003129 0.0000466 0.0003624 0.0003196 -0.0000516 -0.0000108 0.0002595 0.0001513 -0.0000697 0.0000585 0.0000065 0.0004174 -0.0003266 0.0000846 -0.0000099 0.0000395 0.0003037 -0.0000417 0.0003608 0.0000039 0.0001064 0.0006572 0.0000407 0.0000188 0.0002367 -0.0001387 0.0002879 0.0000697 0.0000995 -0.0001427 0.0003677 -0.0000267 0.0001463 -0.0000255 0.0002269 -0.0001774 0.0002930 0.0001181 -0.0000153 0.0000236 0.0000851 -0.0001443 0.0004689 0.0003604 -0.0000098 -0.0000533 0.0001926 0.0000433 0.0001058 0.0000223 0.0001118 -0.0000165 0.0002358 0.0000170 0.0001968 0.0000064 0.0002533 0.0000114 -0.0002315 0.0000729 0.0002241 0.0000201 0.0000978 -0.0000362 0.0001152 0.0002613 -0.0001777 0.0000945 0.0000034 0.0000392 0.0001440 0.0000291 0.0001636 -0.0000425 0.0002048 -0.0000810 0.0002925 -0.0006339 0.0008397 -0.0000023 0.0000565 0.0000880 0.0000148 -0.0001782 0.0002127 -0.0002627 0.0001873 0.0000173 0.0001830 0.0001530 0.0003471 0.0000027 0.0000377 -0.0007190 0.0001732 -0.0000715 0.0000465 -0.0001935 0.0003830 -0.0000629 0.0001915 -0.0000201 0.0001285 0.0002276 -0.0000457
-0.0000009 0.0001995 -0.0000095 0.0001579 0.0000293 0.0001314 -0.0000310 0.0001974 0.0000205 0.0001159 0.0000440 0.0000885 0.0001126 0.0000072 0.0000537 0.0000805 0.0000619 0.0000245 0.0000438 0.0000374 0.0000433 0.0000091 0.0000494 0.0000697 0.0000308 0.0000658 0.0000404 0.0003767 0.0000760 0.0001434 0.0000142 0.0003962 0.0000959 -0.0000135 0.0000651 0.0000418 0.0000486 0.0002133 -0.0000848 0.0000520 0.0000383 0.0000782 0.0000880 -0.0000634 0.0000752 0.0001344 0.0000381 0.0001733 -0.0000152 0.0001834 0.0000055 0.0001412 0.0000862 0.0002899 -0.0000754 0.0002095 0.0000394 0.0002862 0.0000219 0.0000360 -0.0001167 0.0002116 0.0000817 -0.0000900 0.0000340 -0.0000370 0.0000904 0.0000764 -0.0000658 -0.0000683 0.0000049 0.0001055 -0.0000347 0.0001697 0.0000344 0.0001255 -0.0000881 0.0000415 -0.0001367 0.0004104 -0.0000777 0.0000093 -0.0000893 0.0002546 -0.0001179 0.0003067 -0.0000749 0.0001741 -0.0001243 0.0001417 -0.0000788 0.0001253 0.0000663 -0.0002295 -0.0000632 0.0000573 -0.0001270 0.0000396 0.0000594 0.0000713 -0.0000604 0.0001399 -0.0000383 0.0001719 -0.0000615 0.0001708 0.0000177 0.0002146 0.0001237 0.0002301 -0.0000198 0.0002377 0.0000352 0.0003308 0.0002509 -0.0000030 -0.0000394 0.0002475 0.0001397 -0.0001056 0.0000018 -0.0000253 0.0000085 -0.0001641 -0.0003199 0.0001905 0.0000341 0.0002391 -0.0000621 0.0002711 0.0000059 0.0000993 -0.0001895 0.0009894 -0.0000397 0.0001567 0.0005701 -0.0004801 0.0000972 -0.0000512 -0.0001253 0.0002831 0.0000062 -0.0000052 -0.0000333 0.0001063 0.0000269 -0.0000177 -0.0000086 0.0000701 0.0001064 -0.0000676 -0.0001904 0.0000284 0.0002723 -0.0001729 -0.0000301 0.0001183 0.0001343 -0.0000770 -0.0000071 0.0000875 0.0000782 0.0000586 0.0000090 0.0000510 0.0000522 0.0000517 -0.0001509 -0.0000154 0.0001653 0.0000314 0.0000488 -0.0000191 -0.0000208 0.0000887 0.0001514 -0.0001349 0.0000228 0.0000064 0.0000650 0.0000259 -0.0002846 0.0003407 0.0000020 0.0000655 -0.0003812 0.0003448 0.0000167 0.0003227 0.0002231 -0.0000687 -0.0007502 0.0006844 0.0002248 0.0000071 0.0001031 0.0000326 0.0000474 0.0001658 0.0001358 0.0003294 0.0000319 0.0000592 0.0013025 -0.0011409 -0.0000644 0.0000772 0.0000063 0.0002696 -0.0002681 0.0004098 -0.0000519 0.0001852 -0.0000078 0.0002873
-0.0000162 0.0002954 0.0000156 0.0001845 0.0000530 0.0002070 -0.0000549 0.0002997 0.0000112 0.0001764 0.0000290 0.0002381 0.0001086 0.0001059 0.0000573 0.0001870 0.0000844 0.0001250 0.0000333 0.0000576 0.0000968 0.0000354 0.0000448 0.0001148 0.0000827 0.0000687 0.0000418 0.0003978 0.0000657 0.0002793 0.0000106 0.0004457 0.0000924 0.0000605 0.0000608 0.0001362 0.0000194 0.0002893 -0.0000971 0.0002155 0.0000362 0.0001835 0.0000728 0.0000307 0.0001292 0.0001631 0.0000150 0.0002185 -0.0000123 0.0002395 -0.0000091 0.0001948 0.0000755 0.0003688 -0.0000971 0.0003141 0.0000209 0.0004010 -0.0000400 0.0002298 -0.0001031 0.0002883 -0.0000027 0.0000725 -0.0000184 0.0000928 0.0000666 0.0002876 -0.0000526 0.0000158 -0.0000083 0.0004355 -0.0000486 0.0003264 0.0000071 0.0002989 -0.0001037 0.0001958 -0.0001858 0.0005950 -0.0001241 0.0001998 -0.0000738 0.0004078 -0.0001676 0.0005404 -0.0000705 0.0003521 -0.0000996 0.0003283 -0.0000901 0.0002756 -0.0004036 0.0002370 -0.0000011 0.0001915 -0.0001021 0.0000976 0.0003090 0.0000341 -0.0000788 0.0003063 -0.0000467 0.0002974 -0.0000577 0.0002801 0.0000196 0.0002593 0.0001288 0.0002502 -0.0000315 0.0002785 0.0000419 0.0003368 0.0001224 0.0001584 -0.0000190 0.0002642 0.0001642 -0.0001001 -0.0000088 -0.0000078 -0.0000539 -0.0001406 -0.0007636 0.0004270 0.0000092 0.0002143 -0.0000511 0.0001828 -0.0000057 0.0001468 0.0002172 0.0001767 -0.0000195 0.0000190 0.0000586 -0.0001261 0.0001512 -0.0001382 -0.0000811 0.0001919 -0.0000392 0.0000051 -0.0000033 0.0000676 0.0000272 0.0000055 -0.0000949 0.0002947 0.0001587 -0.0000883 -0.0000318 0.0000452 0.0003042 -0.0002329 -0.0000086 0.0000729 0.0001075 -0.0001493 -0.0000065 0.0000817 -0.0000135 0.0000432 0.0000196 -0.0000680 0.0000706 -0.0000414 0.0001128 -0.0001148 0.0002058 -0.0000780 0.0000837 -0.0001221 0.0000085 -0.0000048 0.0000983 -0.0001161 0.0000722 -0.0000831 0.0000611 -0.0000482 -0.0002490 0.0002202 -0.0000288 -0.0000018 -0.0002377 0.0000481 0.0004691 -0.0000377 0.0000254 0.0000181 0.0001626 0.0002569 0.0006152 -0.0004539 0.0005560 -0.0003505 -0.0000540 0.0001928 -0.0000135 0.0001242 0.0000678 0.0000398 0.0008456 -0.0006383 -0.0000071 -0.0000055 0.0001527 0.0001931 -0.0002860 0.0003513 0.0000521 -0.0000366 -0.0000489 0.0001610
-0.0000013 0.0001066 0.0000511 0.0000343 0.0000769 -0.0000236 -0.0000307 0.0001745 0.0000172 0.0001482 0.0000680 0.0000207 0.0000634 -0.0000324 0.0000874 0.0000325 0.0000913 0.0000317 0.0000170 -0.0000183 0.0000627 0.0000262 0.0000747 -0.0000068 -0.0000244 0.0000352 0.0000633 0.0002639 0.0000649 0.0001021 0.0000070 0.0003585 0.0001165 -0.0000354 0.0000391 0.0000362 0.0000221 0.0001382 -0.0000222 0.0000317 0.0000300 0.0001099 0.0000357 -0.0000135 0.0001988 0.0000717 -0.0000070 0.0002030 -0.0000190 0.0002190 -0.0000176 0.0001612 0.0000716 0.0003646 -0.0001040 0.0003062 0.0000283 0.0003957 -0.0000561 0.0002675 -0.0001316 0.0002996 0.0000108 0.0000648 -0.0000393 0.0001056 0.0000610 0.0003220 -0.0000750 0.0000244 -0.0000031 0.0005779 -0.0000351 0.0003474 -0.0000222 0.0003686 -0.0001304 0.0002810 -0.0002091 0.0006797 -0.0000461 0.0000703 0.0001163 0.0003709 -0.0001640 0.0006321 -0.0000670 0.0003947 -0.0001158 0.0004132 -0.0000734 0.0003205 -0.0001836 0.0001154 0.0001915 0.0001293 0.0001276 -0.0000942 0.0000309 0.0001809 -0.0001121 0.0003924 -0.0000664 0.0003413 -0.0000582 0.0002998 0.0000238 0.0002629 0.0001043 0.0002832 -0.0000861 0.0003682 0.0000261 0.0003961 0.0000560 0.0001416 -0.0000252 0.0002901 0.0002230 -0.0000811 0.0000562 0.0000009 -0.0001178 0.0000512 -0.0002499 -0.0000432 -0.0000046 0.0002961 -0.0000417 0.0002659 -0.0000032 0.0001837 -0.0001113 0.0002220 0.0000135 0.0001043 -0.0002415 0.0003376 0.0001417 -0.0000395 -0.0001312 0.0002962 -0.0000590 0.0001286 0.0000451 0.0001468 0.0000976 0.0000979 -0.0002679 0.0004647 0.0001436 0.0000596 -0.0000514 0.0001427 0.0000041 0.0002642 -0.0000108 0.0001125 -0.0000425 0.0000126 -0.0000016 0.0001254 -0.0000500 0.0002287 -0.0000099 0.0000877 0.0000554 0.0001243 0.0001363 -0.0002836 0.0001449 0.0000539 0.0000903 0.0000087 -0.0000061 0.0000666 0.0002187 -0.0001586 0.0000522 0.0000214 0.0000358 0.0000760 0.0000409 0.0000933 0.0002707 -0.0000055 -0.0002289 0.0001814 0.0006851 -0.0001574 -0.0001772 0.0002061 -0.0000597 0.0002953 0.0004242 -0.0003054 0.0002710 -0.0001363 -0.0000780 0.0002229 -0.0000561 0.0002610 0.0000465 0.0000580 -0.0008808 0.0006369 -0.0000078 -0.0000584 0.0001789 0.0001189 -0.0004282 0.0003560 0.0000498 -0.0001086 -0.0000853 0.0000496
0.0000196 0.0000024 0.0000519 -0.0000293 0.0000501 -0.0001066 -0.0000406 0.0001500 0.0000076 0.0001148 0.0000626 -0.0000975 0.0000647 -0.0001459 0.0000871 -0.0000699 0.0000918 -0.0000453 0.0000219 -0.0000816 0.0000153 -0.0000127 0.0000590 -0.0000472 -0.0000995 0.0000206 0.0000760 0.0001471 0.0000668 -0.0000826 -0.0000121 0.0002581 0.0001088 -0.0001138 0.0000660 -0.0001118 0.0000104 0.0000112 0.0000152 -0.0001415 0.0000429 -0.0000582 -0.0000320 -0.0000728 0.0001677 0.0000103 -0.0000252 0.0001704 -0.0000422 0.0001584 -0.0000134 0.0001056 0.0000616 0.0002801 -0.0000717 0.0001722 0.0000429 0.0002806 -0.0000287 0.0001042 -0.0001537 0.0001799 0.0000340 -0.0000937 0.0000593 -0.0000841 0.0000694 0.0001512 -0.0000916 -0.0001410 -0.0000134 0.0001621 -0.0000157 0.0001350 -0.0000092 0.0001624 -0.0001704 0.0001362 -0.0001855 0.0005231 0.0000840 -0.0002905 0.0002871 0.0001118 -0.0001100 0.0002955 -0.0000743 0.0001655 -0.0000594 0.0001846 -0.0000534 0.0001322 0.0002217 -0.0003465 0.0001214 -0.0000448 0.0001431 -0.0002354 0.0001217 -0.0001053 -0.0001079 0.0001662 -0.0000111 0.0001643 -0.0000731 0.0001205 0.0000374 0.0001813 0.0000819 0.0002174 -0.0000818 0.0002676 0.0000227 0.0003719 0.0004425 -0.0001548 -0.0000136 0.0002475 0.0002063 -0.0001251 0.0000484 -0.0000084 0.0000659 -0.0000156 0.0001286 -0.0003240 0.0000031 0.0002998 -0.0000388 0.0002814 0.0000113 0.0001431 -0.0006578 0.0010086 -0.0000473 0.0001961 0.0001038 0.0000501 0.0000346 0.0000173 -0.0001404 0.0003093 -0.0000338 0.0001189 0.0000422 0.0001492 0.0000138 0.0001676 -0.0001729 0.0002840 0.0001565 0.0000376 0.0001292 -0.0001308 -0.0000757 0.0001441 -0.0000132 0.0000603 -0.0001613 0.0000835 -0.0000215 0.0001283 0.0001530 0.0001233 0.0000050 0.0001570 0.0000459 0.0001604 0.0001311 -0.0002568 0.0000270 0.0001931 0.0000897 0.0000689 0.0000137 0.0001033 0.0001334 -0.0000504 0.0000118 0.0000727 0.0000390 0.0000962 0.0002154 0.0000571 0.0004625 -0.0000027 -0.0005459 0.0005073 -0.0001687 0.0005395 -0.0001379 0.0001278 -0.0010662 0.0006825 0.0000011 0.0000208 0.0001659 -0.0000473 0.0000167 0.0001704 -0.0000192 0.0005390 -0.0000016 0.0001288 0.0004223 -0.0003011 -0.0000633 -0.0000493 -0.0004270 0.0003298 -0.0004925 0.0003859 -0.0000998 0.0000663 0.0000532 -0.0001139
0.0000098 0.0000874 0.0000437 0.0000629 0.0000933 -0.0000193 -0.0001030 0.0002537 -0.0000380 0.0001527 0.0000299 0.0000525 0.0000907 -0.0000431 0.0000490 0.0000349 0.0000844 -0.0000344 0.0000186 -0.0000444 0.0000665 -0.0000340 0.0000445 0.0000415 0.0000008 -0.0000226 0.0000428 0.0001034 0.0000747 -0.0000543 -0.0000307 0.0001595 0.0000692 -0.0000164 0.0000615 -0.0000316 -0.0000100 0.0001273 -0.0000646 0.0000109 0.0000472 -0.0000562 -0.0000293 -0.0000444 0.0002698 -0.0000970 -0.0000329 0.0002372 -0.0000380 0.0001539 -0.0000310 0.0000929 0.0000572 0.0002651 -0.0000556 0.0001281 0.0000796 0.0002610 -0.0000166 0.0000990 -0.0001134 0.0001601 0.0000489 -0.0001803 0.0000348 -0.0001371 0.0000364 0.0000050 -0.0000556 -0.0002132 -0.0000107 -0.0000074 -0.0000265 0.0000756 0.0000080 0.0000577 -0.0001344 0.0000750 -0.0001561 0.0003643 0.0000417 -0.0002960 0.0002310 0.0000052 -0.0000773 0.0000989 -0.0000748 0.0000843 -0.0000162 0.0001062 -0.0000285 0.0000793 0.0003589 -0.0006031 -0.0000645 -0.0000380 0.0002424 -0.0003282 0.0002025 -0.0001587 -0.0000762 0.0000320 0.0000058 0.0000470 -0.0000500 0.0000124 0.0000052 0.0001792 0.0000822 0.0001707 -0.0000838 0.0001784 0.0000353 0.0002901 0.0002455 0.0000573 -0.0000080 0.0001972 0.0001458 -0.0001678 0.0000735 -0.0000927 0.0002065 -0.0001451 -0.0001026 -0.0000665 0.0000118 0.0002093 -0.0000445 0.0001791 0.0000139 0.0000598 0.0007763 -0.0006138 -0.0000350 0.0000025 -0.0000489 -0.0000652 0.0000625 -0.0001710 -0.0000748 0.0001126 -0.0000741 0.0000460 -0.0000015 0.0000473 -0.0001067 0.0002099 0.0000791 -0.0000144 0.0001169 -0.0000104 -0.0000061 0.0000754 -0.0003557 0.0001380 0.0000095 -0.0000736 -0.0000716 -0.0001691 -0.0000174 -0.0000297 0.0001255 -0.0000223 0.0000488 -0.0000023 0.0000437 -0.0000299 0.0000518 -0.0001460 0.0000274 0.0001092 0.0000657 -0.0000546 0.0000474 -0.0000356 0.0002280 -0.0001752 0.0000244 -0.0000197 0.0000593 -0.0000330 0.0001090 -0.0000253 0.0002960 -0.0002372 -0.0000974 -0.0000351 -0.0002840 0.0006817 0.0001162 -0.0001007 0.0000887 -0.0005648 -0.0002769 0.0000259 0.0003690 -0.0003320 -0.0000158 0.0001653 0.0000173 0.0005221 -0.0000117 0.0000958 -0.0002049 -0.0005069 -0.0000637 -0.0000885 -0.0002910 0.0000336 -0.0000215 0.0000049 -0.0000935 -0.0000020 0.0001391 -0.0003791
0.0000011 0.0000843 0.0000683 0.0000524 0.0001498 -0.0000453 -0.0001531 0.0002775 -0.0000886 0.0001766 0.0000199 0.0001224 0.0000957 -0.0000287 0.0000111 0.0000648 0.0000631 -0.0000912 0.0000403 -0.0000385 0.0000778 0.0000283 0.0000647 0.0000536 -0.0000115 -0.0000361 0.0000013 -0.0000089 0.0000524 -0.0000028 -0.0000466 0.0000033 0.0000494 0.0000346 0.0000611 0.0000197 -0.0000114 0.0002512 -0.0001219 0.0001880 0.0000247 0.0000113 0.0000285 -0.0000249 0.0003372 -0.0001425 -0.0000361 0.0003333 -0.0000381 0.0002126 -0.0000566 0.0001080 0.0000636 0.0003254 -0.0000755 0.0001901 0.0000465 0.0003673 -0.0000435 0.0002717 -0.0000603 0.0002179 0.0000908 -0.0001351 -0.0000435 -0.0000214 0.0000059 0.0000886 -0.0000197 -0.0000769 0.0000145 0.0003199 -0.0000486 0.0002282 0.0000100 0.0001844 -0.0001029 0.0001897 -0.0001281 0.0004040 0.0001313 -0.0002635 0.0001948 0.0000347 -0.0000625 0.0002663 -0.0000892 0.0002262 0.0000132 0.0002802 -0.0000736 0.0002730 0.0003792 -0.0004998 -0.0000247 -0.0000643 0.0002468 -0.0002876 0.0001667 -0.0001366 -0.0000713 0.0000844 -0.0000420 0.0001097 -0.0000406 0.0000575 -0.0000427 0.0002592 0.0000842 0.0001943 -0.0000685 0.0002349 0.0000424 0.0002568 -0.0002028 0.0004192 -0.0000010 0.0002116 0.0001325 -0.0002160 0.0000284 -0.0001072 0.0000909 -0.0000030 -0.0001867 -0.0001466 0.0000132 0.0002422 -0.0000194 0.0001490 0.0000202 0.0000796 0.0001800 -0.0003256 0.0000106 -0.0000786 -0.0002178 -0.0000166 0.0001112 -0.0002273 -0.0000176 0.0000284 -0.0001178 0.0000514 -0.0000490 0.0000932 -0.0002420 0.0003892 0.0003164 -0.0002243 0.0002183 -0.0002470 0.0004785 -0.0005300 -0.0004051 0.0001960 0.0000526 -0.0001400 0.0001266 -0.0004250 0.0000230 -0.0000829 0.0001396 -0.0000212 0.0000624 -0.0001288 0.0000331 -0.0001533 -0.0000095 -0.0000573 0.0000855 -0.0001584 0.0000435 -0.0001574 0.0000683 -0.0000638 0.0002939 -0.0002680 0.0000262 -0.0000039 0.0000313 -0.0001545 -0.0000198 -0.0001146 -0.0002097 0.0000595 0.0003623 -0.0005431 0.0003132 0.0003264 0.0001748 -0.0002987 0.0006830 -0.0009617 0.0000834 -0.0001983 0.0001924 -0.0001929 -0.0000201 0.0002191 0.0002426 0.0006072 0.0000323 0.0000867 -0.0015919 0.0007621 -0.0000344 -0.0001911 0.0002123 -0.0004330 0.0002975 -0.0002195 0.0000252 -0.0002094 0.0000294 -0.0003646
-0.0000285 -0.0001598 0.0000069 -0.0002436 0.0002520 -0.0001090 -0.0001857 0.0002535 -0.0000917 0.0002053 0.0000183 0.0000252 0.0000445 -0.0002260 0.0000078 -0.0001214 0.0000341 -0.0004031 0.0000094 -0.0001716 0.0001079 0.0000304 0.0000841 -0.0000591 -0.0000361 -0.0000938 -0.0000029 -0.0001951 0.0000387 -0.0001769 -0.0000521 -0.0000788 0.0000484 -0.0000998 0.0001044 0.0000423 -0.0000068 0.0002145 -0.0000379 0.0001834 -0.0000021 -0.0000444 0.0000918 -0.0000050 0.0002028 -0.0000191 -0.0000334 0.0004082 -0.0000550 0.0003463 -0.0000514 0.0001428 0.0000796 0.0003683 -0.0000745 0.0002494 0.0000457 0.0005399 -0.0000273 0.0004645 0.0000075 0.0003641 0.0000444 -0.0000866 -0.0000655 -0.0000552 -0.0000424 -0.0000393 -0.0000144 0.0000032 0.0000519 0.0006891 -0.0000263 0.0003176 -0.0000041 0.0002282 -0.0000563 0.0001877 -0.0000828 0.0005069 0.0000861 -0.0003591 0.0004940 -0.0001401 -0.0000491 0.0004826 -0.0001137 0.0003612 0.0000101 0.0005701 -0.0001255 0.0005160 0.0003487 -0.0004421 0.0002612 -0.0002071 0.0000591 -0.0001525 0.0000476 0.0000688 -0.0000823 0.0002079 0.0001133 0.0001211 -0.0000431 0.0001994 -0.0001040 0.0003818 0.0000530 0.0004258 -0.0000472 0.0004089 0.0000218 0.0003452 -0.0000612 0.0003681 0.0000372 0.0003889 0.0001447 -0.0001580 -0.0000177 0.0000289 0.0003619 -0.0002151 -0.0006855 0.0003569 0.0000258 0.0004720 0.0000092 0.0003589 0.0000285 0.0003207 -0.0007178 0.0006437 0.0000783 0.0000988 -0.0000832 -0.0000539 0.0002026 -0.0001031 0.0000115 0.0001814 -0.0000784 0.0001304 -0.0000435 0.0002668 -0.0002215 0.0005133 0.0000104 0.0002573 0.0003748 -0.0004312 0.0009227 -0.0008838 -0.0001798 0.0000336 0.0000813 -0.0000465 0.0002059 -0.0003235 0.0000813 -0.0000154 0.0003347 -0.0000570 0.0000464 -0.0001305 -0.0000133 -0.0001116 0.0001133 -0.0001765 0.0001458 -0.0002808 0.0001546 -0.0002381 0.0000516 0.0000159 0.0002267 -0.0001531 0.0000354 0.0000247 0.0000196 -0.0001872 -0.0000623 -0.0000651 -0.0000045 -0.0000892 0.0002396 -0.0004661 0.0003050 0.0003875 0.0001032 -0.0002318 0.0002790 -0.0003006 0.0001508 -0.0000134 0.0000869 -0.0000959 0.0001007 0.0001828 0.0003757 0.0007847 0.0001215 0.0001646 -0.0009808 0.0009344 -0.0000521 -0.0002619 0.0001718 -0.0003487 0.0001748 -0.0000476 -0.0000522 -0.0000957 0.0001842 -0.0003127
-0.0000151 -0.0002241 -0.0000249 -0.0002793 0.0002686 -0.0001492 -0.0001980 0.0002708 -0.0001037 0.0002567 0.0000284 0.0000492 0.0000764 -0.0002997 0.0000157 -0.0001832 0.0000155 -0.0004750 0.0000239 -0.0002143 0.0001064 -0.0000159 0.0001133 -0.0001129 0.0000292 -0.0001218 0.0000005 -0.0001612 0.0000830 -0.0002822 -0.0000321 0.0000958 0.0000639 -0.0001562 0.0001243 0.0000124 -0.0000299 0.0001230 -0.0000727 0.0001829 0.0000069 -0.0001062 0.0001160 -0.0000546 0.0001390 0.0000397 -0.0000649 0.0003707 -0.0000689 0.0003412 -0.0000319 0.0001441 0.0000760 0.0003344 -0.0001016 0.0002297 0.0000775 0.0004728 -0.0000276 0.0004103 0.0000317 0.0002726 0.0000348 -0.0002229 -0.0000493 -0.0001285 -0.0000401 -0.0002083 0.0000592 -0.0002096 0.0000383 0.0004714 0.0000026 0.0001488 -0.0000160 0.0000423 -0.0000480 0.0000559 -0.0000111 0.0003297 0.0000084 -0.0004383 0.0005210 -0.0002534 -0.0000598 0.0004123 -0.0001267 0.0002685 -0.0000289 0.0005295 -0.0001216 0.0005208 0.0003447 -0.0005825 0.0001183 -0.0001089 0.0001463 -0.0002355 -0.0003056 0.0004711 -0.0000944 0.0001574 0.0001361 0.0000598 -0.0000508 0.0002156 -0.0001079 0.0003969 0.0000118 0.0005269 -0.0000143 0.0004900 -0.0000222 0.0004499 0.0000938 0.0002887 0.0000569 0.0004953 0.0000411 -0.0000266 0.0000185 0.0001235 0.0003920 -0.0001861 -0.0004658 0.0004128 0.0000230 0.0006259 0.0000028 0.0005390 0.0000461 0.0004411 -0.0006154 0.0007788 0.0001593 0.0002160 0.0000085 0.0000862 0.0002909 -0.0000627 0.0000306 0.0002958 0.0000425 0.0001842 0.0000538 0.0002819 -0.0000235 0.0005550 -0.0002326 0.0004998 0.0002372 -0.0001547 0.0001648 -0.0003581 -0.0005650 0.0004236 0.0001364 0.0000231 0.0001493 -0.0000918 0.0000534 0.0000600 0.0003677 -0.0000772 0.0000384 0.0000315 0.0000199 0.0000444 0.0000085 -0.0001693 0.0002279 -0.0001427 0.0002454 -0.0001638 -0.0000740 0.0001490 0.0001251 0.0000680 0.0000146 0.0001219 0.0000733 -0.0000258 0.0000870 0.0000198 0.0004019 -0.0002575 0.0001417 -0.0003215 0.0002674 0.0003777 0.0003054 -0.0002426 0.0002775 -0.0002997 0.0001707 -0.0000315 -0.0002971 0.0002009 0.0000903 0.0001879 0.0002835 0.0005169 0.0002030 0.0001762 -0.0007545 0.0008287 -0.0000737 -0.0002970 0.0001106 -0.0001972 0.0001004 -0.0000030 -0.0001167 0.0000156 0.0004139 -0.0003762
0.0000224 -0.0001172 0.0000671 -0.0000963 0.0001583 -0.0002652 -0.0001804 0.0002801 -0.0001473 0.0003106 0.0000333 0.0000683 0.0001588 -0.0003119 0.0000226 -0.0001570 0.0000410 -0.0003190 0.0000473 -0.0001287 0.0000708 -0.0001087 0.0001110 -0.0001161 0.0000775 -0.0001512 0.0000090 -0.0000348 0.0001133 -0.0002625 -0.0000500 0.0002229 0.0000911 -0.0001330 0.0001507 -0.0001740 -0.0001044 -0.0000060 -0.0001281 0.0000939 0.0000429 -0.0000893 0.0000576 -0.0001246 0.0000569 0.0000585 -0.0001466 0.0002037 -0.0001104 0.0002640 -0.0000390 0.0001253 0.0000389 0.0003356 -0.0001203 0.0002227 0.0000321 0.0003587 -0.0000867 0.0002775 0.0000051 0.0000503 0.0000087 -0.0002098 0.0000160 -0.0000954 0.0000403 -0.0000222 0.0000456 -0.0002750 -0.0000047 0.0002101 -0.0000036 0.0000237 -0.0000085 -0.0000119 -0.0000599 0.0000100 0.0000459 0.0000816 -0.0000265 -0.0002823 0.0002265 -0.0002486 -0.0000328 0.0002853 -0.0001258 0.0001600 -0.0000304 0.0002902 -0.0001588 0.0005137 0.0000930 -0.0004308 -0.0002123 0.0000490 0.0001957 -0.0002801 -0.0004019 0.0004020 -0.0001062 0.0000093 0.0001051 -0.0000203 -0.0000755 0.0002011 -0.0000668 0.0003693 -0.0000078 0.0003753 -0.0000417 0.0004294 -0.0000181 0.0004209 0.0001917 0.0002312 0.0000502 0.0004140 0.0000949 -0.0001337 0.0000108 0.0000686 -0.0001254 0.0002330 -0.0002659 0.0000672 -0.0000075 0.0005613 -0.0000124 0.0004518 0.0000614 0.0003431 0.0000709 0.0004306 0.0001249 0.0001416 0.0002023 -0.0000547 0.0003387 -0.0002676 0.0000266 0.0002362 0.0000510 0.0001920 0.0000998 0.0002130 -0.0000081 0.0005823 0.0000394 -0.0000865 0.0002311 -0.0001085 0.0003464 -0.0008355 -0.0000180 -0.0001069 0.0001569 -0.0000056 0.0000353 0.0001330 -0.0000053 0.0000793 0.0001875 0.0000429 0.0000470 0.0001162 0.0000803 0.0000646 0.0000058 -0.0001962 0.0002291 -0.0000445 0.0001588 -0.0000658 -0.0000940 0.0001691 0.0001100 0.0001724 -0.0000006 0.0002014 0.0001303 0.0000476 -0.0000207 0.0003113 0.0001688 0.0000287 -0.0000320 -0.0001070 -0.0002648 0.0006252 0.0003098 -0.0001584 0.0014496 -0.0015000 0.0002780 -0.0001271 -0.0005689 0.0004363 0.0000473 0.0003030 0.0002826 0.0005575 0.0002145 0.0002103 -0.0018617 0.0014053 0.0000261 -0.0003769 -0.0001030 -0.0001302 0.0002632 -0.0000820 -0.0000106 0.0000096 0.0001230 0.0000204
0.0000218 0.0000126 0.0000778 0.0000031 0.0001202 -0.0001393 -0.0001961 0.0004015 -0.0001854 0.0004116 0.0000273 0.0001024 0.0001660 -0.0002615 0.0000383 -0.0001320 0.0000410 -0.0002474 0.0000431 -0.0001191 0.0000500 -0.0000985 0.0001123 -0.0001336 0.0001178 -0.0002209 0.0000117 0.0000440 0.0000732 -0.0001953 -0.0000883 0.0002407 0.0000937 -0.0001222 0.0001347 -0.0002098 -0.0001533 -0.0000575 -0.0001263 0.0000588 0.0000486 -0.0000859 0.0000013 -0.0000582 -0.0000492 0.0002289 -0.0001946 0.0001227 -0.0001516 0.0003053 -0.0000716 0.0001563 0.0000151 0.0003788 -0.0001309 0.0002652 -0.0000115 0.0004084 -0.0001176 0.0002694 0.0000078 0.0000256 0.0000528 -0.0001987 0.0000157 -0.0001217 0.0000660 -0.0000182 -0.0000001 -0.0002598 -0.0000023 0.0002415 -0.0000095 0.0000220 -0.0000194 0.0000939 -0.0000675 0.0000593 0.0000480 0.0000180 -0.0000757 -0.0002569 0.0000366 -0.0002116 -0.0000037 0.0002324 -0.0001244 0.0001598 -0.0000788 0.0002662 -0.0001917 0.0005939 0.0000084 -0.0003372 0.0000514 -0.0002416 0.0000409 -0.0002162 0.0001097 -0.0001318 -0.0001425 0.0000287 0.0001122 -0.0000894 -0.0000893 0.0002367 -0.0000593 0.0004333 -0.0000165 0.0003814 -0.0001073 0.0004657 0.0000061 0.0004085 0.0001406 0.0003116 0.0000239 0.0003969 0.0001433 -0.0002111 -0.0000078 0.0000083 -0.0001948 0.0003273 -0.0003823 0.0001500 -0.0000162 0.0005265 -0.0000112 0.0003928 0.0000617 0.0003468 0.0002327 0.0000735 0.0000866 0.0000863 0.0003423 -0.0004075 0.0003267 -0.0004002 0.0000480 0.0001530 0.0000084 0.0002132 0.0000297 0.0002340 -0.0000854 0.0005389 0.0001023 -0.0002203 0.0002592 -0.0001601 0.0008219 -0.0010763 0.0006287 -0.0007846 0.0000993 0.0000332 -0.0000624 0.0001601 -0.0000503 0.0000749 0.0002735 -0.0000471 0.0000435 0.0000597 0.0001082 -0.0000075 0.0001651 -0.0003899 0.0002229 -0.0000589 0.0000897 -0.0000619 0.0000098 -0.0000204 0.0002747 0.0000024 0.0000039 0.0001380 0.0001483 -0.0000184 -0.0001624 0.0003212 -0.0002497 0.0003058 -0.0001410 -0.0000068 -0.0003593 0.0005840 0.0002373 -0.0001162 0.0010470 -0.0011163 0.0001064 -0.0000536 -0.0002429 0.0000575 0.0000496 0.0003369 0.0003178 0.0005510 0.0002433 0.0001627 0.0008289 -0.0009139 0.0000599 -0.0003719 -0.0003217 -0.0001077 0.0000888 0.0001904 0.0001189 -0.0000652 0.0001801 0.0000044
0.0000173 0.0001736 0.0000744 0.0001061 0.0001164 -0.0000126 -0.0002528 0.0005595 -0.0002262 0.0004989 -0.0000116 0.0002730 0.0001186 -0.0000901 0.0000313 -0.0000076 0.0000588 -0.0001204 0.0000372 -0.0000891 0.0000481 -0.0000772 0.0001467 -0.0001221 0.0000643 -0.0001567 0.0000127 0.0001293 0.0000493 -0.0000982 -0.0000857 0.0003607 0.0000840 -0.0001028 0.0001106 -0.0002112 -0.0001640 -0.0000130 -0.0001427 0.0001355 0.0000406 -0.0000836 -0.0000055 -0.0000373 0.0001355 0.0000559 -0.0002045 0.0001025 -0.0001438 0.0003037 -0.0000867 0.0001749 0.0000172 0.0003958 -0.0001114 0.0002413 -0.0000166 0.0003998 -0.0001284 0.0002195 -0.0000243 -0.0000001 0.0000710 -0.0002763 -0.0000152 -0.0000982 0.0001032 -0.0000781 0.0000851 -0.0004596 -0.0000274 0.0001410 0.0000220 -0.0000345 -0.0000318 0.0000911 -0.0000503 -0.0000041 0.0000397 0.0000023 0.0001004 -0.0004597 -0.0000465 -0.0001892 -0.0000461 0.0001964 -0.0001438 0.0001387 -0.0001389 0.0003042 -0.0002358 0.0006089 0.0003859 -0.0007827 0.0004610 -0.0006125 0.0000878 -0.0002616 0.0005310 -0.0005029 -0.0001656 0.0000727 0.0000739 -0.0001122 -0.0001300 0.0002497 -0.0000689 0.0004753 -0.0000117 0.0003957 -0.0001300 0.0004935 0.0000184 0.0004018 0.0003029 0.0001760 -0.0000072 0.0004022 0.0000784 -0.0002338 0.0000197 -0.0000555 -0.0000822 0.0002947 0.0001802 -0.0004335 -0.0000277 0.0004957 -0.0000131 0.0003309 0.0000452 0.0003642 -0.0003166 -0.0000520 0.0001269 -0.0000567 0.0001279 -0.0002870 0.0002929 -0.0004737 0.0000516 0.0000657 -0.0000317 0.0001915 -0.0000415 0.0002364 -0.0002019 0.0004919 -0.0000426 -0.0000885 0.0002153 -0.0002401 0.0001600 -0.0002672 0.0001260 -0.0003833 0.0001226 -0.0000328 -0.0000393 -0.0000206 -0.0000628 0.0000336 0.0002512 -0.0001005 0.0000439 -0.0000447 0.0001206 -0.0001138 0.0001023 -0.0004101 0.0002134 -0.0001325 0.0000836 -0.0001251 0.0000217 -0.0000468 0.0002916 -0.0001272 0.0000218 0.0000368 0.0001308 -0.0001166 0.0002401 -0.0001284 0.0000374 0.0000401 -0.0000107 -0.0002246 0.0002891 0.0000953 0.0002034 -0.0001251 0.0001397 -0.0004804 0.0000063 -0.0003070 -0.0002116 -0.0000791 -0.0000389 0.0003365 0.0002268 0.0004406 0.0002502 0.0000772 0.0017414 -0.0015651 0.0000587 -0.0003832 0.0000521 -0.0002673 0.0000188 0.0002335 0.0000937 -0.0000989 0.0001609 -0.0000921
0.0000165 0.0001610 0.0000910 0.0000711 0.0001315 -0.0000849 -0.0002632 0.0005769 -0.0002523 0.0005197 -0.0000491 0.0003586 0.0001051 -0.0000922 0.0000111 0.0000704 0.0000960 -0.0001127 0.0000780 -0.0001103 0.0001382 -0.0001517 0.0001574 -0.0001080 0.0000422 -0.0001208 0.0000061 0.0001404 0.0000626 -0.0000144 -0.0000839 0.0004037 0.0000975 -0.0000945 0.0001045 -0.0001316 -0.0001791 0.0000748 -0.0001712 0.0003467 0.0000420 -0.0000042 0.0000236 -0.0000350 0.0002978 -0.0000976 -0.0002172 0.0000757 -0.0001139 0.0002886 -0.0000455 0.0001523 0.0000201 0.0004031 -0.0001293 0.0002764 0.0000011 0.0003495 -0.0000978 0.0001639 -0.0000323 -0.0000235 0.0000685 -0.0003306 0.0000828 -0.0002024 0.0001250 -0.0001199 0.0000536 -0.0004928 -0.0000582 -0.0000821 0.0000572 -0.0001408 -0.0000375 -0.0000285 -0.0000574 -0.0001434 0.0001125 -0.0001638 0.0001638 -0.0006579 0.0000530 -0.0003204 -0.0000631 0.0000647 -0.0001340 0.0000188 -0.0000975 0.0001333 -0.0002518 0.0004865 0.0007888 -0.0013296 0.0003393 -0.0005790 0.0002780 -0.0004249 0.0006690 -0.0006168 -0.0001599 -0.0000350 0.0001074 -0.0002283 -0.0001205 0.0001447 -0.0000743 0.0004182 -0.0000005 0.0003228 -0.0000943 0.0003852 -0.0000126 0.0003893 0.0005556 -0.0002617 -0.0000080 0.0003568 0.0002435 -0.0004409 0.0000753 -0.0002249 0.0000477 0.0000636 0.0001367 -0.0005496 -0.0000409 0.0004288 -0.0000266 0.0002626 -0.0000005 0.0003566 -0.0000453 -0.0002690 0.0001287 -0.0001880 -0.0000042 -0.0002572 0.0002157 -0.0005133 0.0000629 -0.0000337 -0.0000615 0.0001297 0.0000210 0.0001045 -0.0002591 0.0003227 0.0000178 -0.0002804 0.0001518 -0.0003021 0.0000886 -0.0004996 -0.0000233 -0.0000511 0.0001234 -0.0000823 0.0000611 -0.0001862 0.0000000 -0.0000944 0.0001496 -0.0001702 0.0000484 -0.0002088 0.0001359 -0.0002514 0.0001988 -0.0005662 0.0002161 -0.0002211 0.0001649 -0.0003012 0.0000047 -0.0000757 0.0002320 -0.0001737 0.0000438 -0.0001183 0.0001213 -0.0002454 0.0002346 -0.0003591 0.0000646 -0.0000985 0.0001541 -0.0004009 0.0003735 -0.0001402 0.0001472 -0.0001997 0.0000701 -0.0003379 -0.0000121 -0.0003613 -0.0000346 -0.0002680 -0.0000772 0.0001807 0.0001815 0.0002011 0.0001950 -0.0000030 0.0004825 -0.0008703 -0.0000328 -0.0003845 -0.0001754 -0.0001001 0.0002791 -0.0002102 0.0000192 -0.0000964 0.0001590 -0.0002287
0.0000250 -0.0000178 0.0000923 -0.0000527 0.0001486 -0.0003122 -0.0002094 0.0003816 -0.0002368 0.0004333 -0.0000337 0.0001625 0.0001818 -0.0003210 0.0000116 -0.0000349 0.0000684 -0.0002260 0.0001153 -0.0002106 0.0001545 -0.0002648 0.0001259 -0.0001645 0.0000113 -0.0001502 -0.0000317 0.0000004 0.0000571 -0.0001197 -0.0000854 0.0002639 0.0001174 -0.0001710 0.0000951 -0.0001725 -0.0001786 0.0000429 -0.0002546 0.0004000 0.0000413 -0.0000001 0.0000606 -0.0000760 0.0002806 -0.0000991 -0.0002187 0.0000181 -0.0001248 0.0002529 -0.0000496 0.0001134 0.0000079 0.0004174 -0.0001354 0.0002831 0.0000257 0.0003524 -0.0000817 0.0002054 -0.0000047 -0.0000296 0.0001221 -0.0003017 0.0001500 -0.0002184 0.0001220 -0.0000388 0.0000264 -0.0003566 -0.0000721 0.0000627 0.0000014 -0.0000314 -0.0000435 0.0000184 -0.0000904 -0.0000795 0.0001655 -0.0001692 0.0002333 -0.0006616 0.0001506 -0.0003596 -0.0000089 0.0000332 -0.0001258 -0.0000120 0.0000365 0.0000363 -0.0002283 0.0004111 0.0003462 -0.0009627 0.0003646 -0.0006483 0.0001627 -0.0003755 0.0003976 -0.0004415 -0.0001679 -0.0001179 0.0000793 -0.0002760 -0.0000484 -0.0000153 -0.0000585 0.0002757 -0.0000121 0.0001987 -0.0000741 0.0002409 -0.0000251 0.0003322 0.0002840 -0.0001905 0.0000181 0.0002655 0.0002673 -0.0005768 0.0001477 -0.0003954 0.0001345 -0.0001569 -0.0002313 -0.0001106 -0.0000378 0.0002990 -0.0000274 0.0001466 -0.0000116 0.0003029 -0.0002097 -0.0001060 0.0001704 -0.0003505 0.0001134 -0.0005938 0.0003580 -0.0007321 0.0001146 -0.0001575 -0.0000075 0.0000176 0.0000737 -0.0000257 -0.0001445 -0.0000322 0.0002431 -0.0005621 0.0000877 -0.0003829 0.0001227 -0.0006432 0.0000855 -0.0005184 0.0001442 -0.0001335 0.0000674 -0.0002845 0.0000511 -0.0002716 0.0003279 -0.0004799 0.0001234 -0.0004296 0.0001607 -0.0003903 0.0002628 -0.0006194 0.0002535 -0.0003373 0.0002220 -0.0004728 0.0000407 -0.0002296 0.0002583 -0.0002880 0.0000273 -0.0002245 0.0001370 -0.0003944 0.0001026 -0.0006091 -0.0000976 -0.0001490 0.0002288 -0.0005172 -0.0000386 0.0002308 -0.0000271 -0.0003516 0.0004003 -0.0006379 0.0001937 -0.0004248 0.0005659 -0.0007688 0.0000463 -0.0001635 0.0002407 -0.0002379 0.0001231 -0.0000782 0.0007970 -0.0009055 -0.0000535 -0.0004353 -0.0002541 -0.0001257 0.0003724 -0.0004820 0.0000884 -0.0002406 0.0002737 -0.0005095
0.0000324 -0.0002374 0.0001096 -0.0002213 0.0001766 -0.0005745 -0.0001659 0.0001202 -0.0002092 0.0002737 0.0000054 -0.0001408 0.0002379 -0.0005872 0.0000209 -0.0002486 0.0000911 -0.0004419 0.0001076 -0.0003340 0.0001686 -0.0004195 0.0001366 -0.0003112 0.0000086 -0.0002684 -0.0000584 -0.0003395 0.0000630 -0.0004493 -0.0000860 -0.0000086 0.0001380 -0.0003761 0.0001096 -0.0004517 -0.0001528 -0.0001771 -0.0000925 0.0000018 0.0000440 -0.0001980 0.0000511 -0.0002285 0.0001586 -0.0001479 -0.0001905 -0.0001384 -0.0001380 0.0000864 -0.0000506 0.0000072 0.0000035 0.0003318 -0.0001121 0.0001349 0.0000152 0.0003239 -0.0000193 0.0000732 0.0000455 -0.0001508 0.0001865 -0.0003946 0.0000934 -0.0001871 0.0001486 -0.0001272 0.0000382 -0.0003820 -0.0000624 0.0001812 -0.0000359 -0.0000006 -0.0000478 0.0000246 -0.0000019 -0.0001593 0.0002303 -0.0001822 0.0001280 -0.0005038 0.0002299 -0.0005045 0.0000451 0.0000795 -0.0001175 0.0000096 0.0000710 0.0001021 -0.0001417 0.0003162 -0.0002425 -0.0004273 0.0003769 -0.0006725 0.0001268 -0.0003502 -0.0001139 -0.0000690 -0.0001493 -0.0000654 0.0000859 -0.0002816 0.0000320 -0.0000824 -0.0000746 0.0002008 -0.0000449 0.0001766 -0.0000417 0.0001871 -0.0000064 0.0003354 -0.0001002 0.0003738 0.0000244 0.0002861 0.0002646 -0.0005458 0.0001129 -0.0002875 0.0001658 -0.0002343 -0.0000003 -0.0002171 -0.0000223 0.0003094 0.0000099 0.0001865 0.0000463 0.0002332 -0.0010448 0.0004146 0.0002138 -0.0002624 0.0002254 -0.0005288 0.0005298 -0.0007505 0.0001120 -0.0000858 0.0000246 0.0000282 0.0000658 0.0000668 -0.0000191 -0.0001596 -0.0000095 -0.0003143 0.0001687 -0.0004682 0.0004652 -0.0005906 0.0002703 -0.0007564 0.0001667 -0.0001568 -0.0000345 -0.0002709 0.0000454 -0.0002949 0.0001655 -0.0003225 0.0001867 -0.0005224 0.0001718 -0.0004298 0.0003271 -0.0006922 0.0002623 -0.0003992 0.0001550 -0.0004829 0.0000362 -0.0002393 0.0002400 -0.0003974 0.0000578 -0.0002804 0.0001686 -0.0005052 0.0004007 -0.0009028 -0.0003375 -0.0001615 -0.0000318 -0.0004900 0.0000425 0.0001884 -0.0000299 -0.0005937 -0.0005781 -0.0004503 0.0001888 -0.0003645 0.0005528 -0.0007117 0.0001235 -0.0003801 0.0002785 -0.0003864 0.0001769 -0.0001485 0.0003799 -0.0003275 0.0000545 -0.0005565 0.0004620 -0.0006550 0.0002694 -0.0004712 0.0000811 -0.0002647 0.0003598 -0.0006741
0.0000368 -0.0004516 0.0001309 -0.0003729 0.0002378 -0.0007710 -0.0001142 -0.0001326 -0.0001824 0.0000798 0.0000540 -0.0004398 0.0002649 -0.0008158 0.0000285 -0.0004488 0.0001538 -0.0006868 0.0001273 -0.0004469 0.0002360 -0.0005296 0.0001971 -0.0004475 0.0001438 -0.0005124 -0.0000781 -0.0007346 0.0001128 -0.0007863 -0.0000763 -0.0003073 0.0001575 -0.0005750 0.0001732 -0.0007239 -0.0001070 -0.0003947 0.0000025 -0.0003115 0.0000611 -0.0004157 0.0000269 -0.0003724 0.0000810 -0.0002003 -0.0001416 -0.0003264 -0.0001164 -0.0001014 -0.0000391 -0.0001409 0.0000075 0.0002046 -0.0000964 -0.0000867 0.0000195 0.0001682 0.0000566 -0.0002112 0.0000918 -0.0003647 0.0001890 -0.0006296 0.0001030 -0.0003815 0.0001813 -0.0004588 0.0000713 -0.0006018 -0.0000557 -0.0001229 0.0000065 -0.0002288 -0.0000293 -0.0001861 0.0001257 -0.0004571 0.0002954 -0.0003865 0.0001830 -0.0007493 0.0003821 -0.0007834 0.0000592 -0.0000692 -0.0000611 -0.0001798 0.0000801 -0.0000781 -0.0000046 0.0000385 0.0000432 -0.0006628 0.0004891 -0.0009036 0.0002439 -0.0005549 0.0000856 -0.0003053 -0.0001047 -0.0001481 0.0000463 -0.0003337 0.0000987 -0.0002115 -0.0001007 0.0000798 -0.0000401 0.0000734 -0.0000660 0.0001377 -0.0000196 0.0003328 0.0000569 0.0002818 0.0000468 0.0002552 0.0003455 -0.0005955 0.0001401 -0.0002761 0.0001953 -0.0002539 0.0004048 -0.0007027 0.0000060 0.0002927 0.0000364 0.0002071 0.0000981 0.0001323 -0.0001804 0.0001330 0.0002236 -0.0001480 0.0002633 -0.0005866 0.0003956 -0.0006239 0.0000746 0.0000219 -0.0000107 0.0001049 0.0000772 0.0000706 0.0000535 -0.0001976 0.0000530 -0.0004570 0.0002793 -0.0005427 0.0009625 -0.0011592 0.0009081 -0.0010798 0.0001446 -0.0001263 -0.0000748 -0.0002553 0.0000445 -0.0002636 0.0001762 -0.0002739 0.0002029 -0.0004457 0.0001810 -0.0003546 0.0006660 -0.0009567 0.0003065 -0.0004303 0.0001358 -0.0004143 0.0000933 -0.0003010 0.0002883 -0.0004765 0.0001325 -0.0002986 0.0001806 -0.0004347 0.0005184 -0.0007506 -0.0001821 -0.0001225 -0.0001382 -0.0004790 -0.0002581 0.0002671 0.0004259 -0.0009633 -0.0000962 -0.0002756 0.0001716 -0.0002858 0.0003858 -0.0005396 0.0001956 -0.0003680 0.0003886 -0.0003488 0.0002729 -0.0001825 -0.0009074 0.0007588 0.0001084 -0.0005601 0.0003747 -0.0006778 -0.0000193 -0.0001283 0.0000051 -0.0001460 0.0004350 -0.0006898
0.0000304 -0.0003866 0.0001807 -0.0002989 0.0002807 -0.0006225 -0.0000999 -0.0001479 -0.0001621 -0.0000234 0.0001069 -0.0004298 0.0002838 -0.0007422 0.0000259 -0.0004305 0.0001683 -0.0007070 0.0001285 -0.0004222 0.0002740 -0.0005181 0.0002076 -0.0003989 0.0002237 -0.0005588 -0.0000928 -0.0009324 0.0001500 -0.0009146 -0.0000674 -0.0003915 0.0001801 -0.0006641 0.0001751 -0.0007943 -0.0000993 -0.0005316 -0.0000307 -0.0003453 0.0000756 -0.0005029 0.0000628 -0.0004723 0.0001845 -0.0003866 -0.0001235 -0.0004687 -0.0001084 -0.0002054 -0.0000282 -0.0002353 0.0000064 0.0001614 -0.0000426 -0.0002389 0.0000398 0.0000765 0.0001014 -0.0003556 0.0000820 -0.0004217 0.0001422 -0.0007459 0.0001620 -0.0005432 0.0002142 -0.0005978 0.0001107 -0.0007491 -0.0000786 -0.0003995 0.0000176 -0.0003756 -0.0000280 -0.0003380 0.0001680 -0.0006575 0.0002557 -0.0004345 0.0005320 -0.0011874 0.0004533 -0.0007468 0.0000562 -0.0002706 -0.0000252 -0.0003757 0.0001580 -0.0003310 0.0000429 -0.0001415 0.0000387 -0.0009286 0.0005785 -0.0010868 0.0002591 -0.0006779 0.0002710 -0.0006648 -0.0000840 -0.0003283 0.0000205 -0.0003929 0.0001312 -0.0003774 -0.0000777 -0.0000966 -0.0000401 -0.0000903 -0.0001945 0.0000388 -0.0000263 0.0002298 0.0004457 -0.0000649 0.0000545 0.0001395 0.0003208 -0.0007492 0.0002822 -0.0005099 0.0002486 -0.0003067 0.0002683 -0.0007085 0.0000242 0.0000971 0.0000312 0.0000196 0.0001121 0.0000018 0.0002209 -0.0005846 0.0002301 -0.0003643 0.0002610 -0.0009751 0.0002827 -0.0008258 0.0000394 -0.0000383 0.0000608 -0.0000700 0.0001121 -0.0001583 -0.0000283 -0.0003213 0.0002556 -0.0008350 0.0002575 -0.0006606 0.0011216 -0.0011548 0.0009276 -0.0015953 0.0001423 -0.0001583 0.0000070 -0.0003934 0.0000753 -0.0004348 0.0003457 -0.0004518 0.0002146 -0.0004754 0.0001572 -0.0003774 0.0006896 -0.0009778 0.0002875 -0.0004247 0.0001782 -0.0004662 0.0001817 -0.0004553 0.0003372 -0.0005119 0.0001758 -0.0003836 0.0001710 -0.0004354 0.0004207 -0.0007489 0.0001853 -0.0004833 0.0000860 -0.0006056 -0.0000065 0.0000107 0.0002766 -0.0008237 0.0009288 -0.0008792 0.0004639 -0.0005670 0.0007035 -0.0008135 0.0002683 -0.0004338 0.0004771 -0.0003610 0.0001838 -0.0001630 -0.0018319 0.0011358 0.0001064 -0.0005643 -0.0000203 -0.0003190 -0.0003450 0.0001348 0.0000152 -0.0001613 0.0001464 -0.0005404
0.0000475 -0.0003757 0.0001989 -0.0002192 0.0002840 -0.0005621 -0.0000994 -0.0001807 -0.0001318 -0.0001339 0.0001405 -0.0004578 0.0003119 -0.0007076 0.0000420 -0.0004434 0.0001791 -0.0007324 0.0001596 -0.0004462 0.0002934 -0.0005167 0.0002146 -0.0003932 0.0001314 -0.0004849 -0.0000885 -0.0010467 0.0001759 -0.0009124 -0.0000544 -0.0004409 0.0002152 -0.0007068 0.0001508 -0.0007940 -0.0001131 -0.0005803 0.0000308 -0.0003448 0.0000760 -0.0004434 0.0000839 -0.0004517 0.0002442 -0.0004713 -0.0001287 -0.0005339 -0.0001147 -0.0002276 0.0000318 -0.0002846 -0.0000064 0.0002045 -0.0000251 -0.0001939 0.0000058 0.0001654 0.0001437 -0.0002507 0.0000496 -0.0003076 0.0002061 -0.0006808 0.0002218 -0.0004954 0.0002392 -0.0003757 0.0000664 -0.0005871 -0.0000843 -0.0001545 0.0000044 -0.0002489 -0.0000398 -0.0002108 0.0001809 -0.0005179 0.0001849 -0.0002516 0.0004950 -0.0009967 0.0004514 -0.0005430 0.0000097 -0.0000178 0.0000207 -0.0002545 0.0001425 -0.0001339 0.0000182 0.0000583 0.0002951 -0.0010583 0.0004299 -0.0007710 0.0001748 -0.0004767 0.0004119 -0.0007110 -0.0000657 -0.0001565 0.0000683 -0.0002880 0.0001018 -0.0002204 -0.0000596 -0.0000837 -0.0000644 -0.0000184 -0.0001272 0.0000130 -0.0000241 0.0002819 0.0005645 -0.0000526 0.0000146 0.0002064 0.0003836 -0.0007783 0.0002691 -0.0003949 0.0005550 -0.0005294 -0.0002084 -0.0001752 0.0000132 0.0000971 0.0000076 0.0000206 0.0000867 0.0000105 0.0003160 -0.0007011 0.0002314 -0.0003812 0.0006796 -0.0011937 0.0003823 -0.0008632 -0.0000067 0.0000346 0.0001294 -0.0001248 0.0001163 -0.0001545 0.0000665 -0.0003879 0.0001056 -0.0006276 0.0002253 -0.0006273 0.0009573 -0.0008549 0.0002015 -0.0007381 0.0001018 -0.0000990 0.0001225 -0.0005810 0.0000833 -0.0005075 0.0003442 -0.0004890 0.0002027 -0.0005483 0.0001701 -0.0004609 0.0006110 -0.0008852 0.0002711 -0.0004410 0.0002312 -0.0005568 0.0001376 -0.0004245 0.0003220 -0.0005179 0.0001560 -0.0004572 0.0001851 -0.0005513 0.0004005 -0.0009234 0.0003997 -0.0008318 0.0000908 -0.0006398 0.0001376 -0.0000351 0.0000207 -0.0007499 0.0013538 -0.0017848 0.0003213 -0.0005313 0.0002773 -0.0005437 0.0003174 -0.0006225 0.0005136 -0.0004131 0.0002457 -0.0002761 -0.0003162 -0.0001658 0.0000501 -0.0005633 -0.0000312 -0.0002270 -0.0003432 -0.0000823 -0.0000130 -0.0002071 0.0001270 -0.0007773
0.0000884 -0.0005818 0.0001890 -0.0003124 0.0002924 -0.0007933 -0.0000527 -0.0003911 -0.0000782 -0.0003112 0.0001894 -0.0007568 0.0003508 -0.0009089 0.0000847 -0.0006483 0.0002026 -0.0008592 0.0001842 -0.0005440 0.0003242 -0.0006258 0.0002191 -0.0004984 0.0000813 -0.0005125 -0.0000579 -0.0011118 0.0002008 -0.0010068 -0.0000214 -0.0005516 0.0002486 -0.0008046 0.0001746 -0.0009028 -0.0000780 -0.0006694 0.0000224 -0.0003957 0.0000856 -0.0004717 0.0000783 -0.0004476 0.0002045 -0.0004479 -0.0001152 -0.0005771 -0.0001292 -0.0001958 0.0000618 -0.0003135 -0.0000268 0.0002273 -0.0000157 -0.0001876 -0.0000001 0.0002087 0.0001597 -0.0002102 0.0000698 -0.0002981 0.0002850 -0.0006766 0.0002389 -0.0004499 0.0002527 -0.0002796 0.0001506 -0.0006064 -0.0000715 -0.0000131 0.0000089 -0.0001906 -0.0000204 -0.0001495 0.0001663 -0.0004411 0.0001105 -0.0001255 0.0004191 -0.0008223 0.0003758 -0.0004748 -0.0000045 0.0001505 0.0000115 -0.0001173 0.0001446 0.0000110 0.0000222 0.0001654 0.0003640 -0.0009145 0.0005020 -0.0007411 0.0001591 -0.0004348 0.0003625 -0.0005034 -0.0000390 -0.0000328 0.0001619 -0.0001986 0.0000875 -0.0001139 -0.0000804 -0.0000137 -0.0000739 0.0000602 -0.0001332 0.0000728 -0.0000419 0.0003412 0.0003900 -0.0001035 -0.0000111 0.0002534 0.0003266 -0.0006256 0.0002071 -0.0002110 0.0005118 -0.0005112 0.0002173 -0.0004176 0.0000056 0.0002147 -0.0000036 0.0001384 0.0000845 0.0000443 0.0007000 0.0000071 0.0001986 -0.0001556 0.0004116 -0.0006446 0.0004497 -0.0006780 -0.0000558 0.0002255 0.0000969 0.0000375 0.0000671 0.0000393 0.0003417 -0.0005127 0.0002736 -0.0006615 0.0002157 -0.0004636 -0.0001704 -0.0002062 0.0002824 -0.0006235 0.0001447 -0.0000327 0.0000747 -0.0004785 0.0001048 -0.0004015 0.0004447 -0.0004772 0.0002190 -0.0004142 0.0001767 -0.0003064 0.0006606 -0.0009218 0.0002188 -0.0002953 0.0002960 -0.0004942 0.0001387 -0.0003292 0.0003515 -0.0004093 0.0001487 -0.0003445 0.0001916 -0.0004273 0.0005820 -0.0009000 0.0003529 -0.0004042 -0.0000832 -0.0004304 -0.0004632 0.0008371 0.0003087 -0.0008759 0.0023556 -0.0025398 0.0003797 -0.0005287 -0.0001286 -0.0000480 0.0003328 -0.0004732 0.0005153 -0.0000432 0.0002723 -0.0001410 0.0006989 -0.0005079 0.0000827 -0.0004205 -0.0005123 0.0001750 -0.0001556 -0.0001414 0.0000564 -0.0001495 0.0005812 -0.0008959
0.0000913 -0.0003875 0.0001599 -0.0001400 0.0002446 -0.0005346 -0.0000464 -0.0002545 -0.0000672 -0.0003211 0.0001963 -0.0005910 0.0003045 -0.0007290 0.0001180 -0.0005958 0.0002215 -0.0007245 0.0002012 -0.0004905 0.0003366 -0.0006172 0.0002249 -0.0004480 0.0002152 -0.0005198 -0.0000097 -0.0008964 0.0002165 -0.0009344 -0.0000007 -0.0004200 0.0002541 -0.0007826 0.0001869 -0.0008664 -0.0000574 -0.0006727 0.0000052 -0.0003089 0.0001003 -0.0004817 0.0001009 -0.0004564 0.0003215 -0.0005352 -0.0001056 -0.0005605 -0.0001322 -0.0001234 0.0000480 -0.0002706 -0.0000441 0.0002366 0.0000134 -0.0002182 -0.0000059 0.0001771 0.0001560 -0.0002826 0.0000722 -0.0003162 0.0003210 -0.0007280 0.0001831 -0.0004370 0.0002706 -0.0003721 0.0001248 -0.0006293 -0.0000819 -0.0002455 0.0000119 -0.0002904 -0.0000122 -0.0002414 0.0001539 -0.0005546 0.0001015 -0.0002277 0.0003218 -0.0007967 0.0003602 -0.0005436 -0.0000244 0.0000062 -0.0000507 -0.0001475 0.0001673 -0.0001097 0.0000087 0.0000906 0.0002664 -0.0009086 0.0003682 -0.0007633 0.0003466 -0.0006308 0.0003464 -0.0004606 -0.0000342 -0.0001434 0.0002709 -0.0002192 0.0001166 -0.0002106 -0.0001017 0.0000171 -0.0000847 0.0000667 -0.0001973 0.0000376 -0.0000713 0.0003036 0.0005812 -0.0005034 -0.0000018 0.0001725 0.0002169 -0.0005959 0.0001914 -0.0003310 0.0003068 -0.0004627 0.0006382 -0.0008293 0.0000064 0.0002112 -0.0000070 0.0001110 0.0000953 0.0000154 0.0009791 -0.0006430 0.0001337 -0.0001285 -0.0000243 -0.0003329 0.0003353 -0.0005975 -0.0000899 0.0002998 0.0000929 0.0000605 0.0001236 -0.0000049 0.0003717 -0.0006262 0.0002633 -0.0005708 0.0003699 -0.0005400 -0.0003118 0.0000972 0.0003510 -0.0008143 0.0001630 -0.0000124 -0.0000522 -0.0003234 0.0000767 -0.0003162 0.0004597 -0.0004432 0.0002142 -0.0003235 0.0001778 -0.0002214 0.0004662 -0.0009010 0.0002100 -0.0002157 0.0002895 -0.0004549 0.0002587 -0.0004127 0.0004001 -0.0004068 0.0001517 -0.0002974 0.0001680 -0.0003170 0.0002680 -0.0004364 0.0004759 -0.0004186 -0.0000062 -0.0003297 -0.0003006 0.0007506 0.0006052 -0.0010108 0.0013000 -0.0014788 0.0004042 -0.0005958 -0.0002872 0.0002047 0.0003387 -0.0002744 0.0004755 0.0002309 0.0001787 0.0000574 -0.0003055 0.0004022 0.0001118 -0.0003183 -0.0008671 0.0005547 -0.0002305 0.0000245 0.0001449 -0.0001655 0.0001876 -0.0004438
0.0000853 -0.0002057 0.0001545 -0.0000177 0.0002117 -0.0002907 -0.0000691 -0.0001009 -0.0000641 -0.0002788 0.0001933 -0.0004172 0.0002705 -0.0005096 0.0001526 -0.0004931 0.0002337 -0.0005973 0.0002359 -0.0004263 0.0004041 -0.0006351 0.0002463 -0.0003835 0.0002294 -0.0004730 0.0000182 -0.0006232 0.0002353 -0.0006694 0.0000241 -0.0002409 0.0002502 -0.0006519 0.0001899 -0.0006531 -0.0000660 -0.0005074 0.0000712 -0.0001542 0.0000919 -0.0002697 0.0001086 -0.0003137 0.0003802 -0.0004828 -0.0001070 -0.0004175 -0.0001428 0.0000144 0.0000208 -0.0001263 -0.0000557 0.0003514 -0.0000014 -0.0000576 -0.0000174 0.0003136 0.0001308 -0.0000636 0.0000351 -0.0001248 0.0003184 -0.0005573 0.0001540 -0.0002660 0.0002683 -0.0001399 0.0001146 -0.0004140 -0.0000986 0.0001293 0.0000027 -0.0000779 -0.0000240 -0.0000413 0.0001358 -0.0003112 0.0001011 -0.0000784 0.0002521 -0.0005032 0.0004042 -0.0004386 -0.0001003 0.0003483 -0.0000511 0.0000990 0.0001530 0.0000708 -0.0000409 0.0003368 0.0001763 -0.0006766 0.0002835 -0.0004250 0.0003131 -0.0004438 0.0003689 -0.0004125 -0.0000761 0.0001128 0.0001915 0.0000622 0.0001035 -0.0000070 -0.0000982 0.0001497 -0.0000819 0.0002156 -0.0001226 0.0001039 -0.0000779 0.0003849 0.0006503 -0.0004028 -0.0000021 0.0002380 0.0003456 -0.0005507 0.0002523 -0.0003352 0.0002458 -0.0001850 0.0000835 -0.0002434 -0.0000103 0.0002479 -0.0000004 0.0001077 0.0000729 0.0000945 0.0007412 -0.0011578 0.0001067 -0.0001284 0.0004106 -0.0005687 0.0004838 -0.0006099 -0.0001295 0.0003983 0.0000666 0.0001065 0.0001638 -0.0000158 0.0002623 -0.0004914 0.0000585 -0.0002322 0.0003780 -0.0004494 0.0004192 -0.0004637 0.0001794 -0.0003437 0.0001127 0.0000617 -0.0000415 -0.0002799 0.0000790 -0.0003112 0.0004453 -0.0005167 0.0002110 -0.0003485 0.0002252 -0.0002878 0.0003764 -0.0007213 0.0003103 -0.0003202 0.0003005 -0.0005007 0.0002669 -0.0004544 0.0004640 -0.0005416 0.0001396 -0.0003152 0.0002176 -0.0003663 0.0000411 -0.0002700 0.0001951 -0.0004069 0.0001731 -0.0005039 -0.0005141 0.0005072 0.0006908 -0.0010629 0.0003650 -0.0005985 0.0000239 -0.0003353 -0.0004117 0.0001469 0.0002822 -0.0002482 0.0004132 0.0001798 0.0001468 0.0000514 -0.0002794 0.0000293 0.0000904 -0.0003127 -0.0004346 0.0002778 0.0001639 -0.0003534 0.0001381 -0.0001857 0.0000445 -0.0004537
0.0000971 -0.0002454 0.0001874 -0.0000745 0.0002547 -0.0004018 -0.0000675 -0.0001137 -0.0000379 -0.0002774 0.0001711 -0.0004601 0.0003151 -0.0005546 0.0001890 -0.0005495 0.0002778 -0.0006318 0.0002568 -0.0004424 0.0004252 -0.0007052 0.0002655 -0.0004057 0.0002317 -0.0005305 0.0000638 -0.0004006 0.0002395 -0.0005598 0.0000555 -0.0001073 0.0002682 -0.0006115 0.0001890 -0.0005424 -0.0000606 -0.0004609 0.0000881 -0.0001408 0.0000902 -0.0001604 0.0000887 -0.0001941 0.0001781 -0.0002771 -0.0001104 -0.0003245 -0.0001679 0.0001427 -0.0000068 -0.0000332 -0.0000608 0.0004271 -0.0000540 0.0000694 -0.0000113 0.0003874 0.0001302 0.0000428 0.0000327 -0.0000363 0.0002458 -0.0003840 0.0001690 -0.0001789 0.0002728 0.0000197 0.0001819 -0.0004135 -0.0001015 0.0003956 -0.0000289 0.0000824 -0.0000396 0.0001237 0.0000924 -0.0001412 0.0000631 0.0000781 0.0002219 -0.0003813 0.0003158 -0.0001763 -0.0001290 0.0005772 -0.0000681 0.0002826 0.0001706 0.0001824 -0.0000737 0.0004793 0.0002474 -0.0005955 0.0003732 -0.0002772 0.0002465 -0.0002738 -0.0001116 0.0001532 -0.0001086 0.0002966 0.0000849 0.0002660 0.0000457 0.0001797 -0.0001020 0.0002535 -0.0000808 0.0003280 -0.0001138 0.0002235 -0.0001066 0.0004889 0.0000472 0.0003167 -0.0000124 0.0003360 0.0003201 -0.0003723 0.0002928 -0.0002405 0.0002116 0.0000307 -0.0004679 0.0002603 -0.0000263 0.0003955 -0.0000039 0.0002907 0.0000505 0.0002433 0.0000007 -0.0001425 0.0000790 0.0001386 0.0005126 -0.0002523 0.0004526 -0.0003397 -0.0001752 0.0005856 -0.0000519 0.0003830 0.0000906 0.0002214 0.0001506 -0.0001857 -0.0000389 0.0000869 0.0001947 -0.0000887 0.0008341 -0.0007559 0.0000686 -0.0000370 0.0000669 0.0002285 0.0001215 -0.0002288 0.0000812 -0.0001605 0.0005508 -0.0005122 0.0002201 -0.0001704 0.0001663 -0.0000188 0.0004201 -0.0006161 0.0002907 -0.0001450 0.0003120 -0.0003283 0.0001735 -0.0002414 0.0004518 -0.0004154 0.0001552 -0.0001844 0.0002429 -0.0001629 0.0003955 -0.0005064 -0.0001289 0.0001806 0.0004259 -0.0004925 -0.0005814 0.0007597 0.0004604 -0.0005963 0.0004239 -0.0006375 0.0001957 -0.0002296 -0.0000547 0.0001727 0.0001646 0.0000513 0.0004079 0.0005477 0.0000992 0.0001957 0.0004219 -0.0006696 0.0000751 -0.0001831 -0.0001753 0.0001383 0.0002000 -0.0002693 0.0001703 -0.0001078 0.0001979 -0.0003087
0.0000974 -0.0000404 0.0001944 0.0000410 0.0002556 -0.0001714 -0.0000582 0.0000671 -0.0000341 -0.0001692 0.0001504 -0.0002583 0.0002808 -0.0003618 0.0002155 -0.0004526 0.0002703 -0.0004393 0.0002235 -0.0003322 0.0004014 -0.0005935 0.0002776 -0.0003553 0.0002722 -0.0004895 0.0001184 -0.0001172 0.0002411 -0.0005077 0.0000650 0.0001912 0.0002845 -0.0005388 0.0001918 -0.0004044 -0.0001011 -0.0005590 0.0000163 -0.0000140 0.0000939 -0.0001090 0.0001160 -0.0001263 0.0002248 -0.0002534 -0.0001574 -0.0003531 -0.0001631 0.0001968 -0.0000478 0.0000730 -0.0000692 0.0004562 -0.0000823 0.0001378 -0.0000540 0.0003886 0.0000900 0.0000168 -0.0000064 -0.0000056 0.0002007 -0.0003590 0.0002383 -0.0002396 0.0002557 -0.0000027 0.0000669 -0.0003497 -0.0001168 0.0002757 -0.0000545 0.0000800 -0.0000587 0.0001183 0.0000337 -0.0001620 0.0000472 0.0000577 0.0000876 -0.0003050 0.0004220 -0.0002254 -0.0001691 0.0004916 -0.0001095 0.0002569 0.0001410 0.0001180 -0.0000906 0.0004049 0.0003683 -0.0005439 0.0004894 -0.0004011 0.0001660 -0.0001782 0.0000643 0.0001521 -0.0001453 0.0002399 0.0000277 0.0002743 -0.0000072 0.0001786 -0.0001192 0.0003341 -0.0000805 0.0003742 -0.0001172 0.0002299 -0.0001343 0.0004909 -0.0000799 0.0004719 -0.0000661 0.0003591 0.0002797 -0.0003936 0.0002948 -0.0002887 -0.0000801 0.0000159 -0.0002354 -0.0000282 -0.0000362 0.0004410 -0.0000380 0.0003888 0.0000770 0.0002740 0.0012506 -0.0005377 0.0000587 0.0002493 0.0003078 -0.0000466 0.0002595 -0.0001305 -0.0001994 0.0006547 -0.0000862 0.0004813 0.0000528 0.0002841 0.0001436 -0.0000841 0.0002645 -0.0000890 0.0001843 -0.0000557 0.0010339 -0.0007910 0.0003234 -0.0002874 0.0000739 0.0002785 0.0001509 -0.0000965 0.0000237 -0.0000243 0.0006425 -0.0004270 0.0002256 -0.0000727 0.0001278 0.0001511 0.0003254 -0.0005866 0.0002748 -0.0000275 0.0003074 -0.0002149 0.0001508 -0.0001089 0.0004326 -0.0002399 0.0001973 -0.0001059 0.0001371 0.0000747 -0.0001378 0.0001673 0.0000476 0.0002719 0.0002825 -0.0002248 0.0004832 0.0003073 0.0001693 -0.0002576 -0.0001200 -0.0000299 0.0002447 -0.0001122 0.0002958 0.0001622 0.0001264 0.0001973 0.0004082 0.0008410 0.0001403 0.0002819 -0.0002930 -0.0001918 0.0000540 -0.0000892 -0.0002034 0.0003382 0.0000994 -0.0000002 0.0001885 0.0000178 -0.0000863 0.0002099
0.0000889 0.0001695 0.0001755 0.0001843 0.0002803 0.0000195 -0.0000958 0.0003038 -0.0000370 -0.0000161 0.0001434 0.0000251 0.0002813 -0.0000977 0.0002175 -0.0002424 0.0002494 -0.0001597 0.0001883 -0.0001562 0.0003590 -0.0003717 0.0002617 -0.0001910 0.0002259 -0.0002843 0.0001542 0.0001892 0.0002204 -0.0002518 0.0000837 0.0007425 0.0002814 -0.0002824 0.0001887 -0.0000508 -0.0002024 -0.0005270 -0.0001060 0.0004143 0.0000797 0.0002130 0.0001144 0.0000757 0.0003217 -0.0001316 -0.0002344 -0.0002907 -0.0002008 0.0002798 -0.0000852 0.0002841 -0.0000771 0.0005460 -0.0000699 0.0003344 -0.0000694 0.0004827 0.0000366 0.0002481 -0.0000544 0.0001945 0.0002344 -0.0002348 0.0002191 -0.0000913 0.0002109 0.0002179 -0.0000257 -0.0000519 -0.0001460 0.0003153 -0.0000443 0.0001900 -0.0000874 0.0001890 0.0000581 -0.0001444 0.0000353 0.0001028 0.0001113 -0.0001776 0.0003877 -0.0002652 -0.0002457 0.0005507 -0.0001615 0.0003523 0.0000464 0.0001676 -0.0001124 0.0004427 0.0005243 -0.0005141 0.0004257 -0.0002526 0.0000367 -0.0000356 0.0004970 -0.0002826 -0.0001934 0.0002744 -0.0000075 0.0003563 -0.0000561 0.0002569 -0.0000921 0.0004116 -0.0000629 0.0004456 -0.0001195 0.0002602 -0.0001073 0.0004564 -0.0000196 0.0003674 -0.0000664 0.0003610 0.0002942 -0.0003621 0.0002540 -0.0002785 -0.0002641 0.0000551 -0.0000582 -0.0001219 -0.0000528 0.0004277 -0.0000612 0.0003963 0.0000577 0.0003228 0.0014590 -0.0005176 -0.0000098 0.0002674 0.0001036 0.0000573 0.0002967 -0.0001052 -0.0002206 0.0006496 -0.0000480 0.0004355 0.0000279 0.0002508 -0.0000812 0.0000878 0.0007895 -0.0005590 0.0002159 -0.0000854 0.0009319 -0.0008689 0.0003413 -0.0002432 0.0000036 0.0003210 0.0000590 -0.0000063 -0.0000218 0.0000311 0.0006019 -0.0004057 0.0002183 -0.0001097 0.0001405 0.0001246 0.0005523 -0.0007864 0.0003041 -0.0000834 0.0003265 -0.0002549 0.0002736 -0.0002137 0.0003339 -0.0001498 0.0002087 -0.0001192 0.0001700 -0.0000008 -0.0001100 0.0001476 -0.0000175 0.0001310 0.0000085 -0.0000796 0.0009677 -0.0001427 0.0001345 -0.0003440 0.0004712 -0.0004766 0.0001971 -0.0000370 0.0000608 0.0001317 0.0000785 0.0001213 0.0002881 0.0008088 0.0001909 0.0002045 0.0002851 -0.0002246 0.0000484 -0.0001206 -0.0001602 0.0004253 0.0002071 -0.0000724 0.0000868 0.0000854 -0.0000003 0.0001812
0.0000930 0.0001308 0.0001671 0.0001759 0.0002919 -0.0000652 -0.0001216 0.0003678 -0.0000458 0.0000560 0.0001108 0.0001432 0.0003324 -0.0000737 0.0002019 -0.0001601 0.0002623 -0.0000668 0.0001962 -0.0001135 0.0003031 -0.0002377 0.0002378 -0.0000878 0.0001336 -0.0001795 0.0001696 0.0003160 0.0001939 -0.0001148 0.0000788 0.0008330 0.0002799 -0.0001322 0.0002347 0.0001603 -0.0002382 -0.0003617 -0.0001464 0.0006180 0.0000735 0.0003922 0.0000599 0.0002311 0.0001064 0.0000278 -0.0002550 -0.0002000 -0.0002358 0.0003386 -0.0000735 0.0003228 -0.0000961 0.0005949 -0.0000944 0.0004661 -0.0000464 0.0005673 0.0000138 0.0004191 -0.0000854 0.0003648 0.0002848 -0.0000630 0.0001678 0.0000316 0.0001902 0.0003211 -0.0000337 0.0001348 -0.0001514 0.0006860 -0.0000455 0.0003911 -0.0000864 0.0003288 0.0001181 -0.0000352 -0.0000360 0.0003008 0.0000422 0.0000306 0.0000605 -0.0000281 -0.0002313 0.0007295 -0.0001909 0.0005398 -0.0000409 0.0004088 -0.0001542 0.0006130 0.0003984 -0.0002968 0.0002382 0.0001119 0.0001071 0.0000147 0.0004228 0.0000710 -0.0002115 0.0004597 0.0000766 0.0004569 -0.0000874 0.0004655 -0.0000721 0.0004921 -0.0000718 0.0005508 -0.0001396 0.0003465 -0.0001122 0.0005054 0.0000728 0.0002728 -0.0000399 0.0004101 0.0002723 -0.0001926 0.0002140 -0.0001694 0.0002098 -0.0001706 -0.0000755 0.0003225 -0.0000754 0.0004439 -0.0000807 0.0004198 0.0000366 0.0004097 0.0003165 0.0001809 -0.0000513 0.0003210 0.0000694 0.0001955 0.0002698 -0.0000636 -0.0002366 0.0006479 -0.0000439 0.0004291 0.0000104 0.0002490 -0.0000627 0.0000264 0.0005966 -0.0002514 0.0002938 -0.0000494 0.0008807 -0.0011413 -0.0001526 0.0002970 -0.0000508 0.0003834 0.0000338 0.0000097 0.0000639 0.0000350 0.0005427 -0.0003733 0.0002009 -0.0001409 0.0001480 0.0001095 0.0007290 -0.0008555 0.0003021 -0.0000452 0.0003024 -0.0002075 0.0002683 -0.0001461 0.0002091 -0.0000923 0.0002052 -0.0001444 0.0002320 -0.0000869 0.0004171 -0.0002877 -0.0001079 0.0000453 -0.0000501 -0.0000680 0.0003728 0.0001880 0.0001620 -0.0003765 0.0010169 -0.0007928 0.0003650 -0.0002473 0.0000562 -0.0001823 0.0000199 0.0001602 0.0002014 0.0007459 0.0000903 0.0002088 0.0007065 -0.0000214 0.0000321 -0.0001372 -0.0000949 0.0003615 0.0003712 -0.0002496 0.0000499 0.0000428 -0.0000416 0.0000371
0.0000981 0.0000310 0.0001617 0.0001103 0.0002876 -0.0001618 -0.0000899 0.0003225 -0.0000506 0.0000566 0.0001233 0.0000522 0.0003274 -0.0001599 0.0002046 -0.0002246 0.0002691 -0.0000889 0.0002046 -0.0001400 0.0003102 -0.0002960 0.0002408 -0.0001317 0.0001933 -0.0002745 0.0001674 0.0002468 0.0001847 -0.0002119 0.0000478 0.0005523 0.0002805 -0.0002125 0.0002560 0.0000895 -0.0002048 -0.0003759 -0.0001519 0.0004433 0.0000774 0.0002552 0.0000514 0.0001710 0.0000120 0.0000120 -0.0002508 -0.0002803 -0.0002261 0.0002539 -0.0000660 0.0002488 -0.0001133 0.0005226 -0.0001173 0.0003970 -0.0000494 0.0004918 -0.0000012 0.0003108 -0.0000708 0.0002839 0.0003104 -0.0001485 0.0001924 -0.0000242 0.0002018 0.0001769 0.0000170 -0.0000047 -0.0001490 0.0007974 -0.0000771 0.0004292 -0.0000852 0.0003268 0.0000395 -0.0000163 -0.0000800 0.0003753 -0.0000415 0.0000354 0.0000633 0.0000019 -0.0002230 0.0007271 -0.0001819 0.0005749 -0.0000949 0.0005117 -0.0001581 0.0006075 -0.0002409 0.0000982 0.0004227 -0.0000187 0.0000514 0.0001453 0.0000882 0.0004676 -0.0002057 0.0005198 0.0002078 0.0003752 -0.0000788 0.0005117 -0.0001051 0.0005109 -0.0001038 0.0005950 -0.0001766 0.0003770 -0.0001659 0.0005731 0.0000253 0.0004418 -0.0000547 0.0004619 0.0003605 -0.0001387 0.0001260 -0.0000311 0.0002888 -0.0001911 -0.0001806 0.0005404 -0.0000917 0.0005080 -0.0001136 0.0005164 0.0000372 0.0004673 0.0002605 0.0000014 -0.0000284 0.0004698 0.0002439 0.0001671 0.0002630 0.0000700 -0.0002371 0.0007258 -0.0000479 0.0004734 0.0000991 0.0002001 0.0001827 -0.0000722 0.0001588 0.0003307 0.0002457 0.0001294 0.0005554 -0.0009910 -0.0001300 0.0003729 0.0000013 0.0003847 -0.0000032 0.0001360 0.0000917 0.0000874 0.0004388 -0.0001661 0.0002032 -0.0000573 0.0001883 0.0001896 0.0004729 -0.0005032 0.0003361 -0.0000105 0.0002267 -0.0000376 0.0000995 0.0001086 0.0002201 -0.0000748 0.0002068 -0.0001126 0.0001752 0.0001052 0.0003254 -0.0002047 -0.0001578 0.0001595 -0.0001108 -0.0000068 0.0000471 0.0003361 0.0002773 -0.0004502 0.0003151 0.0001001 0.0002231 -0.0001302 0.0003070 -0.0003662 0.0000102 0.0001442 0.0002093 0.0005698 0.0000597 0.0001672 0.0009228 -0.0006101 -0.0000529 -0.0001118 -0.0000991 0.0001578 0.0005586 -0.0004082 0.0000239 0.0000285 0.0001944 -0.0003640
0.0001088 -0.0000751 0.0001764 0.0000264 0.0003018 -0.0003220 -0.0000613 0.0002672 -0.0000388 0.0000330 0.0001545 -0.0000910 0.0003148 -0.0002683 0.0001902 -0.0002879 0.0002721 -0.0001352 0.0002196 -0.0001697 0.0003300 -0.0003951 0.0002452 -0.0001721 0.0003003 -0.0003737 0.0001625 0.0001272 0.0001622 -0.0003452 0.0000344 0.0004977 0.0002819 -0.0003146 0.0002466 -0.0000546 -0.0001898 -0.0005031 -0.0001659 0.0002450 0.0000812 0.0001109 0.0000774 0.0000600 0.0001256 -0.0001073 -0.0002509 -0.0004038 -0.0002353 0.0001317 -0.0000509 0.0001995 -0.0001189 0.0004100 -0.0001160 0.0002696 -0.0000765 0.0003396 0.0000192 0.0000955 -0.0000728 0.0001148 0.0002761 -0.0003044 0.0001947 -0.0001070 0.0002486 -0.0000312 0.0000054 -0.0002421 -0.0001744 0.0003295 -0.0001002 0.0002258 -0.0001139 0.0001298 -0.0000104 -0.0002434 -0.0000300 0.0001550 -0.0000278 -0.0001739 0.0003328 -0.0002296 -0.0002207 0.0003604 -0.0001729 0.0003095 0.0000104 0.0001343 -0.0001179 0.0002849 -0.0000905 -0.0003535 0.0005537 -0.0004245 0.0000710 0.0000257 0.0003053 0.0000333 -0.0001732 0.0002410 0.0001827 0.0002371 -0.0000460 0.0002400 -0.0001397 0.0003654 -0.0001210 0.0004680 -0.0002483 0.0002674 -0.0001625 0.0004613 -0.0000829 0.0005521 -0.0000126 0.0003364 0.0003753 -0.0002446 0.0001134 -0.0000793 -0.0000944 0.0000194 -0.0001610 0.0000281 -0.0000994 0.0004496 -0.0000976 0.0004565 0.0000362 0.0004055 0.0000048 0.0000900 -0.0000561 0.0004969 0.0001055 0.0002058 0.0002783 0.0000383 -0.0001781 0.0006395 -0.0000419 0.0004377 0.0001519 0.0000971 0.0000833 -0.0001145 0.0003748 0.0001528 0.0001008 0.0002259 0.0000047 -0.0000488 -0.0005575 0.0007469 0.0000334 0.0003200 -0.0000938 0.0001772 0.0000593 0.0000836 0.0005756 -0.0003167 0.0002134 -0.0000331 0.0002140 0.0001960 0.0001097 -0.0003568 0.0003814 -0.0000669 0.0002302 -0.0000272 0.0001302 0.0000801 0.0003440 -0.0002072 0.0002173 -0.0001055 0.0001362 0.0002051 0.0001360 0.0000268 0.0002705 -0.0000308 0.0000485 -0.0000622 0.0006021 -0.0000441 0.0002352 -0.0003895 0.0003092 -0.0001657 -0.0001557 0.0001383 0.0003118 -0.0001147 0.0000262 0.0001133 0.0002055 0.0006877 0.0001649 0.0000936 0.0006612 -0.0008372 0.0000197 -0.0002032 0.0001270 -0.0000993 0.0003167 -0.0002070 -0.0000115 -0.0000155 0.0000142 -0.0001206
0.0001236 -0.0000523 0.0002039 0.0000478 0.0002805 -0.0002346 -0.0000696 0.0003111 -0.0000411 0.0000296 0.0001782 -0.0000492 0.0002990 -0.0002414 0.0001443 -0.0001992 0.0002378 -0.0000929 0.0002067 -0.0001402 0.0003356 -0.0003527 0.0002562 -0.0001503 0.0001516 -0.0002367 0.0001297 -0.0000161 0.0001454 -0.0004495 0.0000169 0.0004754 0.0002908 -0.0003871 0.0002675 -0.0001915 -0.0001858 -0.0005932 -0.0001386 0.0001131 0.0000796 -0.0000037 0.0000709 -0.0000322 0.0002267 -0.0002476 -0.0002513 -0.0005356 -0.0002275 -0.0000080 -0.0000502 0.0001353 -0.0001312 0.0003188 -0.0000839 0.0001310 -0.0000836 0.0002356 0.0000387 -0.0000614 -0.0000702 -0.0000005 0.0001985 -0.0003723 0.0001971 -0.0002096 0.0002665 -0.0002122 -0.0000344 -0.0003459 -0.0001684 -0.0000235 -0.0001097 0.0000476 -0.0001256 -0.0000159 0.0000636 -0.0004669 0.0000399 -0.0000250 0.0000523 -0.0003967 0.0004334 -0.0003619 -0.0000870 -0.0000192 -0.0001138 -0.0000168 0.0001447 -0.0002067 -0.0000616 0.0000026 0.0001063 -0.0004491 0.0004170 -0.0005111 0.0002246 -0.0002269 0.0002997 -0.0001176 -0.0001293 -0.0000003 0.0001270 0.0001273 -0.0000030 -0.0000104 -0.0001350 0.0002106 -0.0001265 0.0003223 -0.0001948 0.0000340 -0.0001726 0.0003467 0.0001577 0.0002588 -0.0000344 0.0002172 0.0003990 -0.0004483 0.0002337 -0.0003040 0.0001943 -0.0002743 -0.0000715 -0.0001530 -0.0001002 0.0002208 -0.0000654 0.0001956 0.0000631 0.0002394 -0.0007512 0.0005384 -0.0000440 0.0001910 -0.0001870 0.0001440 0.0002993 -0.0002887 -0.0000773 0.0003453 0.0000120 0.0001798 0.0002025 -0.0001804 0.0001025 -0.0004470 0.0006161 -0.0003055 0.0001560 0.0000157 0.0004738 -0.0003628 -0.0000399 0.0001210 0.0001486 0.0000677 -0.0000212 -0.0000769 0.0001104 -0.0001406 0.0006389 -0.0005470 0.0002388 -0.0002758 0.0001944 -0.0000414 0.0000677 -0.0004640 0.0003536 -0.0002115 0.0002958 -0.0002625 0.0002046 -0.0001797 0.0004059 -0.0004320 0.0002258 -0.0002576 0.0001540 -0.0000580 0.0001885 -0.0001636 0.0002464 -0.0002398 0.0003756 -0.0004952 0.0010508 -0.0004777 0.0000449 -0.0003933 0.0013194 -0.0012304 0.0001047 -0.0001799 0.0005043 -0.0002586 0.0000374 0.0000341 0.0002590 0.0005768 0.0002004 0.0000235 0.0011769 -0.0017458 0.0001368 -0.0003634 0.0001858 -0.0001378 -0.0000019 -0.0000273 0.0000932 -0.0002162 -0.0003405 0.0002156
0.0001292 -0.0001145 0.0002249 0.0000185 0.0002757 -0.0002595 -0.0000772 0.0002537 -0.0000412 -0.0000285 0.0001704 -0.0000807 0.0003238 -0.0003374 0.0001014 -0.0001801 0.0002053 -0.0001773 0.0002021 -0.0001632 0.0003489 -0.0003751 0.0002637 -0.0001510 0.0001260 -0.0002089 0.0000618 -0.0002329 0.0001717 -0.0005250 0.0000026 0.0003313 0.0002988 -0.0004357 0.0002354 -0.0002848 -0.0001574 -0.0005957 -0.0001390 0.0000774 0.0000632 -0.0000162 0.0000754 -0.0001091 0.0002554 -0.0002813 -0.0002404 -0.0006046 -0.0002372 -0.0000817 -0.0000298 0.0000715 -0.0001466 0.0003048 -0.0000280 0.0000783 -0.0000708 0.0002505 0.0000441 0.0000495 0.0000003 -0.0000045 0.0001607 -0.0003289 0.0001740 -0.0001216 0.0002745 -0.0000987 -0.0000253 -0.0002274 -0.0001718 0.0000667 -0.0000931 0.0000648 -0.0001020 0.0000042 0.0001053 -0.0004922 0.0001184 -0.0000305 0.0000294 -0.0003250 0.0005439 -0.0003820 -0.0000135 -0.0000266 -0.0000619 -0.0000879 0.0002477 -0.0002477 0.0000274 -0.0000857 -0.0000203 -0.0002143 0.0005554 -0.0006744 0.0001917 -0.0002711 0.0001897 -0.0001213 -0.0000933 -0.0000976 0.0001358 0.0000858 0.0000572 -0.0001533 -0.0001214 0.0001135 -0.0001333 0.0002126 -0.0001499 -0.0001360 -0.0001832 0.0002846 0.0000690 0.0001515 -0.0000796 0.0001647 0.0003645 -0.0005039 0.0002614 -0.0003522 0.0002322 -0.0003273 -0.0000045 -0.0002144 -0.0001041 0.0000894 -0.0000543 0.0000352 0.0000698 0.0001346 -0.0006255 0.0004609 0.0000247 -0.0000339 -0.0000231 -0.0002023 0.0003094 -0.0004947 -0.0000660 0.0002202 0.0000692 0.0000004 0.0002091 -0.0002963 0.0001925 -0.0006146 0.0004012 -0.0004154 0.0002854 -0.0002621 0.0005805 -0.0005845 0.0004709 -0.0004089 0.0001903 -0.0000602 -0.0000148 -0.0002555 0.0000930 -0.0002707 0.0006964 -0.0007179 0.0002855 -0.0004686 0.0001842 -0.0002035 0.0004361 -0.0006398 0.0003686 -0.0003603 0.0003051 -0.0004109 0.0001952 -0.0002659 0.0003374 -0.0004763 0.0002268 -0.0003953 0.0001644 -0.0002199 0.0005079 -0.0007305 0.0003816 -0.0006695 0.0005367 -0.0007551 0.0009605 -0.0009354 -0.0001998 -0.0004222 0.0014492 -0.0014580 0.0004870 -0.0004516 0.0006668 -0.0006495 0.0001192 -0.0001999 0.0003112 0.0001873 0.0002548 -0.0001579 0.0014186 -0.0022478 0.0000854 -0.0004525 -0.0002114 -0.0000584 0.0001179 -0.0002938 0.0001072 -0.0003238 -0.0002141 -0.0001717
0.0001446 -0.0003971 0.0002125 -0.0001835 0.0003256 -0.0006265 -0.0000231 -0.0000288 -0.0000336 -0.0001550 0.0001788 -0.0004286 0.0003277 -0.0006307 0.0000792 -0.0003988 0.0001912 -0.0004525 0.0002356 -0.0003065 0.0003582 -0.0005220 0.0002295 -0.0002335 0.0001373 -0.0003342 0.0000122 -0.0005580 0.0001846 -0.0007343 -0.0000035 0.0000251 0.0002974 -0.0005566 0.0002130 -0.0004700 -0.0001093 -0.0006457 -0.0001026 -0.0000417 0.0000500 -0.0000996 0.0001138 -0.0002258 0.0002263 -0.0003098 -0.0002072 -0.0006387 -0.0002350 -0.0001483 -0.0000333 -0.0000024 -0.0001607 0.0002798 0.0000106 -0.0000123 -0.0000883 0.0002564 0.0001104 0.0000301 0.0000244 -0.0000187 0.0002447 -0.0003946 0.0002158 -0.0001681 0.0002820 -0.0000976 -0.0000247 -0.0002154 -0.0001696 0.0002195 -0.0000728 0.0000758 -0.0000887 0.0000355 0.0001323 -0.0004671 0.0001298 0.0000017 0.0000360 -0.0002752 0.0005223 -0.0002918 0.0000276 0.0000552 0.0000007 -0.0000552 0.0003421 -0.0003016 0.0001302 -0.0001307 0.0006921 -0.0007983 0.0005997 -0.0006063 0.0001114 -0.0002085 0.0002624 -0.0001757 -0.0000694 -0.0000231 0.0001605 0.0001061 0.0000809 -0.0001613 -0.0001393 0.0000936 -0.0001478 0.0002207 -0.0001983 -0.0000969 -0.0001632 0.0003058 0.0000489 0.0001317 -0.0000688 0.0001743 0.0003489 -0.0004490 0.0002945 -0.0002740 -0.0000004 -0.0001720 0.0001456 -0.0001372 -0.0000924 0.0001542 -0.0000375 0.0000887 0.0000945 0.0001070 -0.0007050 0.0009959 0.0000195 0.0001243 0.0000413 -0.0001498 0.0001292 -0.0001656 -0.0000758 0.0003043 0.0001090 0.0000567 0.0001916 -0.0001895 0.0003921 -0.0006684 0.0001056 -0.0001273 0.0002466 -0.0002344 0.0004032 -0.0002482 0.0007169 -0.0004047 0.0002028 -0.0000514 -0.0001537 -0.0001639 0.0000768 -0.0002509 0.0006112 -0.0006679 0.0002860 -0.0004434 0.0002023 -0.0001800 0.0006237 -0.0006788 0.0003897 -0.0003654 0.0002999 -0.0003701 0.0002468 -0.0002564 0.0002536 -0.0004066 0.0002825 -0.0005053 0.0001911 -0.0002454 0.0005982 -0.0009871 0.0006521 -0.0008929 0.0004788 -0.0006676 0.0010136 -0.0011580 0.0000161 -0.0006296 0.0002903 -0.0007244 0.0001592 -0.0001584 0.0003206 -0.0005476 0.0002614 -0.0004502 0.0002768 0.0001471 0.0002846 -0.0002567 0.0002107 -0.0013434 0.0000707 -0.0005008 0.0000991 -0.0004606 0.0000438 -0.0003195 0.0000279 -0.0002833 -0.0003440 -0.0002356
0.0001516 -0.0005373 0.0001727 -0.0002697 0.0003297 -0.0007819 0.0000104 -0.0001986 -0.0000339 -0.0002375 0.0002227 -0.0006776 0.0002730 -0.0007448 0.0000582 -0.0005498 0.0001541 -0.0006050 0.0002523 -0.0003985 0.0004078 -0.0006511 0.0002674 -0.0003546 0.0001914 -0.0004964 -0.0000127 -0.0007814 0.0001762 -0.0009040 -0.0000090 -0.0001901 0.0002997 -0.0007000 0.0002142 -0.0006674 -0.0000746 -0.0007717 -0.0000587 -0.0001945 0.0000458 -0.0002637 0.0001253 -0.0003262 0.0001490 -0.0003172 -0.0001744 -0.0007107 -0.0002094 -0.0002391 -0.0000606 -0.0000814 -0.0001604 0.0002062 0.0000603 -0.0002034 -0.0000820 0.0001038 0.0002052 -0.0002658 0.0000504 -0.0001778 0.0003153 -0.0006409 0.0002531 -0.0004116 0.0002776 -0.0003442 0.0000138 -0.0004639 -0.0001578 -0.0000431 -0.0000704 -0.0001169 -0.0001034 -0.0000731 0.0002075 -0.0006704 0.0001401 -0.0001538 0.0000964 -0.0004607 0.0003533 -0.0003290 0.0001207 -0.0001840 0.0000594 -0.0002390 0.0004213 -0.0005472 0.0002170 -0.0003142 0.0007637 -0.0009364 0.0003469 -0.0005383 0.0000865 -0.0002049 0.0002791 -0.0002359 -0.0000252 -0.0000752 0.0002050 -0.0000521 0.0000930 -0.0002267 -0.0001597 0.0000863 -0.0001663 0.0002408 -0.0002233 -0.0000430 -0.0001818 0.0003487 0.0000738 0.0001454 -0.0000684 0.0001885 0.0002949 -0.0004608 0.0003144 -0.0003176 0.0001219 -0.0003505 -0.0000754 0.0001964 -0.0000710 0.0001960 -0.0000245 0.0001377 0.0001177 0.0000571 -0.0003225 0.0005340 -0.0000020 0.0002283 -0.0003208 0.0002892 0.0000962 -0.0000247 -0.0000379 0.0003137 0.0001442 0.0000796 0.0002817 -0.0002466 0.0003843 -0.0005096 0.0002171 -0.0001483 0.0001007 -0.0000720 0.0004696 -0.0001925 0.0006606 -0.0003467 0.0002225 -0.0000808 -0.0000278 -0.0002344 0.0000873 -0.0002324 0.0004488 -0.0005169 0.0002863 -0.0003707 0.0001910 -0.0001112 0.0004145 -0.0004365 0.0003613 -0.0002976 0.0002966 -0.0003007 0.0001872 -0.0001818 0.0002888 -0.0003535 0.0002835 -0.0004531 0.0002404 -0.0002513 0.0005687 -0.0008732 0.0006717 -0.0007127 0.0004830 -0.0007125 0.0009264 -0.0008474 0.0004832 -0.0008311 -0.0002877 -0.0002210 0.0004518 -0.0003455 0.0001750 -0.0003433 0.0003166 -0.0003891 0.0003209 0.0002556 0.0003247 -0.0001700 -0.0007947 -0.0006928 0.0000389 -0.0004192 0.0005163 -0.0007736 0.0002061 -0.0004265 0.0000478 -0.0002265 -0.0003210 -0.0002749
0.0001551 -0.0003833 0.0001977 -0.0001904 0.0002827 -0.0005629 -0.0000280 -0.0000664 -0.0000312 -0.0002296 0.0002442 -0.0005395 0.0003090 -0.0006866 0.0000376 -0.0004442 0.0001322 -0.0005534 0.0002515 -0.0003892 0.0004383 -0.0006365 0.0002908 -0.0003183 0.0003227 -0.0005420 -0.0000328 -0.0007499 0.0001899 -0.0008664 -0.0000105 -0.0001931 0.0003044 -0.0007088 0.0001818 -0.0006754 -0.0000508 -0.0007669 -0.0001045 -0.0001219 0.0000382 -0.0002856 0.0001411 -0.0003093 0.0000989 -0.0002859 -0.0001640 -0.0007003 -0.0001937 -0.0002312 -0.0000218 -0.0001292 -0.0001634 0.0002166 0.0000478 -0.0002289 -0.0000545 0.0000274 0.0002165 -0.0003667 0.0000591 -0.0002147 0.0002900 -0.0007055 0.0002467 -0.0005236 0.0003111 -0.0004531 0.0000766 -0.0006316 -0.0001755 -0.0002732 -0.0000590 -0.0002443 -0.0000814 -0.0001585 0.0002818 -0.0008503 0.0002155 -0.0003318 0.0000447 -0.0004849 0.0003180 -0.0003983 0.0001193 -0.0003627 0.0001118 -0.0004119 0.0004501 -0.0006869 0.0002370 -0.0004480 0.0003176 -0.0006910 0.0004027 -0.0007348 0.0001021 -0.0003110 0.0006329 -0.0006277 0.0000333 -0.0002582 0.0001801 -0.0001834 0.0001469 -0.0003868 -0.0001698 0.0001052 -0.0001834 0.0002171 -0.0002156 -0.0000203 -0.0001796 0.0003006 0.0001469 -0.0000557 -0.0000279 0.0001265 0.0002336 -0.0005481 0.0003255 -0.0004257 0.0000275 -0.0002354 -0.0004307 0.0002640 -0.0000682 0.0001050 -0.0000161 0.0000268 0.0001360 -0.0000300 0.0003182 -0.0008053 0.0000171 0.0000262 -0.0003740 0.0001283 0.0002614 -0.0003832 -0.0000055 0.0001658 0.0001779 -0.0000808 0.0003233 -0.0004001 0.0002150 -0.0005062 0.0003657 -0.0004857 0.0000137 -0.0001486 0.0001557 0.0000060 -0.0001370 -0.0000484 0.0002423 -0.0001521 0.0001355 -0.0004303 0.0001700 -0.0003964 0.0004704 -0.0005953 0.0003179 -0.0004802 0.0002321 -0.0002869 0.0005095 -0.0006150 0.0003766 -0.0003759 0.0003132 -0.0004136 0.0000511 -0.0001216 0.0003352 -0.0003688 0.0002420 -0.0004088 0.0001999 -0.0002774 0.0006670 -0.0007463 0.0005829 -0.0005734 0.0003521 -0.0007080 0.0005845 -0.0003889 0.0005070 -0.0007733 -0.0006410 0.0002973 0.0004568 -0.0004359 0.0000893 -0.0001603 0.0003248 -0.0003328 0.0004007 0.0002012 0.0004282 -0.0001915 -0.0003385 -0.0009541 0.0000367 -0.0003751 -0.0001580 -0.0002540 0.0004507 -0.0006404 0.0000543 -0.0002446 0.0002146 -0.0006073
