-0.0000000 -0.0000000 -0.0000000 -0.0000000 -0.0000000 -0.0000000 -0.0000000 -0.0000000 -0.0000000 -0.0000000 -0.0000000 -0.0000000 -0.0000000 -0.0000000 -0.0000000 -0.0000000 -0.0000000 -0.0000000 -0.0000000 -0.0000000 -0.0000000 -0.0000000 -0.0000000 -0.0000000 -0.0000000 -0.0000000 -0.0000000 -0.0000000 -0.0000000 -0.0000000 -0.0000000 -0.0000000 -0.0000000 -0.0000000 -0.0000000 -0.0000000 -0.0000000 -0.0000000 -0.0000000 -0.0000000 -0.0000000 -0.0000000 -0.0000000 -0.0000000 -0.0000000 -0.0000000 -0.0000000 -0.0000000 -0.0000000 -0.0000000 -0.0000000 -0.0000000 -0.0000000 -0.0000000 -0.0000000 -0.0000000 -0.0000000 -0.0000000 -0.0000000 -0.0000000 -0.0000000 -0.0000000 -0.0000000 -0.0000000 -0.0000000 -0.0000000 -0.0000000 -0.0000000 -0.0000000 -0.0000000 -0.0000000 -0.0000000 -0.0000000 -0.0000000 -0.0000000 -0.0000000 -0.0000000 -0.0000000 -0.0000000 -0.0000000 -0.0000000 -0.0000000 -0.0000000 -0.0000000 -0.0000000 -0.0000000 -0.0000000 -0.0000000 -0.0000000 -0.0000000 -0.0000000 -0.0000000 -0.0000000 -0.0000000 -0.0000000 -0.0000000 -0.0000000 -0.0000000 -0.0000000 -0.0000000 -0.0000000 -0.0000000 -0.0000000 -0.0000000 -0.0000000 -0.0000000 -0.0000000 -0.0000000 -0.0000000 -0.0000000 -0.0000000 -0.0000000 -0.0000000 -0.0000000 -0.0000000 -0.0000000 -0.0000000 -0.0000000 -0.0000000 -0.0000000 -0.0000000 -0.0000000 -0.0000000 -0.0000000 -0.0000000 -0.0000000 -0.0000000 -0.0000000 -0.0000000 -0.0000000 -0.0000000 -0.0000000 -0.0000000 -0.0000000 -0.0000000 -0.0000000 -0.0000000 -0.0000000 -0.0000000 -0.0000000 -0.0000000 -0.0000000 -0.0000000 -0.0000000 -0.0000000 -0.0000000 -0.0000000 -0.0000000 -0.0000000 -0.0000000 -0.0000000 -0.0000000 -0.0000000 -0.0000000 -0.0000000 -0.0000000 -0.0000000 -0.0000000 -0.0000000 -0.0000000 -0.0000000 -0.0000000 -0.0000000 -0.0000000 -0.0000000 -0.0000000 -0.0000000 -0.0000000 -0.0000000 -0.0000000 -0.0000000 -0.0000000 -0.0000000 -0.0000000 -0.0000000 -0.0000000 -0.0000000 -0.0000000 -0.0000000 -0.0000000 -0.0000000 -0.0000000 -0.0000000 -0.0000000 -0.0000000 -0.0000000 -0.0000000 -0.0000000 -0.0000000 -0.0000000 -0.0000000 -0.0000000 -0.0000000 -0.0000000 -0.0000000 -0.0000000 -0.0000000 -0.0000000 -0.0000000 -0.0000000 -0.0000000 -0.0000000 -0.0000000 -0.0000000 -0.0000000 -0.0000000 -0.0000000 -0.0000000 -0.0000000 -0.0000000 -0.0000000 -0.0000000 -0.0000000 -0.0000000 -0.0000000 -0.0000000
-0.0000000 -0.0000000 -0.0000000 -0.0000000 -0.0000000 -0.0000000 -0.0000000 -0.0000000 -0.0000000 -0.0000000 -0.0000000 -0.0000000 -0.0000000 -0.0000000 -0.0000000 -0.0000000 -0.0000000 -0.0000000 -0.0000000 -0.0000000 -0.0000000 -0.0000000 -0.0000000 -0.0000000 -0.0000000 -0.0000000 -0.0000000 -0.0000000 -0.0000000 -0.0000000 -0.0000000 -0.0000000 -0.0000000 -0.0000000 -0.0000000 -0.0000000 -0.0000000 -0.0000000 -0.0000000 -0.0000000 -0.0000000 -0.0000000 -0.0000000 -0.0000000 -0.0000000 -0.0000000 -0.0000000 -0.0000000 -0.0000000 -0.0000000 -0.0000000 -0.0000000 -0.0000000 -0.0000000 -0.0000000 -0.0000000 -0.0000000 -0.0000000 -0.0000000 -0.0000000 -0.0000000 -0.0000000 -0.0000000 -0.0000000 -0.0000000 -0.0000000 -0.0000000 -0.0000000 -0.0000000 -0.0000000 -0.0000000 -0.0000000 -0.0000000 -0.0000000 -0.0000000 -0.0000000 -0.0000000 -0.0000000 -0.0000000 -0.0000000 -0.0000000 -0.0000000 -0.0000000 -0.0000000 -0.0000000 -0.0000000 -0.0000000 -0.0000000 -0.0000000 -0.0000000 -0.0000000 -0.0000000 -0.0000000 -0.0000000 -0.0000000 -0.0000000 -0.0000000 -0.0000000 -0.0000000 -0.0000000 -0.0000000 -0.0000000 -0.0000000 -0.0000000 -0.0000000 -0.0000000 -0.0000000 -0.0000000 -0.0000000 -0.0000000 -0.0000000 -0.0000000 -0.0000000 -0.0000000 -0.0000000 -0.0000000 -0.0000000 -0.0000000 -0.0000000 -0.0000000 -0.0000000 -0.0000000 -0.0000000 -0.0000000 -0.0000000 -0.0000000 -0.0000000 -0.0000000 -0.0000000 -0.0000000 -0.0000000 -0.0000000 -0.0000000 -0.0000000 -0.0000000 -0.0000000 -0.0000000 -0.0000000 -0.0000000 -0.0000000 -0.0000000 -0.0000000 -0.0000000 -0.0000000 -0.0000000 -0.0000000 -0.0000000 -0.0000000 -0.0000000 -0.0000000 -0.0000000 -0.0000000 -0.0000000 -0.0000000 -0.0000000 -0.0000000 -0.0000000 -0.0000000 -0.0000000 -0.0000000 -0.0000000 -0.0000000 -0.0000000 -0.0000000 -0.0000000 -0.0000000 -0.0000000 -0.0000000 -0.0000000 -0.0000000 -0.0000000 -0.0000000 -0.0000000 -0.0000000 -0.0000000 -0.0000000 -0.0000000 -0.0000000 -0.0000000 -0.0000000 -0.0000000 -0.0000000 -0.0000000 -0.0000000 -0.0000000 -0.0000000 -0.0000000 -0.0000000 -0.0000000 -0.0000000 -0.0000000 -0.0000000 -0.0000000 -0.0000000 -0.0000000 -0.0000000 -0.0000000 -0.0000000 -0.0000000 -0.0000000 -0.0000000 -0.0000000 -0.0000000 -0.0000000 -0.0000000 -0.0000000 -0.0000000 -0.0000000 -0.0000000 -0.0000000 -0.0000000 -0.0000000 -0.0000000 -0.0000000 -0.0000000 -0.0000000
-0.0000108 -0.0002066 0.0000120 -0.0000836 0.0000116 -0.0001080 0.0000004 -0.0001312 -0.0000229 -0.0001274 -0.0000040 -0.0002067 -0.0000083 -0.0000645 0.0000092 -0.0000753 -0.0000053 -0.0000708 0.0000195 -0.0000701 -0.0000290 -0.0001011 -0.0000317 -0.0000456 0.0000148 -0.0000994 -0.0000211 -0.0001811 -0.0000021 -0.0000766 -0.0000024 -0.0000969 0.0000666 -0.0002253 0.0000500 -0.0002226 -0.0000244 -0.0001361 -0.0002259 0.0004044 -0.0000107 -0.0001065 0.0000091 -0.0000016 -0.0000356 0.0000419 0.0000453 -0.0001079 -0.0000327 0.0000623 0.0000374 0.0000148 -0.0000119 -0.0000919 0.0000872 0.0000840 0.0000994 0.0000723 0.0000086 -0.0000819 0.0000983 0.0001268 -0.0001179 0.0000357 0.0000331 -0.0000837 -0.0000785 -0.0000687 -0.0006012 0.0006205 -0.0000041 0.0002803 0.0045113 -0.0023719 0.0016886 0.0008616 0.0002134 -0.0002376 0.0000582 -0.0000885 0.0005394 -0.0008093 0.0001289 -0.0001550 0.0000158 -0.0000377 0.0002206 0.0001206 0.0005552 -0.0006553 0.0000718 -0.0001460 -0.0040945 0.0021985 0.0017086 -0.0001102 0.0000513 -0.0000027 0.0006106 -0.0003501 -0.0003247 0.0003004 -0.0000050 -0.0000867 0.0000524 -0.0000760 0.0002235 -0.0041723 0.0008570 -0.0015848 0.0000084 0.0002325 0.0006295 -0.0001734 0.0000659 0.0001296 0.0000373 0.0000635 0.0000741 -0.0000472 -0.0000088 -0.0000084 -0.0000065 -0.0004425 0.0009402 -0.0003457 0.0002823 -0.0002314 0.0000202 0.0000523 0.0000453 -0.0000159 -0.0034034 0.0053260 0.0001151 -0.0000151 0.0010634 -0.0013878 0.0000043 -0.0000535 -0.0000170 0.0000169 0.0000430 0.0000087 -0.0000851 0.0001408 -0.0001090 0.0001468 -0.0000129 0.0001954 -0.0003448 0.0003401 -0.0000487 0.0000932 -0.0051933 0.0030952 0.0000386 -0.0000341 0.0006947 -0.0007375 0.0000524 0.0000615 -0.0004482 0.0003709 -0.0000495 0.0000065 -0.0000402 -0.0000113 -0.0000310 0.0000282 -0.0001710 0.0001308 -0.0022526 0.0011457 0.0000816 -0.0001821 0.0002022 -0.0003134 -0.0000225 0.0000185 0.0009167 -0.0004800 0.0009297 -0.0005356 -0.0004929 -0.0013253 0.0000818 -0.0001869 -0.0000190 0.0000250 0.0002293 -0.0001165 -0.0047620 0.0046580 0.0001326 -0.0000702 0.0000396 -0.0000226 0.0001443 -0.0005557 0.0025889 -0.0031129 0.0000497 -0.0001841 0.0006285 -0.0006225 0.0000235 0.0000406 0.0000075 -0.0000323 -0.0000706 0.0000990 0.0000233 0.0000057 0.0000905 -0.0000771
-0.0000029 -0.0003543 -0.0000009 -0.0001328 0.0000310 -0.0001737 0.0000152 -0.0001925 -0.0000353 -0.0001964 -0.0000006 -0.0003467 -0.0000215 -0.0001451 0.0000129 -0.0001677 0.0000185 -0.0001976 0.0000087 -0.0001039 0.0000203 -0.0002715 -0.0000595 -0.0001308 0.0000570 -0.0002183 -0.0000152 -0.0003096 0.0000157 -0.0001745 -0.0000094 -0.0001262 0.0000726 -0.0003146 0.0000042 -0.0003273 -0.0000240 -0.0002101 -0.0001168 0.0000982 -0.0000244 -0.0001565 0.0000575 0.0000046 -0.0000583 -0.0001295 0.0000845 -0.0002219 0.0002699 -0.0000001 0.0000749 0.0000286 -0.0000182 -0.0001823 0.0000967 0.0000095 0.0000990 0.0000401 0.0000215 -0.0000609 0.0001232 0.0000526 0.0000306 -0.0003356 0.0000465 -0.0001854 -0.0001298 -0.0001198 0.0001293 -0.0002531 0.0003237 0.0000624 0.0054971 -0.0043176 0.0116622 -0.0142844 0.0001569 -0.0001855 0.0001362 -0.0002549 0.0040798 -0.0053901 -0.0005226 0.0009329 0.0000106 -0.0001165 0.0011826 -0.0002132 0.0003102 -0.0004167 -0.0000500 -0.0002948 0.0028673 -0.0028646 0.0052486 -0.0040086 0.0001355 -0.0001805 0.0014407 -0.0009187 -0.0000067 0.0002207 0.0001523 0.0000902 0.0000232 -0.0001678 -0.0003476 0.0007263 0.0101301 -0.0144704 0.0002300 0.0001618 -0.0000430 0.0004102 -0.0006564 0.0005239 0.0000793 -0.0000839 0.0000889 -0.0001816 0.0000041 -0.0001300 0.0001479 -0.0006075 0.0007640 -0.0005541 0.0003784 -0.0005694 0.0000871 -0.0001656 0.0001245 -0.0002055 -0.0085864 0.0055429 0.0001328 -0.0000594 0.0009326 -0.0014607 0.0000733 -0.0002951 0.0000339 0.0000359 -0.0000406 0.0000633 0.0001256 0.0001378 -0.0000490 0.0000751 -0.0009428 0.0010213 -0.0007036 0.0007148 -0.0000142 0.0000290 -0.0003230 0.0052538 0.0000632 -0.0000427 -0.0001636 0.0001946 0.0000069 0.0001592 0.0000042 0.0002859 0.0000211 -0.0000647 -0.0000524 -0.0000151 0.0001467 -0.0000580 -0.0001803 0.0002070 -0.0062353 0.0028367 0.0001929 -0.0001657 0.0005066 -0.0004661 0.0000162 0.0000509 0.0001968 -0.0005830 0.0009274 -0.0013987 -0.0046946 0.0040171 0.0003454 -0.0002614 -0.0000242 0.0001149 0.0000523 0.0000913 -0.0064811 0.0077213 0.0003373 -0.0001712 -0.0000114 0.0000700 -0.0000719 -0.0001276 0.0010519 0.0023898 -0.0000264 0.0000258 -0.0010243 0.0006920 0.0000005 0.0000898 0.0000176 0.0000010 -0.0001327 0.0001938 0.0000412 -0.0000026 -0.0001020 -0.0000535
0.0000105 -0.0003586 0.0000108 -0.0001525 0.0000078 -0.0001349 0.0000322 -0.0002581 -0.0000336 -0.0002475 0.0000037 -0.0004532 -0.0000340 -0.0001715 0.0000062 -0.0002636 -0.0000214 -0.0002897 -0.0000210 -0.0001288 0.0000362 -0.0002435 -0.0000232 -0.0002118 0.0000036 -0.0001928 -0.0000151 -0.0003791 0.0000228 -0.0002607 -0.0000082 -0.0001511 -0.0000138 -0.0003262 0.0000296 -0.0004343 -0.0000337 -0.0003290 -0.0001553 0.0001145 -0.0000102 -0.0002056 0.0000203 -0.0000133 0.0000623 -0.0002355 0.0000612 -0.0003613 0.0000993 -0.0000602 0.0001292 0.0000981 -0.0000438 -0.0002566 0.0001188 -0.0000217 0.0001122 0.0000396 0.0000495 -0.0000803 0.0001375 0.0000733 -0.0000052 -0.0004731 0.0000417 -0.0002453 0.0000693 -0.0003357 0.0005106 -0.0006150 0.0005532 0.0000165 0.0020946 -0.0009940 0.0104217 -0.0142897 -0.0001484 -0.0000751 0.0000157 -0.0001452 0.0009339 -0.0013568 -0.0021561 0.0021807 -0.0000143 -0.0001371 0.0016417 -0.0005680 0.0003076 -0.0004069 -0.0001029 -0.0003616 0.0010415 -0.0003006 0.0085112 -0.0078775 0.0003717 -0.0004936 0.0014893 -0.0008374 -0.0001436 0.0000987 0.0002790 -0.0000717 -0.0000387 -0.0002180 0.0055902 -0.0063568 0.0000142 -0.0028928 0.0002750 -0.0000226 0.0000551 0.0002646 0.0002281 -0.0000767 0.0001182 -0.0002103 0.0000023 -0.0002940 -0.0000283 -0.0001900 0.0001090 0.0000497 0.0000797 -0.0010064 -0.0001658 -0.0000476 0.0000551 -0.0000729 0.0002066 -0.0002734 -0.0084712 0.0106576 0.0000844 -0.0001626 -0.0010240 -0.0001066 -0.0003029 -0.0000558 0.0000782 -0.0000578 -0.0000488 -0.0000551 0.0001668 -0.0001120 -0.0000946 0.0000111 -0.0008619 0.0010224 -0.0002201 0.0001585 -0.0001158 0.0001562 0.0079321 -0.0101132 -0.0000104 -0.0000570 0.0000813 -0.0001124 0.0000165 0.0000318 0.0015053 -0.0011981 -0.0000299 -0.0002502 0.0000139 -0.0002111 0.0002712 -0.0003154 -0.0000181 -0.0000511 0.0031322 -0.0031404 0.0000519 -0.0001813 0.0005572 -0.0002285 -0.0000124 0.0000140 -0.0002432 -0.0000077 -0.0005682 -0.0003096 -0.0028253 0.0032048 0.0000519 -0.0001413 -0.0000064 -0.0000396 -0.0001070 0.0001495 0.0018787 0.0022109 0.0000157 -0.0000774 -0.0000085 -0.0000246 -0.0002699 -0.0003870 -0.0018326 0.0025586 -0.0000637 0.0000508 -0.0002196 0.0000456 -0.0000325 0.0001009 0.0001759 -0.0001714 -0.0000893 0.0001776 0.0000285 0.0000827 -0.0000672 -0.0000685
0.0000209 -0.0001298 -0.0000042 0.0000214 -0.0000176 0.0000180 0.0000141 -0.0003602 -0.0000201 -0.0001841 -0.0000142 -0.0003991 -0.0000472 -0.0001635 0.0000014 -0.0002311 -0.0000129 -0.0003632 -0.0000045 -0.0000813 -0.0000122 -0.0001124 0.0000213 -0.0001003 0.0000416 -0.0001535 -0.0000154 -0.0003946 0.0000039 -0.0002437 -0.0000113 -0.0001446 0.0000651 -0.0004395 0.0001116 -0.0004921 -0.0000514 -0.0004212 0.0002369 -0.0002719 0.0000127 -0.0001789 0.0000257 -0.0000380 0.0002618 -0.0004064 -0.0000191 -0.0005347 0.0001930 -0.0002895 0.0001272 0.0000146 -0.0000650 -0.0003411 0.0001670 -0.0000660 0.0001279 -0.0001173 0.0000451 -0.0002681 0.0001148 0.0000002 0.0002718 -0.0004754 0.0000607 -0.0003251 0.0001617 -0.0004434 0.0005158 -0.0007472 0.0007682 -0.0001553 -0.0070846 0.0051626 0.0090942 -0.0227251 -0.0002756 -0.0000860 0.0000147 -0.0000658 -0.0011499 0.0005354 0.0006879 -0.0007499 -0.0000095 -0.0002154 0.0012867 -0.0005624 -0.0004998 0.0001528 0.0000311 -0.0005231 0.0031652 -0.0019287 0.0066996 -0.0045628 0.0001461 -0.0003118 0.0021327 -0.0014271 0.0004964 -0.0003089 0.0002644 -0.0002871 -0.0000717 -0.0002897 0.0087144 -0.0194637 -0.0110499 0.0131234 0.0003751 -0.0001483 0.0002459 -0.0000185 -0.0000673 0.0001422 0.0001494 -0.0002941 -0.0000848 -0.0002368 0.0000618 -0.0003630 -0.0000484 -0.0000974 -0.0005813 0.0006540 0.0003880 -0.0003854 -0.0000317 0.0001047 0.0001085 0.0000373 -0.0005941 0.0037594 -0.0000066 -0.0001591 -0.0030247 0.0013664 -0.0002212 -0.0000664 0.0000919 -0.0001372 0.0001399 -0.0000991 0.0000425 -0.0001831 -0.0001135 -0.0000368 0.0011444 -0.0007223 -0.0000601 -0.0001043 -0.0000968 0.0000662 -0.0002894 0.0018983 -0.0000067 -0.0000513 0.0006440 -0.0003878 0.0000915 -0.0000983 0.0016465 -0.0018182 -0.0000828 -0.0003643 0.0000677 -0.0002219 0.0001317 -0.0004234 0.0000275 -0.0001906 0.0003356 -0.0002906 -0.0002430 -0.0000583 0.0002108 -0.0001294 0.0000263 -0.0001486 -0.0002857 -0.0003867 0.0010180 -0.0019559 -0.0044268 0.0007804 0.0000650 -0.0001069 0.0000403 -0.0002269 -0.0000235 -0.0000941 0.0007452 0.0054329 0.0000825 -0.0003097 0.0000773 -0.0002328 -0.0004360 -0.0006446 -0.0000687 0.0031396 -0.0000878 -0.0000789 -0.0007866 0.0008238 -0.0000578 0.0000303 0.0002888 -0.0003750 0.0000245 0.0000763 0.0000265 0.0000960 -0.0000922 -0.0001315
0.0000087 -0.0000675 -0.0000050 0.0000397 -0.0000114 0.0000426 -0.0000013 -0.0004232 -0.0000195 -0.0001856 -0.0000164 -0.0004529 -0.0000359 -0.0001997 -0.0000077 -0.0002417 -0.0000305 -0.0004033 -0.0000408 0.0000402 0.0000217 -0.0001896 0.0000270 0.0000275 0.0000339 -0.0001328 -0.0000230 -0.0003841 -0.0000236 -0.0002723 0.0000021 -0.0001344 0.0000267 -0.0004733 0.0001534 -0.0004158 -0.0000734 -0.0004816 0.0002783 -0.0000777 0.0000211 -0.0000755 0.0001208 -0.0000698 0.0002385 -0.0003025 -0.0000597 -0.0005756 0.0002498 -0.0003716 0.0001267 0.0000630 -0.0000594 -0.0003477 0.0001954 0.0000292 0.0001208 -0.0000828 0.0000428 -0.0001793 0.0001500 0.0000643 0.0001063 -0.0003299 0.0000280 -0.0002353 -0.0000781 -0.0001093 -0.0001715 -0.0004760 0.0009990 0.0008644 -0.0030278 0.0034628 0.0028351 -0.0048692 0.0000819 -0.0001439 0.0001559 -0.0001779 -0.0006225 0.0008374 0.0019662 -0.0014708 0.0000091 -0.0002701 0.0002031 -0.0004542 -0.0004161 0.0003040 -0.0000505 -0.0004308 0.0028528 -0.0027215 0.0037738 -0.0025483 -0.0003329 0.0000906 -0.0001126 0.0002728 0.0002561 0.0002617 0.0000803 -0.0003827 -0.0001103 -0.0002074 0.0062849 -0.0123516 -0.0096468 0.0133442 0.0000739 0.0001092 -0.0000574 0.0002403 -0.0005897 0.0008593 0.0001250 -0.0003254 0.0000689 -0.0004094 0.0000147 -0.0004594 -0.0018847 0.0016068 -0.0005095 0.0017861 0.0003787 -0.0003086 0.0000260 0.0001657 0.0001788 0.0001471 0.0089474 -0.0099653 -0.0000102 -0.0001874 -0.0015035 0.0022714 -0.0002613 -0.0000608 0.0001280 -0.0001579 0.0003008 -0.0002487 0.0000387 -0.0002328 -0.0001659 -0.0000623 0.0018448 -0.0012719 -0.0003593 0.0001812 -0.0000014 -0.0001828 -0.0129052 0.0034541 0.0000346 -0.0000250 0.0007291 -0.0002529 0.0000709 -0.0000984 0.0012259 -0.0015378 0.0001062 -0.0005404 -0.0000212 -0.0001284 -0.0002294 -0.0002431 -0.0000244 -0.0001910 -0.0055685 0.0041103 -0.0001536 -0.0000924 0.0000072 -0.0002521 0.0000413 -0.0001598 -0.0010049 0.0010133 0.0022916 -0.0042289 -0.0035126 0.0062403 0.0001718 -0.0000816 -0.0000203 -0.0002142 0.0000641 -0.0002679 -0.0006644 0.0050319 0.0000627 -0.0005331 0.0000825 -0.0003229 0.0001709 -0.0011099 0.0018593 0.0010126 -0.0000060 -0.0000872 -0.0000011 0.0001905 0.0000073 -0.0001114 -0.0000189 -0.0002414 0.0000434 -0.0000291 0.0000351 0.0000345 -0.0000367 -0.0000939
0.0000141 -0.0001413 -0.0000143 -0.0001622 -0.0000122 -0.0001075 -0.0000026 -0.0004596 -0.0000299 -0.0003389 -0.0000517 -0.0007272 -0.0000395 -0.0003737 0.0000422 -0.0002340 -0.0000583 -0.0006114 -0.0000487 -0.0000511 0.0000094 -0.0002706 0.0000130 -0.0001000 0.0000064 -0.0002651 -0.0001530 -0.0008489 -0.0000145 -0.0003479 0.0000068 -0.0006830 -0.0000320 -0.0005444 0.0000914 -0.0004813 -0.0000216 -0.0003300 -0.0004837 0.0002108 0.0000329 -0.0000969 0.0000764 -0.0001329 0.0001728 -0.0002125 -0.0000263 -0.0004390 -0.0000605 -0.0000692 0.0001337 0.0000138 -0.0000501 -0.0003477 0.0002301 0.0002279 0.0001068 -0.0000765 0.0000190 -0.0001331 0.0001503 0.0001064 -0.0001750 -0.0001244 -0.0000081 -0.0001288 0.0000090 -0.0000561 -0.0006706 -0.0004798 0.0019698 0.0020455 -0.0017338 0.0042142 -0.0035598 0.0108966 0.0001074 0.0000084 0.0001458 -0.0001434 0.0016408 0.0004895 0.0007219 -0.0002979 -0.0000125 -0.0001773 -0.0012348 0.0011538 -0.0000940 0.0003423 -0.0000872 -0.0002404 -0.0036268 0.0027369 0.0000626 -0.0022974 -0.0003678 -0.0000317 -0.0027726 0.0014619 0.0000908 0.0005194 -0.0001969 -0.0004099 -0.0000597 -0.0000749 0.0064784 -0.0117509 -0.0033044 -0.0031057 -0.0002123 0.0003089 0.0001307 0.0000596 0.0001252 -0.0001469 0.0001237 -0.0002451 0.0001943 -0.0004087 -0.0000190 -0.0004115 -0.0003416 0.0005711 0.0008324 -0.0012966 -0.0002818 0.0000967 0.0001236 0.0001957 0.0001322 0.0002079 0.0106440 -0.0121245 0.0000522 -0.0001183 0.0002311 0.0004737 -0.0003995 0.0001558 0.0000448 -0.0000376 0.0000634 -0.0000658 -0.0000711 0.0000232 0.0000695 -0.0002235 0.0008436 -0.0009956 -0.0000071 -0.0003159 0.0001453 -0.0003812 0.0040749 -0.0120996 0.0000769 -0.0000160 -0.0003205 0.0003816 -0.0000473 0.0000098 0.0000358 -0.0004563 0.0000604 -0.0003518 -0.0000555 -0.0001996 -0.0001229 -0.0004230 -0.0001210 -0.0001636 0.0013754 -0.0049570 0.0001036 -0.0004110 -0.0003433 0.0001082 0.0000315 -0.0001008 -0.0006914 0.0014340 0.0007088 -0.0028284 -0.0094506 0.0114004 -0.0000985 0.0000075 -0.0000082 -0.0002013 -0.0000273 -0.0001490 0.0008011 -0.0029981 -0.0001287 -0.0003130 -0.0000054 -0.0001274 0.0004516 -0.0005117 0.0004390 0.0023635 -0.0000867 -0.0000020 0.0007159 -0.0012144 0.0000508 -0.0001075 -0.0001393 0.0000071 -0.0000143 0.0000344 -0.0000156 0.0001330 0.0000236 -0.0001306
0.0000115 -0.0001168 -0.0000297 -0.0002340 -0.0000278 -0.0001382 -0.0000078 -0.0004411 -0.0000578 -0.0004448 -0.0001083 -0.0008530 -0.0000701 -0.0004515 0.0000816 -0.0001437 -0.0000920 -0.0006834 -0.0000311 -0.0001328 0.0000114 -0.0003023 0.0000126 -0.0001859 -0.0000510 -0.0002929 -0.0002460 -0.0012197 -0.0000032 -0.0003637 -0.0000248 -0.0010524 -0.0000190 -0.0006109 0.0000616 -0.0005988 0.0000043 -0.0002585 -0.0004160 -0.0007045 0.0000257 -0.0001710 0.0000300 -0.0001962 -0.0002355 0.0001940 -0.0000572 -0.0005122 -0.0001981 0.0000215 0.0001377 -0.0000935 -0.0000573 -0.0004047 0.0002569 0.0002678 0.0001298 -0.0002236 -0.0000019 -0.0002180 0.0001523 -0.0000173 0.0000121 -0.0001891 0.0000207 -0.0002186 0.0000378 -0.0001479 -0.0000662 -0.0008263 0.0029296 0.0024024 -0.0033205 0.0067803 -0.0065438 0.0160550 0.0001815 -0.0002248 0.0003088 -0.0001838 -0.0023313 0.0029805 -0.0004408 0.0004780 -0.0000401 -0.0000942 -0.0029388 0.0029850 0.0002165 0.0002440 0.0001325 -0.0004025 -0.0014892 -0.0006658 0.0022282 -0.0027219 -0.0001304 -0.0002530 -0.0007608 -0.0001108 0.0008168 -0.0003151 -0.0002250 -0.0003896 -0.0000092 -0.0000732 0.0029599 -0.0153769 0.0077408 -0.0105283 -0.0005837 0.0006203 0.0000619 0.0000622 -0.0006322 0.0005711 0.0001366 -0.0000923 0.0000162 -0.0000724 -0.0000163 -0.0003313 0.0002450 -0.0005133 0.0017502 -0.0021040 0.0000440 0.0000255 0.0001465 0.0003210 0.0000646 0.0003646 0.0060597 -0.0085631 0.0000716 0.0000903 0.0001056 -0.0012764 0.0000169 0.0000118 0.0000726 0.0000256 -0.0001694 0.0001873 -0.0003090 0.0005057 0.0002273 -0.0001597 -0.0004261 -0.0000108 0.0001319 -0.0001508 0.0000831 -0.0002552 0.0022585 -0.0057178 0.0000540 0.0000891 0.0002167 -0.0003589 -0.0000301 0.0001240 -0.0012762 0.0008239 0.0000327 -0.0001145 -0.0000522 -0.0000690 0.0003082 -0.0008132 -0.0000964 -0.0000969 -0.0047996 0.0036805 -0.0003868 0.0003491 -0.0002887 -0.0000514 0.0000374 -0.0000681 -0.0003052 0.0005871 -0.0019128 0.0018244 -0.0121058 0.0075918 -0.0001837 0.0000364 -0.0000132 -0.0000456 -0.0000094 0.0000941 0.0030387 -0.0038794 -0.0001450 0.0000390 0.0000652 0.0000247 -0.0003102 0.0004378 -0.0008828 0.0045657 -0.0000537 0.0000409 0.0004768 -0.0011646 0.0000155 0.0000814 0.0001341 -0.0001120 -0.0000195 0.0001517 -0.0000030 0.0002441 0.0000660 -0.0000858
0.0000002 -0.0001308 -0.0000423 -0.0001900 -0.0000459 -0.0000778 -0.0000106 -0.0004591 -0.0000780 -0.0004736 -0.0001141 -0.0007093 -0.0000900 -0.0004172 0.0000491 -0.0001996 -0.0001020 -0.0005604 0.0000292 -0.0002247 0.0000757 -0.0005103 0.0000146 -0.0002650 -0.0000372 -0.0003006 -0.0001729 -0.0011366 0.0000291 -0.0003405 -0.0000376 -0.0005631 -0.0000409 -0.0005393 -0.0000654 -0.0005422 -0.0000386 -0.0003631 -0.0001623 -0.0005313 0.0000061 -0.0001892 0.0000651 -0.0002120 -0.0003519 0.0003631 -0.0000740 -0.0005858 -0.0001994 -0.0000266 0.0001559 -0.0000791 -0.0000653 -0.0004568 0.0002313 0.0001440 0.0001363 -0.0003053 -0.0000165 -0.0001943 0.0001550 -0.0000599 -0.0001395 0.0001005 0.0000188 -0.0003343 -0.0001346 -0.0000140 0.0003710 -0.0014143 0.0031026 0.0023089 0.0012699 0.0033481 -0.0063019 0.0186937 0.0002643 -0.0005664 0.0002366 -0.0003038 -0.0032545 0.0006282 -0.0012401 0.0008891 -0.0000005 -0.0001714 0.0012904 0.0009694 -0.0001901 0.0004205 -0.0000328 -0.0005784 0.0010021 -0.0021144 0.0049246 -0.0035004 0.0000657 -0.0002058 -0.0013468 0.0012447 0.0004603 0.0001223 -0.0000309 -0.0000971 -0.0002062 -0.0006682 0.0042042 -0.0095838 0.0049488 -0.0029853 -0.0000505 0.0005140 0.0003199 -0.0002027 -0.0002184 -0.0000972 0.0001428 -0.0000917 0.0000773 -0.0002453 -0.0000087 -0.0005378 0.0004929 -0.0008554 0.0004584 -0.0012407 0.0010562 -0.0009279 0.0000850 0.0000210 0.0000704 0.0000917 0.0043563 -0.0044260 0.0001554 0.0000139 0.0008562 -0.0005948 0.0000500 0.0000888 0.0000610 0.0001784 0.0000299 0.0002360 -0.0000680 0.0004684 0.0002111 -0.0000132 0.0015486 -0.0009868 0.0000402 0.0001707 -0.0001280 0.0001147 -0.0010988 -0.0016137 0.0000333 0.0004257 0.0016458 0.0000424 0.0000971 0.0005808 -0.0017994 0.0015831 -0.0000973 0.0004815 -0.0000079 0.0003887 0.0003645 -0.0003487 -0.0001266 0.0003052 0.0020248 0.0010176 -0.0004737 0.0012450 -0.0001441 0.0005838 -0.0000371 0.0003657 -0.0016968 0.0011028 -0.0018945 0.0024306 0.0022418 -0.0006916 0.0001015 0.0005554 0.0001837 0.0010289 0.0001213 0.0006802 -0.0027588 0.0006442 0.0003231 0.0003231 0.0003328 0.0009589 -0.0008470 0.0000909 -0.0064676 0.0075446 0.0001847 0.0009277 0.0017908 0.0004448 -0.0001658 0.0014500 0.0002419 0.0006985 0.0001974 0.0011943 0.0001035 0.0011282 -0.0002090 -0.0026797
-0.0000295 -0.0000475 -0.0000348 0.0000289 -0.0000454 0.0001631 -0.0000102 -0.0004163 -0.0001112 -0.0004325 -0.0001449 -0.0005580 -0.0000855 -0.0002896 0.0000053 -0.0002676 -0.0000475 -0.0003856 0.0000300 -0.0002956 -0.0000140 -0.0004328 -0.0000109 -0.0002779 -0.0000422 -0.0002795 0.0000052 -0.0009252 0.0001554 -0.0002652 -0.0000185 -0.0001044 -0.0000097 -0.0005363 -0.0001438 -0.0005069 -0.0000648 -0.0002837 -0.0002036 0.0000937 -0.0000304 -0.0002012 0.0001026 0.0001742 0.0000032 0.0001335 0.0000461 -0.0003700 0.0003462 0.0000845 0.0001935 -0.0000001 -0.0000163 -0.0004038 0.0002527 0.0001630 0.0001890 -0.0001707 -0.0000267 -0.0001215 0.0001724 0.0000075 -0.0004773 0.0004465 -0.0000870 -0.0003343 -0.0002278 0.0000738 0.0000897 -0.0022454 0.0029464 0.0017656 0.0026700 -0.0008690 -0.0035956 0.0079791 -0.0002621 0.0000675 -0.0000903 -0.0000381 0.0032085 -0.0047438 0.0009802 -0.0012654 0.0000254 -0.0001562 0.0025163 0.0006146 -0.0002893 0.0005708 -0.0003130 -0.0006525 0.0027428 -0.0022695 0.0050693 -0.0055116 0.0002858 0.0001709 -0.0017793 0.0025589 0.0003277 0.0013481 0.0001526 0.0005938 -0.0006025 -0.0014620 0.0030482 -0.0035343 -0.0039867 -0.0006064 0.0006948 0.0004463 0.0008367 -0.0004771 0.0006409 -0.0011964 0.0001248 0.0000686 0.0002944 -0.0005497 -0.0000455 -0.0006472 0.0009042 -0.0005721 0.0003318 -0.0025971 0.0000283 -0.0002425 -0.0000389 -0.0004693 -0.0000367 -0.0002566 -0.0127661 0.0110249 0.0000067 0.0001126 -0.0008900 0.0019010 -0.0002344 0.0004244 0.0000150 0.0002623 0.0000164 0.0006023 0.0003189 0.0002040 0.0001560 0.0000288 0.0005967 -0.0004781 0.0004143 -0.0000927 -0.0002408 0.0002506 -0.0042889 0.0132818 0.0001159 0.0008528 0.0015147 0.0021306 0.0001375 0.0012590 -0.0018274 0.0029584 -0.0001310 0.0011508 0.0001953 0.0007052 -0.0000681 0.0007162 0.0001582 0.0004995 0.0083811 -0.0056137 0.0000172 0.0013285 0.0000457 0.0013722 0.0000239 0.0008054 -0.0004518 -0.0007143 -0.0019443 0.0005445 0.0052025 -0.0005252 0.0004130 0.0014419 0.0005973 0.0022516 -0.0000237 0.0015479 -0.0067088 0.0015638 0.0005875 0.0007805 0.0005200 0.0021310 -0.0001513 -0.0012073 -0.0032243 0.0027868 0.0004524 0.0019294 0.0002397 0.0042628 -0.0002824 0.0028741 0.0001302 0.0019235 0.0003471 0.0025744 0.0002363 0.0022638 -0.0007583 -0.0065396
-0.0000800 0.0000815 -0.0000096 0.0003171 -0.0000510 0.0004840 -0.0000232 -0.0003625 -0.0001567 -0.0003760 -0.0001755 -0.0004495 -0.0000704 -0.0000240 -0.0000347 -0.0002608 -0.0000194 -0.0001698 -0.0000499 -0.0000634 -0.0000838 -0.0000540 -0.0000024 -0.0000592 -0.0001672 0.0000035 0.0001900 -0.0004727 0.0002293 -0.0001681 0.0000037 0.0003764 -0.0000211 -0.0003629 -0.0001342 -0.0004806 -0.0001159 -0.0002626 -0.0002666 0.0006812 -0.0000473 -0.0000210 0.0001593 0.0005867 -0.0003172 0.0006758 0.0000938 -0.0001567 0.0002070 0.0005148 0.0002194 0.0000523 0.0000115 -0.0003794 0.0002984 0.0002498 0.0002188 -0.0001827 -0.0000328 -0.0000185 0.0001779 0.0000254 -0.0007364 0.0008421 -0.0001560 -0.0001976 -0.0001906 0.0001526 0.0001621 -0.0020182 0.0025435 0.0010730 0.0043601 -0.0034711 0.0009962 -0.0018431 -0.0007352 0.0006162 -0.0000438 0.0002919 0.0024546 -0.0011701 0.0017594 -0.0022337 0.0000336 -0.0000585 0.0004748 0.0015148 -0.0000756 0.0005121 -0.0002030 -0.0008214 0.0053489 -0.0060841 0.0022212 -0.0026096 0.0002341 0.0005155 0.0008295 0.0008246 0.0009276 0.0015725 0.0002069 0.0009036 -0.0008313 -0.0016523 -0.0113036 0.0128918 0.0061646 -0.0061282 0.0004454 0.0006272 0.0011235 -0.0006495 0.0002320 -0.0007546 0.0001461 0.0002616 0.0002809 -0.0006043 -0.0001143 -0.0006290 0.0004189 -0.0002780 0.0006791 -0.0015998 -0.0000243 0.0003415 -0.0000920 -0.0004808 0.0000142 -0.0002084 -0.0115626 0.0057993 -0.0000944 0.0003496 -0.0010687 0.0003659 -0.0001308 0.0003303 0.0000050 0.0003297 -0.0001733 0.0008554 0.0000596 0.0004543 0.0001018 0.0002090 -0.0010440 0.0013911 0.0002976 0.0000858 -0.0002480 0.0000991 -0.0186302 0.0259830 0.0002231 0.0011377 0.0014242 0.0026310 0.0002086 0.0014138 -0.0005870 0.0020644 0.0000594 0.0009813 0.0002803 0.0006988 -0.0004292 0.0010810 0.0004005 0.0004262 0.0016290 -0.0002063 0.0002434 0.0010708 0.0004594 0.0009443 0.0000880 0.0009081 -0.0000725 0.0001063 -0.0022987 0.0012340 0.0017918 -0.0004392 0.0002380 0.0018276 0.0005960 0.0023935 0.0000317 0.0017112 -0.0044262 0.0039579 0.0002151 0.0011731 0.0004651 0.0021524 0.0000224 -0.0010497 0.0003473 -0.0039266 0.0003651 0.0019943 0.0011532 0.0025883 -0.0002156 0.0028765 0.0001416 0.0018811 0.0003176 0.0027542 0.0002763 0.0025250 -0.0007843 -0.0068392
-0.0000867 -0.0000003 0.0000135 0.0002598 -0.0000496 0.0004396 -0.0000446 -0.0004128 -0.0001677 -0.0004352 -0.0002078 -0.0005154 -0.0000510 0.0000596 -0.0000232 -0.0001783 -0.0000203 -0.0000785 -0.0000073 0.0000610 -0.0000119 -0.0000581 -0.0000439 0.0000759 -0.0001273 -0.0000325 0.0002308 -0.0004145 0.0002659 -0.0001168 0.0000012 0.0006073 -0.0000278 -0.0002175 -0.0002276 -0.0004012 -0.0001211 -0.0002472 0.0002328 0.0006230 -0.0000262 0.0000984 0.0002242 0.0005894 -0.0004843 0.0008804 0.0000637 -0.0000891 0.0001454 0.0004858 0.0002089 0.0000036 -0.0000301 -0.0004949 0.0003161 0.0003551 0.0001611 -0.0003730 -0.0000595 0.0001165 0.0001568 0.0001153 -0.0003178 0.0003890 -0.0000595 -0.0000660 -0.0002078 0.0001591 -0.0013549 -0.0001612 0.0022937 0.0005470 0.0052543 -0.0027628 0.0059099 -0.0005114 -0.0005894 0.0007324 0.0000049 0.0003994 -0.0011906 0.0008066 -0.0001306 -0.0004826 0.0000804 0.0000606 -0.0003779 0.0020380 0.0003274 0.0006176 -0.0002646 -0.0007002 0.0033946 -0.0025438 0.0011655 -0.0003673 0.0002748 0.0003643 0.0024522 -0.0009932 0.0012509 0.0011725 -0.0000839 0.0010551 -0.0007825 -0.0013977 -0.0053208 0.0085003 0.0146903 -0.0126314 0.0001880 0.0005241 0.0008491 -0.0004926 0.0000164 -0.0003019 0.0001395 0.0002814 -0.0000197 -0.0004113 -0.0000982 -0.0007742 0.0002855 -0.0007466 0.0014533 -0.0018462 0.0007097 -0.0002578 -0.0001423 -0.0002929 0.0001551 -0.0001013 -0.0065359 0.0014369 0.0000868 0.0001780 0.0010112 -0.0019309 -0.0000307 -0.0000953 -0.0000503 0.0004560 -0.0001492 0.0007239 -0.0001900 0.0005797 0.0001165 0.0004409 0.0005216 -0.0002372 -0.0000235 0.0000405 -0.0001398 0.0002022 -0.0011007 0.0111684 0.0002427 0.0011518 0.0012438 0.0023768 0.0001879 0.0013239 0.0013716 0.0001791 0.0000407 0.0006217 0.0001945 0.0007515 -0.0003160 0.0006921 0.0001450 0.0004808 0.0040104 -0.0044895 -0.0000127 0.0009683 0.0004046 0.0005231 0.0001153 0.0008501 -0.0018203 0.0032788 -0.0001913 0.0007252 0.0008331 -0.0006913 0.0005606 0.0012648 0.0004610 0.0022079 0.0003472 0.0013935 -0.0003190 0.0011518 -0.0000082 0.0008964 0.0003892 0.0018508 0.0001718 -0.0006025 -0.0025663 -0.0058098 0.0002935 0.0018987 -0.0004437 0.0029186 -0.0002251 0.0026978 0.0002002 0.0017263 0.0002981 0.0025410 0.0002259 0.0025508 -0.0008288 -0.0063300
-0.0000618 -0.0000865 0.0000072 0.0001430 -0.0000375 0.0003089 -0.0000592 -0.0005145 -0.0001669 -0.0005757 -0.0002396 -0.0005626 -0.0000129 -0.0000069 -0.0000120 -0.0001690 0.0000850 0.0000262 0.0000450 -0.0000710 0.0000943 -0.0002057 -0.0000635 -0.0000977 -0.0000629 -0.0003320 0.0003286 -0.0004681 0.0003685 -0.0000682 -0.0000342 0.0007935 0.0000355 -0.0002163 -0.0003358 -0.0003178 -0.0000728 -0.0001778 0.0001683 0.0006294 -0.0000221 -0.0000091 0.0002670 0.0006603 -0.0000687 0.0001669 0.0001177 -0.0000281 0.0005940 0.0002466 0.0002069 -0.0000878 -0.0000484 -0.0006097 0.0003151 0.0003521 0.0001531 -0.0003917 -0.0000595 0.0001497 0.0001713 0.0000763 0.0000937 -0.0002464 -0.0000759 -0.0000563 -0.0000672 -0.0000585 -0.0008474 -0.0008232 0.0021414 0.0003155 0.0022289 0.0008909 0.0075780 -0.0064770 -0.0000181 0.0004051 -0.0000392 0.0004193 -0.0030585 0.0021743 -0.0018038 0.0020012 0.0001223 0.0001623 0.0022683 -0.0008626 0.0012702 -0.0001280 -0.0003845 -0.0003196 -0.0011916 0.0010392 -0.0001839 -0.0022950 0.0003009 0.0001601 0.0011704 -0.0005311 0.0011797 0.0010566 -0.0002601 0.0009404 -0.0005617 -0.0010310 0.0044088 0.0024858 0.0084483 -0.0016990 0.0003992 0.0002775 0.0002630 0.0000316 0.0000401 0.0001392 0.0000679 0.0003897 -0.0000882 -0.0000880 -0.0001917 -0.0005835 -0.0000270 -0.0003114 0.0012277 -0.0015526 0.0000078 0.0003196 -0.0000699 -0.0002982 0.0002051 -0.0001513 0.0111991 -0.0139205 -0.0000805 0.0002463 -0.0006289 -0.0015821 0.0002142 -0.0001006 -0.0000487 0.0005246 -0.0001633 0.0007918 -0.0001463 0.0005134 0.0000871 0.0005923 0.0000892 0.0000165 -0.0000637 0.0000822 0.0000055 0.0003429 -0.0012685 0.0099994 0.0002608 0.0010188 0.0010374 0.0022774 0.0001746 0.0012682 0.0006050 0.0011181 0.0000288 0.0005584 0.0000964 0.0008081 -0.0003126 0.0006952 -0.0000422 0.0004584 0.0044890 -0.0061935 0.0002700 0.0006454 -0.0002904 0.0011426 0.0000640 0.0008594 -0.0001292 0.0009560 -0.0017641 0.0031633 0.0032230 -0.0062894 0.0005560 0.0013375 0.0004817 0.0022851 0.0005506 0.0011715 0.0063454 0.0005221 -0.0001396 0.0009774 0.0003771 0.0017932 0.0000651 -0.0001178 0.0005753 -0.0139017 0.0004213 0.0017760 -0.0092639 0.0106917 -0.0002808 0.0026877 0.0000839 0.0018670 0.0001815 0.0024132 0.0001925 0.0024582 -0.0006435 -0.0061956
-0.0000636 -0.0000870 -0.0000450 0.0001109 -0.0000805 0.0003041 -0.0000613 -0.0005646 -0.0001774 -0.0007096 -0.0002528 -0.0005049 -0.0000079 -0.0000801 -0.0000082 -0.0001995 0.0002411 0.0001489 0.0000008 -0.0001408 0.0001289 -0.0000237 -0.0000493 -0.0001774 -0.0001177 -0.0004423 0.0004135 -0.0005081 0.0004836 0.0000303 -0.0000799 0.0009602 0.0000313 -0.0000211 -0.0003111 -0.0002653 -0.0000317 -0.0001060 0.0005335 0.0005123 -0.0000191 -0.0000404 0.0002595 0.0008147 0.0000563 -0.0001911 0.0001395 -0.0000622 0.0005334 0.0005276 0.0002107 -0.0001834 -0.0000374 -0.0007182 0.0003259 0.0002159 0.0001593 -0.0004711 -0.0000369 0.0000388 0.0001817 -0.0000783 0.0000329 -0.0001800 -0.0001773 -0.0001368 -0.0001493 -0.0000155 0.0002029 -0.0011551 0.0017404 0.0002938 0.0012419 0.0017388 -0.0051205 0.0064380 0.0000999 0.0002432 0.0000574 0.0002486 -0.0019192 0.0028377 -0.0011122 0.0010983 0.0001421 0.0001031 0.0033788 -0.0022045 -0.0000311 0.0006390 -0.0002603 -0.0003071 -0.0083436 0.0049533 -0.0002544 -0.0000928 0.0003317 0.0000212 -0.0008502 0.0007283 0.0007956 0.0010455 -0.0001273 0.0004665 -0.0004947 -0.0007674 0.0086038 -0.0000214 0.0001866 0.0136788 0.0007039 0.0002198 0.0005203 -0.0002751 -0.0008976 0.0015717 0.0000091 0.0004703 0.0000074 -0.0000101 -0.0002281 -0.0004897 -0.0003366 0.0003878 -0.0001526 -0.0006944 0.0003345 0.0000993 -0.0000220 -0.0002498 0.0000784 -0.0000755 0.0158154 -0.0149920 -0.0001512 0.0004967 -0.0003248 -0.0027020 -0.0000500 0.0005058 -0.0000040 0.0006999 0.0002085 0.0006478 -0.0000140 0.0005281 -0.0000365 0.0008605 0.0005694 0.0000334 -0.0001275 0.0004591 0.0000061 0.0002996 -0.0121861 0.0145028 0.0002859 0.0010617 0.0008740 0.0024035 0.0001220 0.0014032 -0.0005038 0.0017266 0.0000062 0.0006414 0.0001588 0.0007607 -0.0001948 0.0007095 -0.0001281 0.0005193 0.0032279 -0.0025451 0.0006319 0.0003211 -0.0004035 0.0013824 0.0000042 0.0008972 0.0002657 0.0010349 -0.0048498 0.0053139 -0.0025911 0.0001382 0.0000771 0.0016840 0.0004792 0.0023173 0.0002705 0.0012773 0.0060479 -0.0010001 0.0003284 0.0006416 0.0003469 0.0017447 -0.0000588 -0.0000398 -0.0107026 0.0116020 0.0003532 0.0017868 -0.0057260 0.0081549 -0.0003108 0.0026572 0.0001800 0.0017000 0.0001741 0.0021956 0.0002060 0.0022699 -0.0006919 -0.0060643
-0.0000739 -0.0001387 -0.0000525 0.0000039 -0.0001217 0.0002591 -0.0000785 -0.0005900 -0.0001849 -0.0007802 -0.0002414 -0.0004463 -0.0000487 -0.0000502 -0.0000214 -0.0002954 0.0002656 0.0002066 0.0000470 -0.0002901 0.0001084 0.0001566 -0.0000502 -0.0002000 -0.0001345 -0.0004475 0.0004303 -0.0005021 0.0005050 0.0000173 -0.0000949 0.0009896 0.0001065 0.0000091 -0.0002700 -0.0002184 -0.0000405 -0.0001329 0.0006725 0.0005696 -0.0000165 -0.0000693 0.0002509 0.0009112 -0.0002997 0.0000684 0.0001430 -0.0000668 0.0005952 0.0005289 0.0002211 -0.0002592 -0.0000217 -0.0007815 0.0003350 0.0000840 0.0001824 -0.0005519 -0.0000484 -0.0000286 0.0001691 -0.0001480 -0.0000069 -0.0000761 -0.0000775 -0.0003040 -0.0002478 -0.0000701 0.0005726 -0.0013877 0.0013915 0.0002667 0.0017531 0.0017605 -0.0040752 0.0031354 -0.0001621 0.0002474 -0.0000345 0.0000674 0.0010026 0.0001785 0.0013141 -0.0016698 0.0001429 -0.0000224 0.0020405 -0.0008991 -0.0008669 0.0008693 -0.0002597 -0.0003909 -0.0038908 0.0034460 -0.0023809 0.0029736 0.0001663 -0.0000804 -0.0009033 0.0005147 0.0002427 0.0015054 0.0001391 0.0000287 -0.0005294 -0.0005338 0.0010089 0.0116531 0.0034848 0.0047314 0.0008587 0.0001388 0.0009129 -0.0007421 -0.0007558 0.0017982 0.0000049 0.0003755 -0.0000509 -0.0000528 -0.0002120 -0.0006047 -0.0000975 0.0001211 0.0009486 -0.0019949 0.0005814 -0.0000819 -0.0000014 -0.0003012 0.0000604 -0.0000685 0.0042098 0.0017855 -0.0000560 0.0004743 0.0009879 -0.0030392 -0.0005043 0.0007832 -0.0000315 0.0007224 0.0004945 0.0004170 -0.0001658 0.0007091 0.0000547 0.0008716 -0.0000327 0.0001756 -0.0003303 0.0006784 0.0000714 0.0002019 -0.0106211 0.0180275 0.0002372 0.0010838 0.0012454 0.0020294 0.0000213 0.0014872 -0.0000312 0.0018228 -0.0000377 0.0008252 0.0001588 0.0008699 -0.0000870 0.0005852 -0.0000479 0.0005067 0.0056689 -0.0002639 0.0004520 0.0003937 -0.0003225 0.0012578 -0.0000385 0.0009752 -0.0008977 0.0029704 -0.0028711 0.0025642 -0.0093490 0.0101051 0.0003718 0.0016834 0.0004095 0.0023009 -0.0000495 0.0015857 -0.0016383 0.0047777 0.0002097 0.0006279 0.0002581 0.0017792 0.0001202 0.0000912 -0.0060094 0.0112879 0.0003926 0.0017782 0.0011982 0.0018475 -0.0002656 0.0024829 0.0001759 0.0015480 0.0001968 0.0020149 0.0001483 0.0021783 -0.0008100 -0.0056322
-0.0000725 -0.0001466 -0.0000441 -0.0000563 -0.0001228 0.0002251 -0.0000909 -0.0006165 -0.0001764 -0.0007823 -0.0002443 -0.0003739 -0.0000618 -0.0000067 -0.0000453 -0.0003745 0.0002146 0.0002127 0.0001246 -0.0004210 0.0002154 0.0000213 -0.0000296 -0.0002695 -0.0001647 -0.0004275 0.0004052 -0.0004912 0.0004469 -0.0000240 -0.0000855 0.0009270 0.0001157 -0.0000901 -0.0002100 -0.0001916 -0.0000633 -0.0001962 0.0006143 0.0001813 -0.0000163 -0.0001121 0.0002294 0.0008681 -0.0001209 -0.0001415 0.0001215 -0.0000981 0.0004793 0.0003683 0.0002299 -0.0003027 -0.0000065 -0.0008379 0.0003358 -0.0000436 0.0002055 -0.0005970 -0.0000670 -0.0000901 0.0001845 -0.0002447 0.0002354 -0.0004142 -0.0000660 -0.0004123 -0.0001645 -0.0003083 -0.0000386 -0.0010142 0.0016599 0.0000465 -0.0004590 0.0043214 0.0118641 -0.0190619 -0.0005184 0.0001322 0.0000060 -0.0000150 0.0008656 0.0010314 0.0014187 -0.0015217 0.0001501 -0.0000981 0.0005742 0.0007939 0.0000903 -0.0000421 -0.0001634 -0.0005031 -0.0021222 0.0014871 -0.0067951 0.0043507 0.0000129 -0.0001135 0.0003181 -0.0003268 0.0002125 0.0014623 0.0000872 -0.0000555 -0.0003795 -0.0005836 -0.0051843 0.0159131 -0.0022557 -0.0014060 0.0007207 -0.0000440 0.0010740 -0.0009090 0.0004759 0.0000746 0.0000072 0.0002624 0.0000490 -0.0002426 -0.0002444 -0.0006876 -0.0004109 -0.0003203 0.0009580 -0.0020952 0.0006595 -0.0001050 0.0001462 -0.0005211 0.0001483 -0.0001777 0.0028540 -0.0029092 0.0000081 0.0001844 -0.0013824 0.0012562 -0.0001209 0.0002988 -0.0000090 0.0004137 0.0002403 0.0004567 -0.0000422 0.0004952 0.0000310 0.0007047 -0.0009994 0.0008475 -0.0003007 0.0002128 0.0000571 0.0001427 -0.0265996 0.0266250 0.0001393 0.0010156 0.0009910 0.0021855 -0.0000145 0.0014260 -0.0004310 0.0019340 0.0001017 0.0005265 0.0001322 0.0007607 -0.0001879 0.0002650 -0.0000034 0.0004524 0.0071355 -0.0021649 0.0002686 0.0004847 0.0000752 0.0010485 -0.0000770 0.0010282 0.0007253 0.0009384 -0.0025068 0.0023950 -0.0085732 0.0059774 0.0001654 0.0020043 0.0003864 0.0022056 -0.0001352 0.0016891 -0.0034816 0.0100816 -0.0004250 0.0012641 0.0002759 0.0016390 -0.0001163 0.0001637 -0.0038513 -0.0001976 0.0003699 0.0017216 0.0027936 0.0002158 -0.0002025 0.0022695 0.0001370 0.0014450 0.0002081 0.0019705 0.0001188 0.0021448 -0.0006051 -0.0054300
-0.0000793 0.0000305 -0.0000404 0.0001089 -0.0001195 0.0003388 -0.0000817 -0.0006269 -0.0001757 -0.0006768 -0.0002549 -0.0001904 -0.0000623 0.0000902 -0.0000725 -0.0003857 0.0002392 0.0002763 0.0000547 -0.0002115 0.0002940 -0.0000930 -0.0000566 -0.0000257 -0.0001518 -0.0004077 0.0004076 -0.0003661 0.0004330 -0.0000181 -0.0000816 0.0010474 0.0000008 -0.0000127 -0.0001614 -0.0001983 -0.0000822 -0.0002640 0.0010816 -0.0001469 0.0000048 -0.0000548 0.0002258 0.0008843 -0.0000545 -0.0000317 0.0001032 -0.0001690 0.0003961 0.0003762 0.0002538 -0.0003494 0.0000150 -0.0008784 0.0003589 -0.0000893 0.0002406 -0.0006057 -0.0000418 -0.0001382 0.0002020 -0.0002848 0.0000867 -0.0004612 -0.0001365 -0.0003695 -0.0002052 -0.0003260 -0.0009891 0.0004583 0.0016574 0.0000075 0.0026384 0.0000661 0.0072935 -0.0022619 -0.0003099 -0.0000121 0.0000037 0.0000199 0.0000391 0.0002686 0.0003907 -0.0005462 0.0001544 -0.0001303 -0.0007001 0.0022698 0.0002539 0.0002009 -0.0002390 -0.0004730 -0.0019499 -0.0016900 -0.0033172 0.0040848 0.0001551 -0.0003152 0.0002294 0.0000787 0.0003586 0.0010239 -0.0001153 0.0000737 -0.0003441 -0.0005754 -0.0012189 0.0032688 -0.0019706 0.0016460 0.0002845 0.0002637 0.0012688 -0.0010593 0.0005700 -0.0006679 0.0000315 0.0001467 0.0001057 -0.0004262 -0.0002102 -0.0009147 0.0001974 -0.0010622 -0.0000184 -0.0004161 0.0005304 -0.0002577 0.0001625 -0.0005260 0.0000293 -0.0002047 0.0039517 -0.0139274 0.0000103 0.0000016 -0.0027080 0.0035001 0.0001541 -0.0001666 0.0000211 0.0002510 -0.0000158 0.0005037 -0.0000495 0.0004322 -0.0000515 0.0006365 -0.0001764 -0.0003570 0.0001537 -0.0003954 -0.0000009 -0.0001379 -0.0072432 0.0084841 0.0001099 0.0009492 -0.0001231 0.0030257 -0.0000385 0.0012770 0.0000652 0.0001951 0.0001155 0.0003294 0.0000422 0.0006407 -0.0004855 0.0003819 -0.0000707 0.0003549 0.0089822 -0.0093513 0.0000748 0.0002347 0.0004053 0.0006122 -0.0000752 0.0008776 0.0000845 0.0008906 -0.0029686 0.0027571 0.0009470 -0.0040029 -0.0001829 0.0017329 0.0003841 0.0019195 0.0000316 0.0012015 0.0021492 0.0030679 0.0000119 0.0002759 0.0002105 0.0013910 0.0011892 -0.0008062 0.0001447 0.0000536 0.0002023 0.0016145 0.0020437 0.0021268 -0.0002160 0.0020951 0.0000331 0.0014271 0.0001550 0.0018825 0.0001193 0.0020172 -0.0006462 -0.0051223
-0.0000983 0.0000730 -0.0000476 0.0001575 -0.0001228 0.0003214 -0.0000800 -0.0006304 -0.0001658 -0.0006399 -0.0002474 -0.0001777 -0.0000889 0.0001522 -0.0000734 -0.0003762 0.0002403 0.0002870 -0.0000526 -0.0000409 0.0002634 -0.0000127 -0.0000324 0.0000399 -0.0000853 -0.0004445 0.0004112 -0.0003359 0.0004417 -0.0000230 -0.0000881 0.0011444 0.0000120 0.0000784 -0.0001371 -0.0002147 -0.0000963 -0.0002684 0.0006989 0.0004794 -0.0000264 0.0000721 0.0002778 0.0009619 -0.0002547 0.0002783 0.0000946 -0.0001392 0.0006109 0.0002999 0.0002783 -0.0003273 0.0000349 -0.0008401 0.0003787 0.0000553 0.0003031 -0.0005340 -0.0000009 -0.0000387 0.0002286 -0.0001743 -0.0005379 0.0002219 -0.0001623 -0.0002214 -0.0002731 -0.0000035 -0.0007268 0.0005345 0.0013110 0.0003121 0.0049409 -0.0050645 0.0015590 0.0066524 0.0002105 -0.0003605 -0.0002372 0.0002474 0.0027069 -0.0038328 -0.0002012 -0.0000949 0.0001471 -0.0000696 0.0023392 -0.0002615 -0.0006694 0.0008000 -0.0003360 -0.0002370 0.0032929 -0.0020885 -0.0052216 0.0073788 0.0002921 -0.0004630 -0.0000919 0.0000429 0.0008244 0.0007217 -0.0002414 0.0001549 -0.0003504 -0.0004867 0.0025617 -0.0071090 0.0086264 -0.0079707 0.0001618 0.0003970 0.0013162 -0.0010977 0.0007059 -0.0004753 0.0000220 0.0001082 0.0001019 -0.0005090 -0.0003300 -0.0008961 -0.0011956 0.0006959 0.0001642 -0.0000215 0.0000638 -0.0000550 0.0000483 -0.0003304 0.0000081 -0.0001724 -0.0095203 0.0033101 -0.0002283 0.0000943 -0.0040087 0.0040385 -0.0004634 0.0002849 -0.0000139 0.0002498 0.0000515 0.0003163 -0.0002102 0.0004218 -0.0000457 0.0006939 0.0007384 -0.0003292 0.0001765 -0.0003545 0.0000288 -0.0002061 0.0042630 0.0008795 0.0001508 0.0008603 0.0000139 0.0027530 0.0000746 0.0009747 0.0006449 -0.0005356 -0.0000377 0.0004103 0.0000169 0.0005612 -0.0001359 0.0003157 0.0000425 0.0000496 -0.0025968 -0.0036167 -0.0003250 0.0008000 -0.0000799 0.0007394 -0.0001405 0.0007824 -0.0012856 0.0026018 0.0017207 -0.0015160 0.0056809 -0.0084762 0.0006704 0.0007218 0.0003171 0.0017486 -0.0000305 0.0010480 0.0057488 -0.0025077 0.0002339 -0.0002334 0.0001261 0.0013104 0.0008602 -0.0003829 0.0063317 0.0008048 0.0002181 0.0014446 0.0026060 0.0016675 -0.0002324 0.0019481 -0.0001186 0.0014136 0.0000356 0.0017299 0.0000710 0.0018789 -0.0005844 -0.0050101
-0.0000872 -0.0000845 -0.0000560 -0.0000088 -0.0001275 0.0001565 -0.0000739 -0.0006577 -0.0001554 -0.0007148 -0.0002604 -0.0002353 -0.0000847 0.0000682 -0.0000507 -0.0004255 0.0002025 0.0001895 -0.0000053 -0.0002035 0.0001907 0.0000198 0.0000176 -0.0001647 -0.0000714 -0.0005476 0.0003731 -0.0004727 0.0004294 -0.0001001 -0.0000898 0.0009122 0.0001340 -0.0001088 -0.0001720 -0.0001080 -0.0000987 -0.0002246 -0.0001643 0.0011363 -0.0000260 0.0000411 0.0003405 0.0008901 -0.0004863 0.0003477 0.0000936 -0.0000273 0.0005384 0.0003994 0.0002917 -0.0003183 0.0000583 -0.0007920 0.0004065 0.0001532 0.0003470 -0.0004496 -0.0000055 0.0000490 0.0002147 -0.0000349 -0.0001080 0.0000235 -0.0001755 -0.0001379 -0.0003714 0.0001143 -0.0011599 0.0006674 0.0015401 -0.0000183 0.0005411 -0.0010711 0.0033818 0.0028711 -0.0001549 0.0000972 -0.0002539 0.0003670 -0.0013462 0.0010907 0.0000134 -0.0005513 0.0001455 0.0000460 0.0020006 0.0001566 -0.0007511 0.0008598 -0.0002510 -0.0002022 -0.0011823 0.0035592 0.0003260 -0.0000658 -0.0000329 0.0000251 0.0001585 -0.0000865 0.0005676 0.0008741 -0.0004364 0.0003680 -0.0003782 -0.0003940 0.0037531 0.0006509 0.0073528 -0.0104302 0.0005067 0.0002455 0.0006483 -0.0005515 0.0001460 0.0001537 0.0000014 0.0002656 0.0001757 -0.0003348 -0.0003419 -0.0008271 -0.0022604 0.0028402 -0.0012967 0.0001388 -0.0001167 0.0000370 0.0001258 -0.0002488 0.0002691 -0.0001518 -0.0080595 0.0103094 -0.0002131 0.0003078 -0.0027921 0.0041024 -0.0006071 0.0005282 -0.0000128 0.0003724 -0.0000146 0.0004364 0.0000693 0.0002727 0.0001419 0.0006619 0.0008058 0.0000997 0.0000331 -0.0002271 0.0001243 -0.0001610 0.0083558 -0.0145158 0.0001872 0.0007797 0.0008647 0.0019260 0.0000799 0.0009222 -0.0004191 0.0008695 -0.0000164 0.0003025 0.0001121 0.0004667 0.0000721 -0.0000200 0.0000856 0.0000067 -0.0055143 0.0008152 -0.0007559 0.0011247 -0.0002523 0.0007940 -0.0001731 0.0007584 -0.0005878 0.0023441 0.0036486 -0.0024409 -0.0002719 -0.0016745 0.0006879 0.0007429 0.0002491 0.0016419 -0.0002872 0.0011357 -0.0029748 0.0031238 0.0000880 0.0000970 0.0001191 0.0011559 -0.0004406 0.0004537 0.0065609 -0.0092407 0.0000281 0.0014264 0.0022164 0.0000768 -0.0002233 0.0017984 0.0001559 0.0010662 0.0000375 0.0015190 0.0000295 0.0017208 -0.0005557 -0.0048498
-0.0000861 -0.0001438 -0.0000403 -0.0001026 -0.0001109 0.0000585 -0.0000629 -0.0006808 -0.0001542 -0.0007328 -0.0002459 -0.0002249 -0.0001083 0.0000498 -0.0000544 -0.0004405 0.0002264 0.0001192 0.0000477 -0.0002985 0.0002334 -0.0001330 0.0000338 -0.0002477 -0.0000415 -0.0006018 0.0003434 -0.0005698 0.0004055 -0.0001393 -0.0001081 0.0007022 0.0001451 -0.0002415 -0.0001646 -0.0001241 -0.0000766 -0.0001886 -0.0001578 0.0007858 -0.0000007 -0.0000503 0.0002983 0.0007940 -0.0002699 -0.0000604 0.0001109 0.0000113 0.0003220 0.0004940 0.0002990 -0.0003878 0.0000810 -0.0007662 0.0004193 0.0001161 0.0003837 -0.0004357 0.0000181 -0.0000223 0.0002154 -0.0000595 -0.0000681 0.0000162 -0.0000976 -0.0003389 -0.0004863 -0.0000133 -0.0010269 -0.0000064 0.0014224 -0.0002202 -0.0003130 0.0011594 -0.0023640 0.0055258 -0.0001752 0.0000784 -0.0000576 0.0002818 -0.0021170 0.0007391 0.0001553 -0.0006907 0.0001571 0.0000579 -0.0006519 0.0021482 -0.0002280 0.0005519 -0.0001590 -0.0003769 -0.0049193 0.0038144 0.0022648 -0.0028427 -0.0000983 0.0000129 -0.0009158 0.0009628 0.0000434 0.0014637 -0.0007420 0.0004436 -0.0003597 -0.0003385 -0.0029239 0.0121839 -0.0002597 0.0023917 0.0006159 0.0001922 0.0003538 -0.0002152 0.0000384 0.0000712 0.0000231 0.0003396 -0.0000233 -0.0000029 -0.0002636 -0.0008992 -0.0018336 0.0028001 -0.0017634 -0.0000749 -0.0005868 0.0004506 0.0001583 -0.0003347 0.0003523 -0.0002337 -0.0020025 0.0018031 -0.0001064 0.0004754 -0.0017833 0.0032292 -0.0004138 0.0003823 -0.0000315 0.0005783 0.0002182 0.0003986 0.0001339 0.0004026 0.0002025 0.0006383 -0.0000538 -0.0002072 -0.0000981 0.0001379 -0.0000251 0.0001367 0.0013603 -0.0176774 0.0001674 0.0007954 -0.0000306 0.0022806 0.0000708 0.0009717 -0.0012943 0.0021286 -0.0001439 0.0005047 0.0001024 0.0005091 -0.0001661 0.0000691 -0.0000052 0.0001804 0.0061861 -0.0063382 -0.0005005 0.0006820 0.0000450 0.0004245 -0.0001598 0.0007932 -0.0005429 0.0020205 0.0004250 0.0004936 -0.0006928 -0.0009500 0.0002737 0.0010688 0.0002144 0.0016370 -0.0002643 0.0012948 -0.0072259 0.0098094 -0.0000445 0.0000787 0.0000568 0.0011166 -0.0004320 0.0008134 0.0097611 -0.0236878 -0.0001050 0.0014822 0.0001363 0.0010632 -0.0002215 0.0017398 0.0002591 0.0009106 0.0000560 0.0014458 0.0000193 0.0016357 -0.0006163 -0.0044492
-0.0000920 -0.0000882 -0.0000402 -0.0000513 -0.0001059 0.0000924 -0.0000720 -0.0006341 -0.0001570 -0.0007493 -0.0002107 -0.0002302 -0.0000884 0.0000826 -0.0000594 -0.0004186 0.0002480 0.0001845 0.0000289 -0.0002737 0.0004034 -0.0002234 0.0000383 -0.0003129 -0.0000750 -0.0005802 0.0003706 -0.0005734 0.0004428 -0.0001106 -0.0001382 0.0007266 0.0001682 -0.0002994 -0.0001675 -0.0003327 -0.0000692 -0.0002222 0.0001356 0.0004663 0.0000209 -0.0001128 0.0003092 0.0007220 -0.0000837 -0.0003834 0.0001012 0.0000101 0.0004375 0.0003070 0.0003082 -0.0004527 0.0001041 -0.0007498 0.0003955 0.0000455 0.0004054 -0.0004283 0.0000630 -0.0000856 0.0002702 -0.0001009 -0.0005508 0.0001238 -0.0000335 -0.0004425 -0.0003589 -0.0001985 0.0000774 -0.0009281 0.0010245 -0.0000665 -0.0013572 0.0029505 0.0066636 -0.0080866 0.0005265 -0.0004846 -0.0000196 0.0002071 -0.0012276 0.0006341 -0.0014040 0.0005462 0.0001465 -0.0000028 0.0003656 0.0011106 -0.0003286 0.0008735 -0.0001122 -0.0004187 0.0003598 -0.0005243 -0.0030887 0.0043438 0.0001579 -0.0004349 0.0005865 -0.0000505 0.0000212 0.0014217 -0.0006767 0.0002487 -0.0002345 -0.0004234 -0.0064095 0.0101452 -0.0028942 0.0127945 0.0003725 0.0003006 0.0006325 -0.0004261 -0.0007647 0.0007842 0.0000489 0.0002387 -0.0000716 -0.0002251 -0.0003074 -0.0009473 -0.0011920 0.0012865 0.0010288 -0.0015133 -0.0002824 0.0003411 0.0001076 -0.0004424 0.0002379 -0.0002130 -0.0049682 -0.0086207 -0.0002059 0.0004237 -0.0013062 0.0010680 -0.0002352 0.0001820 0.0000156 0.0004851 0.0003086 0.0003495 -0.0000243 0.0003843 0.0000060 0.0006648 0.0000814 -0.0005061 0.0001673 -0.0000569 0.0000989 0.0000676 -0.0062176 0.0013917 0.0000895 0.0007936 -0.0004960 0.0025770 0.0000133 0.0009512 -0.0005557 0.0015875 -0.0002882 0.0005853 0.0001290 0.0004606 -0.0004002 0.0002727 -0.0000619 0.0002440 0.0069071 -0.0072203 -0.0000159 0.0004808 0.0003401 0.0001044 -0.0000836 0.0006656 0.0007841 -0.0004654 -0.0013192 0.0011692 0.0009376 -0.0006911 0.0000390 0.0013688 0.0002528 0.0015790 0.0001564 0.0010758 0.0038032 0.0029424 -0.0002409 0.0000505 0.0000706 0.0010263 0.0002170 -0.0001970 0.0068782 -0.0147002 -0.0000177 0.0014189 -0.0005370 0.0017748 -0.0002463 0.0017337 0.0000059 0.0011436 -0.0000042 0.0016060 0.0000194 0.0016601 -0.0006078 -0.0040848
-0.0000878 0.0000953 -0.0000766 0.0001994 -0.0001282 0.0002944 -0.0000731 -0.0005258 -0.0001576 -0.0006633 -0.0002769 -0.0001148 -0.0000807 0.0001913 -0.0000552 -0.0002731 0.0002762 0.0003340 0.0000149 -0.0001065 0.0004225 0.0000578 0.0000067 -0.0000764 -0.0000651 -0.0004296 0.0004100 -0.0004772 0.0005206 -0.0000408 -0.0001596 0.0008439 0.0001707 -0.0001323 -0.0001237 -0.0002705 -0.0000714 -0.0001344 -0.0001573 0.0011469 -0.0000061 0.0000896 0.0003049 0.0008519 -0.0003024 -0.0000148 0.0000597 0.0000907 0.0003814 0.0006443 0.0003040 -0.0004263 0.0001257 -0.0007282 0.0004112 0.0000918 0.0004103 -0.0003908 0.0000412 -0.0000088 0.0003029 0.0000031 -0.0001375 -0.0003275 -0.0000160 -0.0002770 -0.0002027 -0.0002253 0.0003549 -0.0007332 0.0009759 -0.0001434 -0.0101384 0.0061606 0.0022180 -0.0024036 -0.0000027 0.0000855 -0.0002437 0.0003021 0.0002839 0.0015217 -0.0016811 0.0002602 0.0001129 0.0000268 0.0001893 0.0011212 -0.0011263 0.0016026 -0.0001339 -0.0003312 0.0017535 -0.0021872 0.0022706 0.0006363 -0.0000137 -0.0001902 0.0001120 -0.0001081 0.0003792 0.0008431 -0.0002603 -0.0000734 -0.0001834 -0.0005089 -0.0075026 0.0004988 -0.0096595 0.0098406 0.0003147 0.0003599 0.0006799 -0.0004859 -0.0003294 -0.0000460 -0.0000010 0.0002685 -0.0000178 -0.0003341 -0.0001458 -0.0011225 0.0006854 -0.0010548 0.0008456 -0.0005762 0.0001535 0.0001448 0.0001320 -0.0004705 0.0002488 -0.0001633 -0.0059352 -0.0001039 -0.0001139 0.0002286 -0.0008240 0.0008052 -0.0002872 0.0001505 -0.0000725 0.0004949 0.0000626 0.0005717 -0.0002607 0.0005506 -0.0000683 0.0006613 0.0011498 -0.0012392 0.0000981 -0.0002131 0.0002911 -0.0002072 -0.0049522 0.0053646 0.0000542 0.0007511 0.0004063 0.0016642 0.0000147 0.0008172 -0.0001617 0.0005303 -0.0001826 0.0004204 0.0000379 0.0004113 -0.0001630 -0.0001504 -0.0000170 0.0001876 0.0004733 0.0006262 -0.0000494 0.0002302 -0.0005301 0.0008161 -0.0000032 0.0004863 0.0019516 -0.0017724 -0.0000143 0.0003780 -0.0000400 -0.0001698 -0.0004711 0.0017279 0.0002308 0.0014506 0.0003152 0.0006667 0.0073739 -0.0011337 -0.0003134 -0.0001486 0.0000685 0.0008823 0.0008001 -0.0007382 0.0049990 -0.0087250 0.0000380 0.0012133 -0.0000625 0.0008061 -0.0002325 0.0016282 -0.0000741 0.0010682 0.0000139 0.0015333 0.0000069 0.0015824 -0.0006386 -0.0038329
-0.0000941 0.0001097 -0.0001267 0.0002456 -0.0001319 0.0002938 -0.0000632 -0.0005083 -0.0001642 -0.0006413 -0.0003473 -0.0000926 -0.0001074 0.0002145 -0.0000554 -0.0002369 0.0002958 0.0003644 -0.0000150 0.0000208 0.0003419 0.0002635 0.0000247 0.0000452 -0.0000833 -0.0002689 0.0004291 -0.0004932 0.0005766 -0.0000301 -0.0001816 0.0009002 0.0001183 0.0000125 0.0000551 -0.0002923 -0.0000566 -0.0000868 -0.0000321 0.0011898 -0.0000312 0.0002394 0.0002813 0.0009824 -0.0000729 -0.0000866 0.0000440 0.0001273 0.0003796 0.0008619 0.0003070 -0.0004121 0.0001368 -0.0007197 0.0004082 0.0001939 0.0004241 -0.0003221 0.0000278 0.0000979 0.0003003 0.0001588 0.0002721 -0.0004219 -0.0000967 -0.0000474 -0.0002785 0.0000657 -0.0002129 -0.0004126 0.0010998 -0.0002820 -0.0083257 0.0001239 0.0042310 -0.0075026 -0.0000814 0.0002017 -0.0003130 0.0005931 0.0039473 -0.0007193 -0.0001579 -0.0006554 0.0000825 0.0002260 -0.0006182 0.0013188 -0.0015040 0.0018792 -0.0001529 -0.0002472 0.0005209 -0.0017674 0.0021643 0.0010476 -0.0000851 0.0000783 -0.0015546 0.0013286 0.0002476 0.0009092 -0.0003490 0.0000123 -0.0002101 -0.0003943 -0.0037043 -0.0034759 -0.0015759 0.0021627 0.0002429 0.0005213 0.0003872 -0.0001959 0.0006329 -0.0006287 -0.0000852 0.0004468 -0.0001289 0.0000292 -0.0001437 -0.0009904 0.0004704 -0.0008541 -0.0005262 0.0010010 0.0007350 -0.0001123 0.0000548 -0.0002941 0.0003270 -0.0001493 0.0063185 -0.0097037 -0.0000798 0.0002079 -0.0007128 -0.0002201 -0.0003410 0.0001745 -0.0001238 0.0005637 0.0001631 0.0004814 -0.0003432 0.0007169 -0.0002657 0.0008818 0.0002303 -0.0013658 -0.0003152 0.0002888 0.0000670 0.0002055 -0.0079484 0.0098677 0.0000772 0.0007084 0.0002875 0.0013894 0.0000617 0.0007961 0.0004582 -0.0003080 -0.0001511 0.0004308 -0.0000444 0.0004260 0.0001793 -0.0002727 -0.0000115 0.0001278 -0.0006111 0.0044306 -0.0000786 0.0002350 -0.0007101 0.0009717 -0.0001323 0.0005549 -0.0010409 0.0023444 -0.0008102 0.0016957 0.0027940 -0.0013218 -0.0001375 0.0014422 0.0001160 0.0014574 -0.0000337 0.0007786 0.0065495 -0.0088482 -0.0003414 -0.0002450 0.0000242 0.0008618 -0.0000530 0.0001456 0.0098338 -0.0182581 0.0000292 0.0011222 0.0022178 -0.0010353 -0.0001974 0.0014785 -0.0000394 0.0008641 0.0001005 0.0013061 0.0000116 0.0014896 -0.0004990 -0.0039551
-0.0001017 0.0000374 -0.0001310 0.0001037 -0.0001483 0.0001888 -0.0000744 -0.0005347 -0.0001811 -0.0007582 -0.0003755 -0.0002232 -0.0001037 0.0001072 -0.0000444 -0.0003125 0.0003719 0.0002395 0.0000058 -0.0000767 0.0003241 0.0002408 0.0000196 -0.0000697 -0.0001459 -0.0003281 0.0004348 -0.0006861 0.0005905 -0.0000397 -0.0002018 0.0008348 0.0001881 -0.0002396 -0.0000005 -0.0003506 -0.0000396 -0.0001399 -0.0002236 0.0010263 0.0000069 0.0000926 0.0003210 0.0008344 -0.0000586 -0.0001421 0.0000269 0.0000641 0.0004048 0.0006115 0.0003074 -0.0004561 0.0001382 -0.0007473 0.0003779 0.0001632 0.0004345 -0.0003027 0.0000364 0.0000721 0.0002646 0.0002023 -0.0000188 -0.0004533 -0.0001467 -0.0000659 -0.0001702 -0.0000215 0.0004088 -0.0005193 0.0010564 -0.0003146 -0.0046511 0.0021099 0.0104271 -0.0167552 0.0003167 -0.0001045 -0.0001210 0.0004898 -0.0003071 -0.0004631 -0.0006882 -0.0004643 0.0000706 0.0003287 0.0012678 -0.0001805 -0.0006541 0.0014838 -0.0002412 -0.0001187 0.0041090 -0.0044209 -0.0022355 0.0052372 0.0000520 0.0001199 -0.0004839 0.0006784 0.0003395 0.0007642 -0.0004967 0.0001122 -0.0003795 -0.0002119 0.0082519 -0.0144567 -0.0074926 0.0189007 0.0001216 0.0007777 0.0005522 -0.0003290 -0.0000390 -0.0001332 -0.0001097 0.0006184 -0.0000482 0.0002855 -0.0004236 -0.0005949 -0.0001108 0.0000925 -0.0003262 0.0011638 0.0008523 -0.0002659 -0.0000109 -0.0000586 0.0003167 -0.0000092 0.0122731 -0.0158464 -0.0001092 0.0004521 0.0003491 -0.0020163 -0.0003080 0.0004355 -0.0001851 0.0008237 0.0004138 0.0003530 -0.0001851 0.0008506 -0.0002505 0.0010915 -0.0013486 -0.0001669 -0.0002859 0.0007398 -0.0000685 0.0006256 -0.0080092 0.0047988 0.0001032 0.0007177 0.0002045 0.0013929 -0.0000451 0.0009560 -0.0000438 0.0005787 -0.0003167 0.0006215 0.0000119 0.0005333 0.0002157 -0.0000789 -0.0001326 0.0003665 0.0016714 0.0012063 -0.0004620 0.0007545 -0.0001153 0.0006195 -0.0002262 0.0006553 -0.0019382 0.0028139 -0.0012207 0.0010701 0.0020704 -0.0012566 0.0000936 0.0011512 0.0000989 0.0014016 0.0000955 0.0007093 -0.0000967 -0.0042313 -0.0001716 -0.0002913 0.0000288 0.0008513 -0.0001838 -0.0002688 0.0061400 -0.0084408 0.0000858 0.0010282 0.0025909 -0.0004622 -0.0002405 0.0014355 0.0000775 0.0007043 0.0001037 0.0011757 -0.0000194 0.0014402 -0.0003681 -0.0040270
-0.0000992 0.0000165 -0.0001213 0.0000533 -0.0001797 0.0001688 -0.0000849 -0.0005087 -0.0001846 -0.0008245 -0.0003842 -0.0002467 -0.0001017 0.0000642 -0.0000504 -0.0003670 0.0003866 0.0002496 0.0000675 -0.0001858 0.0003527 0.0002153 0.0000116 -0.0001125 -0.0000274 -0.0005033 0.0004359 -0.0007266 0.0005730 -0.0000239 -0.0002131 0.0007867 0.0002384 -0.0003589 -0.0001705 -0.0002662 -0.0000560 -0.0001620 -0.0001628 0.0006814 0.0000107 0.0000261 0.0003253 0.0007176 -0.0001081 -0.0000483 -0.0000134 0.0000246 0.0004745 0.0003953 0.0003009 -0.0004894 0.0001307 -0.0008319 0.0003548 0.0000757 0.0004255 -0.0002812 0.0000330 0.0000353 0.0002773 0.0001974 -0.0001562 -0.0000873 -0.0001194 -0.0001700 -0.0001869 -0.0000571 0.0006118 -0.0001525 0.0005085 -0.0008955 -0.0084079 0.0076992 -0.0089624 0.0094399 0.0000389 -0.0000564 -0.0001382 0.0001962 -0.0013717 -0.0022658 0.0000654 -0.0017033 0.0000728 0.0002845 0.0029013 -0.0015467 -0.0005768 0.0009921 -0.0002195 -0.0002270 0.0024149 -0.0028284 -0.0013826 0.0038444 0.0000467 0.0001058 -0.0014579 0.0007914 0.0006319 0.0003097 -0.0003768 0.0000451 -0.0004317 -0.0002742 -0.0034573 0.0002281 -0.0100348 0.0102042 0.0000421 0.0007134 0.0001734 -0.0000797 -0.0003445 -0.0000215 -0.0001177 0.0006273 -0.0000901 0.0003400 -0.0005316 -0.0005345 -0.0004486 0.0008498 0.0011082 -0.0022290 0.0005337 -0.0003047 -0.0000088 -0.0000846 0.0002432 0.0000565 0.0070597 -0.0019299 -0.0001147 0.0005832 0.0004751 -0.0017398 -0.0003942 0.0008619 -0.0002568 0.0009520 0.0002280 0.0005726 -0.0002562 0.0010667 -0.0001135 0.0010049 -0.0023214 0.0013973 -0.0004361 0.0009669 0.0001271 0.0004370 0.0151156 -0.0330877 0.0001018 0.0007300 0.0002181 0.0010846 -0.0000890 0.0009513 -0.0006045 0.0010463 -0.0003237 0.0005639 0.0000034 0.0005850 -0.0001389 0.0002708 -0.0000708 0.0004808 -0.0023948 -0.0009062 -0.0002364 0.0003614 -0.0003071 0.0007889 -0.0001460 0.0006366 -0.0005556 0.0016568 -0.0002585 -0.0007089 -0.0014153 0.0032689 -0.0001701 0.0012404 0.0001586 0.0013419 -0.0000785 0.0010614 0.0069448 -0.0012266 0.0003495 -0.0007166 0.0000373 0.0008708 0.0001744 -0.0001631 -0.0001006 0.0039343 0.0000382 0.0010825 -0.0030762 0.0043751 -0.0003102 0.0015058 0.0001188 0.0007397 0.0001476 0.0012190 -0.0000721 0.0015591 -0.0004424 -0.0036724
-0.0001224 0.0002407 -0.0001187 0.0002602 -0.0001960 0.0003766 -0.0000874 -0.0003879 -0.0001794 -0.0006751 -0.0003853 -0.0000692 -0.0001255 0.0002170 -0.0000777 -0.0003082 0.0003764 0.0003905 0.0000617 -0.0000476 0.0003334 0.0003571 0.0000102 0.0000663 -0.0000650 -0.0002682 0.0004095 -0.0006159 0.0005498 -0.0000088 -0.0002113 0.0007676 0.0001874 -0.0002397 -0.0000803 -0.0002636 -0.0000904 -0.0001365 0.0001036 0.0001721 -0.0000014 0.0000648 0.0002989 0.0007448 -0.0003230 0.0002443 -0.0000448 -0.0000139 0.0003345 0.0003919 0.0003135 -0.0005065 0.0000993 -0.0009428 0.0003448 0.0000080 0.0004598 -0.0002795 0.0000222 0.0000406 0.0003087 0.0002169 0.0002311 -0.0003905 -0.0001063 -0.0001331 -0.0003804 0.0000474 -0.0002308 0.0001649 -0.0002196 -0.0017862 -0.0003878 0.0007499 -0.0087061 0.0093741 -0.0001426 0.0000860 -0.0002394 0.0001644 -0.0001551 0.0021695 -0.0008496 -0.0002626 0.0000610 0.0002773 0.0030272 -0.0021481 -0.0008183 0.0004096 -0.0002521 -0.0003456 -0.0017622 0.0029806 -0.0030283 0.0057075 0.0000762 -0.0000130 -0.0015518 0.0013855 0.0001978 0.0002625 -0.0000763 -0.0002693 -0.0004127 -0.0003114 -0.0071772 0.0101293 0.0228523 -0.0452120 -0.0001909 0.0008324 -0.0002297 0.0001211 0.0002452 -0.0002124 -0.0000823 0.0005112 0.0000707 -0.0000040 -0.0005233 -0.0006127 0.0005141 -0.0003501 -0.0004787 -0.0012063 0.0009502 -0.0005686 0.0000097 -0.0002318 0.0002625 -0.0000030 0.0060136 -0.0044696 -0.0002333 0.0005550 0.0000370 -0.0016510 -0.0005212 0.0009445 -0.0002091 0.0007398 0.0000245 0.0006290 -0.0002429 0.0008769 -0.0001187 0.0008086 -0.0012505 0.0011953 -0.0003356 0.0007654 0.0002045 0.0002159 0.0115233 -0.0178868 0.0001585 0.0005406 -0.0003067 0.0011339 -0.0000573 0.0007749 -0.0005102 0.0009952 -0.0001000 0.0002110 0.0000180 0.0003798 -0.0007589 0.0007945 -0.0000582 0.0002869 -0.0136447 0.0057722 -0.0000013 0.0001152 -0.0004524 0.0008050 -0.0001616 0.0005779 0.0004734 0.0007841 0.0004746 -0.0007358 -0.0091328 0.0104034 -0.0001472 0.0010633 0.0001362 0.0012746 -0.0004199 0.0012445 0.0058434 0.0021214 0.0001167 -0.0003603 0.0000425 0.0007630 -0.0008892 0.0010575 0.0001389 0.0020465 0.0000356 0.0010460 -0.0024033 0.0039090 -0.0003001 0.0014008 -0.0000574 0.0008951 0.0000829 0.0013261 -0.0001044 0.0015789 -0.0005339 -0.0034616
-0.0001278 0.0003786 -0.0000964 0.0003509 -0.0001899 0.0004637 -0.0000923 -0.0002922 -0.0001737 -0.0005751 -0.0004007 0.0000390 -0.0001340 0.0002451 -0.0000887 -0.0002335 0.0003771 0.0004435 0.0000335 0.0001018 0.0002164 0.0005273 -0.0000459 0.0002792 -0.0001485 -0.0000677 0.0003852 -0.0005403 0.0005431 0.0000086 -0.0002152 0.0007302 0.0000923 -0.0000442 -0.0000635 -0.0001463 -0.0000927 -0.0000429 -0.0007181 0.0012644 -0.0000100 0.0002039 0.0003116 0.0008014 -0.0003755 0.0002846 -0.0000456 0.0000376 0.0000872 0.0007526 0.0003025 -0.0004612 0.0000330 -0.0010572 0.0003459 0.0001450 0.0004754 -0.0002530 0.0000254 0.0001710 0.0003451 0.0003158 0.0003217 -0.0007403 -0.0001316 0.0000092 -0.0004062 0.0001355 -0.0001053 -0.0001808 -0.0009156 -0.0022735 -0.0001252 -0.0018927 -0.0029296 -0.0082282 -0.0002874 0.0003650 -0.0002402 0.0001006 -0.0003953 0.0035785 -0.0010963 -0.0000735 0.0000402 0.0003358 0.0014745 -0.0012732 -0.0002227 -0.0000308 -0.0002835 -0.0002914 0.0000986 0.0015950 -0.0056236 0.0059231 0.0001826 0.0001209 0.0003973 -0.0001455 -0.0003480 0.0004051 -0.0001734 -0.0002969 -0.0004405 -0.0002920 0.0016057 0.0006707 0.0175168 -0.0264056 -0.0000067 0.0008464 0.0004675 -0.0004145 0.0003347 -0.0005850 -0.0000752 0.0005052 -0.0000134 0.0000289 -0.0004591 -0.0006764 0.0012901 -0.0017940 -0.0035386 0.0022196 0.0005182 -0.0001434 0.0000216 -0.0002666 0.0001369 -0.0000385 0.0077473 -0.0106640 -0.0002127 0.0004907 -0.0019807 0.0017714 -0.0005323 0.0010109 -0.0002402 0.0006238 0.0002649 0.0002529 -0.0001607 0.0005102 -0.0000668 0.0007335 -0.0005149 0.0003483 -0.0003204 0.0007678 0.0001346 0.0000921 -0.0006860 -0.0002477 0.0001117 0.0003630 0.0001587 0.0008728 0.0000001 0.0006762 -0.0007664 0.0005003 -0.0001941 0.0002075 -0.0000661 0.0003312 -0.0007452 0.0008056 -0.0001266 0.0002774 -0.0049024 -0.0019468 -0.0003985 0.0007584 -0.0005992 0.0006596 -0.0001698 0.0004311 0.0013861 -0.0008130 0.0009485 -0.0003501 -0.0027107 -0.0019498 0.0002580 0.0004452 0.0000975 0.0011433 -0.0000669 0.0007304 -0.0021503 0.0079456 0.0001136 -0.0004892 0.0000353 0.0006092 -0.0014323 0.0010728 0.0069519 -0.0060184 0.0000299 0.0009357 0.0012293 0.0011852 -0.0002287 0.0011573 -0.0000619 0.0006800 -0.0000442 0.0012720 -0.0001107 0.0012792 -0.0004915 -0.0042434
-0.0001048 0.0001548 -0.0001078 0.0001356 -0.0001645 0.0001974 -0.0000808 -0.0003497 -0.0001695 -0.0007097 -0.0003653 -0.0000924 -0.0001414 0.0001185 -0.0000800 -0.0003543 0.0003464 0.0003475 0.0000285 -0.0000092 0.0003341 0.0002959 -0.0000203 0.0001032 -0.0001325 -0.0002428 0.0003739 -0.0006171 0.0005526 -0.0000286 -0.0002171 0.0006288 0.0000140 -0.0000092 -0.0000084 -0.0002264 -0.0000745 -0.0000850 -0.0009564 0.0020021 0.0000051 0.0001653 0.0003032 0.0007895 -0.0002342 0.0001544 -0.0000238 0.0000498 0.0001694 0.0008432 0.0002937 -0.0004020 -0.0000005 -0.0011344 0.0003378 0.0002414 0.0004646 -0.0002096 0.0000570 0.0001857 0.0003725 0.0003572 0.0001533 -0.0004981 -0.0001613 0.0000413 -0.0004265 0.0002164 0.0001439 -0.0001887 -0.0013176 -0.0027420 -0.0079689 0.0025760 -0.0097938 0.0038606 -0.0005399 0.0006751 -0.0001703 0.0001090 0.0025963 -0.0034332 0.0018943 -0.0029621 0.0000635 0.0003146 0.0009897 -0.0007719 0.0001251 -0.0001984 -0.0003888 -0.0001626 0.0027765 -0.0021146 -0.0018858 0.0008016 0.0000567 0.0003017 0.0006229 -0.0011493 -0.0007757 0.0007865 -0.0003781 -0.0001550 -0.0002432 -0.0005505 0.0021837 -0.0026812 -0.0007110 -0.0043239 0.0001329 0.0007223 0.0007001 -0.0003700 -0.0006047 0.0003539 -0.0000985 0.0006791 -0.0004057 0.0005489 -0.0004439 -0.0005592 0.0001231 -0.0008307 -0.0028588 0.0024411 0.0004456 -0.0002936 -0.0000140 -0.0002727 0.0001088 -0.0000840 0.0002484 0.0006936 -0.0002838 0.0006859 -0.0046334 0.0041121 -0.0003128 0.0009299 -0.0001345 0.0005279 0.0001717 0.0002954 -0.0000898 0.0003768 -0.0001340 0.0008123 -0.0007153 0.0000106 -0.0002369 0.0004692 0.0001265 0.0001520 0.0142831 -0.0271950 0.0001063 0.0003101 0.0009766 0.0001399 0.0000044 0.0006428 -0.0000724 -0.0002694 -0.0002572 0.0001204 -0.0000472 0.0001559 -0.0003547 0.0004925 -0.0001578 0.0001921 0.0064700 -0.0074822 -0.0008961 0.0009599 -0.0000490 -0.0000035 -0.0000296 0.0001793 0.0002680 0.0005732 0.0009351 0.0005835 0.0067751 -0.0075152 0.0003450 0.0002239 0.0001331 0.0009328 0.0001266 0.0004205 0.0034178 0.0053906 -0.0000956 -0.0006212 0.0000554 0.0004303 -0.0000260 -0.0008256 0.0065418 -0.0111587 0.0000477 0.0008039 -0.0014938 0.0030760 -0.0001547 0.0009590 0.0001316 0.0002817 0.0000085 0.0010431 -0.0000721 0.0009818 -0.0004514 -0.0044718
-0.0001004 0.0000334 -0.0001318 -0.0000239 -0.0001858 0.0000468 -0.0000633 -0.0003742 -0.0001556 -0.0007816 -0.0003565 -0.0002045 -0.0001547 0.0000703 -0.0000677 -0.0004154 0.0003792 0.0002044 0.0000016 -0.0001162 0.0003658 0.0002226 0.0000255 -0.0001071 -0.0001881 -0.0003191 0.0003539 -0.0007357 0.0005166 -0.0000205 -0.0002192 0.0004784 0.0001277 -0.0001104 0.0000703 -0.0003678 -0.0000683 -0.0001086 -0.0003802 0.0012971 0.0000220 -0.0000079 0.0003060 0.0007200 -0.0002322 0.0000538 0.0000053 0.0000067 -0.0000001 0.0007923 0.0002890 -0.0004483 0.0000024 -0.0011533 0.0003605 0.0001720 0.0004731 -0.0002358 0.0000905 -0.0000017 0.0003752 0.0002128 -0.0000438 -0.0002337 -0.0001048 -0.0001400 -0.0003652 -0.0000647 -0.0010195 0.0010846 -0.0007635 -0.0031151 -0.0091945 0.0033919 -0.0175725 0.0209949 -0.0005498 0.0004930 -0.0000645 -0.0000063 -0.0000186 -0.0028326 0.0013847 -0.0028047 0.0000966 0.0001147 0.0033227 -0.0027088 0.0007478 -0.0009217 -0.0004921 -0.0002238 0.0012864 -0.0013779 0.0006705 0.0028486 0.0000264 0.0001141 0.0005628 -0.0010121 -0.0003729 0.0006554 -0.0003752 -0.0002057 -0.0002458 -0.0006401 0.0060836 -0.0163783 -0.0121389 0.0103184 0.0000142 0.0007578 0.0004217 -0.0000757 -0.0006332 0.0007471 -0.0000382 0.0006360 -0.0002012 0.0003284 -0.0003771 -0.0005380 -0.0012629 0.0010324 -0.0000421 0.0008815 0.0009140 -0.0006779 0.0000205 -0.0003573 0.0001732 -0.0000081 -0.0029127 0.0058117 -0.0002990 0.0008386 -0.0009734 0.0020799 -0.0005626 0.0009853 -0.0000693 0.0005535 0.0001845 0.0003486 -0.0002295 0.0007514 -0.0001141 0.0007262 -0.0011308 0.0001061 -0.0002301 0.0005110 0.0000783 0.0004087 0.0101344 -0.0273711 0.0001403 0.0003994 0.0006214 0.0003021 0.0000104 0.0005720 -0.0003772 0.0007745 -0.0000715 -0.0000645 -0.0000895 0.0001501 0.0000162 -0.0000034 -0.0001693 0.0001405 0.0087064 -0.0067252 -0.0008010 0.0008097 0.0001826 -0.0000199 -0.0000294 0.0002709 0.0000758 0.0005082 0.0012435 -0.0003079 0.0081521 -0.0059207 -0.0000588 0.0005202 0.0001251 0.0009346 0.0000525 0.0003511 0.0009052 0.0096655 -0.0005695 -0.0000968 -0.0000662 0.0005280 0.0000142 -0.0005308 0.0026834 0.0036929 0.0001728 0.0005577 -0.0012475 0.0023776 -0.0001535 0.0009288 -0.0000472 0.0004514 0.0000040 0.0008633 -0.0000774 0.0008925 -0.0005107 -0.0037694
-0.0000897 -0.0000067 -0.0001456 -0.0001126 -0.0002115 -0.0000196 -0.0000619 -0.0003561 -0.0001437 -0.0007813 -0.0003572 -0.0002160 -0.0001083 -0.0000469 -0.0000529 -0.0004604 0.0003732 0.0001791 -0.0000771 -0.0001174 0.0002552 0.0002740 0.0000264 -0.0002066 -0.0001971 -0.0003796 0.0003517 -0.0007632 0.0004980 -0.0000160 -0.0002133 0.0004151 0.0002631 -0.0002055 0.0000685 -0.0003910 -0.0000739 -0.0001367 0.0001546 0.0010673 0.0000229 -0.0001196 0.0003035 0.0006938 -0.0002122 -0.0001204 0.0000271 -0.0000375 0.0000155 0.0007015 0.0003014 -0.0005535 -0.0000051 -0.0011843 0.0003837 0.0001620 0.0004778 -0.0002828 0.0001216 -0.0001419 0.0004103 0.0000686 -0.0005590 0.0004855 -0.0001422 -0.0002104 -0.0003262 -0.0002265 -0.0008208 0.0010475 -0.0006802 -0.0029992 -0.0026508 -0.0021394 -0.0150814 0.0193677 -0.0002164 0.0001192 -0.0001101 -0.0001611 -0.0034765 0.0041941 -0.0002054 -0.0015066 0.0001385 -0.0000818 0.0029834 -0.0023064 0.0010070 -0.0013239 -0.0003360 -0.0005855 -0.0010464 0.0008371 0.0002153 0.0024376 -0.0000274 0.0000073 0.0000132 -0.0002189 -0.0000616 0.0002398 -0.0003628 -0.0002021 -0.0004259 -0.0006151 -0.0096028 0.0064269 -0.0169571 0.0190558 0.0002527 0.0005691 0.0002650 0.0000757 -0.0008822 0.0006180 0.0000337 0.0003975 -0.0000237 -0.0000333 -0.0003206 -0.0005666 -0.0000878 -0.0003320 0.0020139 -0.0017333 0.0004100 -0.0004982 0.0000706 -0.0005548 0.0001341 0.0000474 0.0084439 -0.0055848 -0.0001133 0.0004663 0.0007696 0.0008092 -0.0007310 0.0008967 -0.0000691 0.0003894 0.0003833 0.0000912 -0.0002013 0.0006674 -0.0000002 0.0005109 -0.0019363 0.0005725 -0.0002601 0.0003444 -0.0001340 0.0003747 -0.0076992 0.0048923 0.0000974 0.0003367 -0.0001990 0.0008338 0.0000133 0.0004254 -0.0008736 0.0010417 -0.0000733 -0.0001336 -0.0002006 0.0001797 0.0000880 -0.0001624 0.0000768 -0.0000535 0.0031170 -0.0032613 -0.0008817 0.0010980 -0.0003173 0.0005029 -0.0000948 0.0002530 0.0011383 -0.0009710 -0.0011851 0.0004959 -0.0002113 0.0024007 0.0001428 0.0004977 0.0000825 0.0009309 -0.0000332 0.0005029 -0.0029746 0.0099926 -0.0002048 -0.0003210 -0.0001612 0.0005910 -0.0015235 0.0010150 0.0003529 0.0077692 0.0001438 0.0004946 -0.0000738 0.0008056 -0.0001512 0.0008776 -0.0003783 0.0007076 -0.0000958 0.0009992 -0.0000151 0.0008976 -0.0005717 -0.0034077
-0.0000702 0.0001361 -0.0001580 0.0000382 -0.0001699 0.0000587 -0.0000594 -0.0003292 -0.0001289 -0.0007014 -0.0003025 -0.0001623 -0.0000954 -0.0000256 -0.0000450 -0.0004135 0.0003382 0.0003138 -0.0000987 0.0000056 0.0003124 0.0002263 -0.0000006 -0.0000862 -0.0002097 -0.0002645 0.0003741 -0.0006568 0.0004974 0.0000320 -0.0001889 0.0005884 0.0002307 -0.0001742 0.0001228 -0.0003764 -0.0000757 -0.0001755 0.0007116 0.0008638 0.0000077 -0.0000323 0.0002867 0.0008154 -0.0003788 0.0000447 0.0000327 -0.0001059 0.0003113 0.0006960 0.0003236 -0.0005122 0.0000007 -0.0011272 0.0003966 0.0002087 0.0004868 -0.0002715 0.0001538 -0.0002049 0.0004233 0.0000511 -0.0004448 0.0000375 -0.0001523 -0.0002197 -0.0002833 -0.0002877 0.0004214 -0.0001276 -0.0009696 -0.0026543 0.0024620 -0.0019163 -0.0061316 0.0085877 0.0001304 -0.0002853 -0.0002049 -0.0000325 -0.0049815 0.0066836 -0.0011772 -0.0000995 0.0001709 -0.0002549 0.0015472 -0.0005079 0.0004094 -0.0009475 -0.0001054 -0.0010397 0.0031219 -0.0033100 -0.0019699 0.0022004 0.0000216 -0.0001148 -0.0005255 0.0002849 -0.0000800 -0.0000714 -0.0000609 -0.0004282 -0.0003057 -0.0008689 -0.0157746 0.0180355 -0.0017502 0.0052904 0.0004932 0.0003954 0.0000815 0.0001178 -0.0010614 0.0002787 0.0000574 0.0002541 0.0000197 -0.0001399 -0.0002575 -0.0006413 0.0007982 -0.0015333 0.0014129 -0.0023446 0.0005237 -0.0005574 0.0001276 -0.0007715 0.0002526 -0.0001943 0.0084487 -0.0067468 -0.0000797 0.0002456 -0.0005485 0.0000007 -0.0002145 0.0003363 -0.0000018 0.0001223 0.0003010 0.0000249 -0.0000874 0.0001930 -0.0000084 0.0003343 -0.0029770 0.0023396 -0.0004135 -0.0000042 -0.0003084 0.0003057 -0.0023430 -0.0036190 0.0000499 0.0002375 0.0000637 0.0005390 0.0000016 0.0002349 -0.0000670 -0.0005539 -0.0001469 -0.0002937 -0.0001305 -0.0001660 -0.0002204 -0.0000395 0.0000538 -0.0001577 0.0042934 -0.0026856 -0.0007154 0.0004906 -0.0002667 0.0005161 -0.0000286 -0.0000336 0.0002028 -0.0007122 -0.0010474 -0.0003024 -0.0036970 0.0057661 0.0000556 0.0003429 0.0001282 0.0006715 -0.0002026 0.0004277 -0.0028083 0.0081933 -0.0004502 -0.0002045 -0.0000214 0.0002402 -0.0007459 -0.0002570 -0.0002250 -0.0112507 0.0001679 0.0002749 -0.0006408 0.0027135 -0.0001522 0.0006927 -0.0002518 0.0003030 -0.0000399 0.0008739 0.0000971 0.0006640 -0.0005349 -0.0032914
-0.0000495 0.0001375 -0.0001499 0.0000379 -0.0001717 0.0000586 -0.0000444 -0.0003350 -0.0001101 -0.0007099 -0.0002479 -0.0001959 -0.0001150 -0.0000223 -0.0000375 -0.0004074 0.0003486 0.0003240 -0.0000059 -0.0000877 0.0003941 0.0001624 -0.0000194 -0.0000768 -0.0001990 -0.0002172 0.0004011 -0.0005983 0.0005072 0.0000499 -0.0001535 0.0007082 0.0002742 -0.0001118 0.0000332 -0.0002407 -0.0000671 -0.0002360 0.0009362 0.0006912 0.0000110 0.0000090 0.0003378 0.0008811 -0.0001321 -0.0000458 0.0000461 -0.0001449 0.0003210 0.0008089 0.0003161 -0.0003827 0.0000105 -0.0009825 0.0004114 0.0003097 0.0004867 -0.0001689 0.0002072 -0.0001760 0.0004226 0.0001440 -0.0000967 -0.0005032 -0.0000538 -0.0002895 0.0001041 -0.0005478 -0.0002385 -0.0002852 -0.0010094 -0.0022318 -0.0071837 0.0035494 -0.0001362 -0.0045225 0.0000615 -0.0001965 -0.0001868 0.0002667 -0.0031480 0.0028731 -0.0004022 -0.0008227 0.0001734 -0.0002170 0.0004603 -0.0002713 0.0001748 -0.0002595 -0.0001001 -0.0010665 -0.0008188 -0.0007259 0.0000879 0.0005864 0.0002434 -0.0002544 -0.0012180 0.0002958 0.0003221 -0.0002177 -0.0002598 -0.0002222 -0.0003043 -0.0008722 -0.0051987 0.0031115 0.0098563 -0.0137508 0.0004198 0.0005813 0.0000653 0.0000522 -0.0000808 -0.0003758 0.0000751 0.0002914 0.0000505 -0.0002602 -0.0002470 -0.0005788 -0.0005584 -0.0000337 -0.0007856 -0.0007857 0.0005312 -0.0001539 0.0001939 -0.0007910 0.0001162 -0.0001267 0.0057569 -0.0023421 -0.0001528 0.0002802 -0.0007371 0.0008746 -0.0001237 0.0003372 -0.0000002 0.0000375 0.0001856 0.0000244 -0.0001692 0.0001384 0.0000868 0.0001461 -0.0015251 0.0010185 -0.0007324 0.0002430 0.0000104 0.0000948 0.0071674 -0.0243520 0.0000353 0.0001506 0.0001655 0.0004855 -0.0000796 0.0002322 0.0001264 -0.0010025 -0.0000712 -0.0005200 -0.0000259 -0.0004355 -0.0002931 0.0001419 -0.0001196 -0.0001169 0.0046925 -0.0040852 -0.0000833 -0.0001733 0.0002870 -0.0000008 0.0000336 -0.0001763 -0.0002273 -0.0012130 0.0011235 -0.0010588 0.0034131 -0.0032753 0.0000379 0.0000016 0.0001902 0.0005071 -0.0000351 -0.0000419 -0.0013339 0.0063303 -0.0002821 -0.0004594 0.0000286 0.0000545 0.0004010 -0.0014961 0.0158307 -0.0285051 0.0001382 0.0001848 0.0013292 0.0011646 -0.0001567 0.0005421 0.0000485 -0.0000082 0.0000071 0.0005615 0.0000780 0.0005043 -0.0003078 -0.0034753
-0.0000441 -0.0000304 -0.0001392 -0.0001614 -0.0001842 -0.0000910 -0.0000269 -0.0003651 -0.0001101 -0.0008154 -0.0002230 -0.0002739 -0.0001453 -0.0001392 -0.0000234 -0.0004960 0.0003824 0.0001917 0.0000131 -0.0003026 0.0003669 0.0001168 0.0000080 -0.0003120 -0.0001655 -0.0003853 0.0004167 -0.0006968 0.0005443 -0.0000226 -0.0001264 0.0006058 0.0003064 -0.0002131 -0.0000221 -0.0002653 -0.0000442 -0.0003712 0.0001075 0.0011997 0.0000352 -0.0001777 0.0004363 0.0007077 -0.0003361 0.0000124 0.0000744 -0.0002369 0.0003802 0.0007086 0.0003236 -0.0003370 0.0000340 -0.0008919 0.0004094 0.0003170 0.0004726 -0.0000905 0.0002522 -0.0002566 0.0004401 0.0001256 0.0003846 -0.0005563 -0.0000676 -0.0003474 0.0002028 -0.0006970 -0.0002264 -0.0006776 -0.0006628 -0.0022342 -0.0113687 0.0063181 -0.0067966 -0.0025357 0.0000648 -0.0002508 -0.0000707 0.0002010 -0.0000286 -0.0010994 0.0007273 -0.0022312 0.0001957 -0.0002264 0.0004675 -0.0000899 -0.0007030 0.0007227 -0.0000988 -0.0011146 -0.0041792 0.0025013 0.0059442 -0.0065829 0.0000339 -0.0001176 -0.0013565 0.0004715 0.0003065 0.0000898 -0.0006303 0.0000918 -0.0004164 -0.0008159 -0.0106990 0.0136998 0.0035269 -0.0066981 0.0003456 0.0006313 0.0001284 0.0001142 0.0003226 -0.0001049 0.0000736 0.0003438 0.0000177 -0.0001592 -0.0002046 -0.0004997 -0.0010328 0.0003398 -0.0006097 -0.0000616 -0.0000175 -0.0000018 0.0001589 -0.0006011 0.0000774 -0.0001000 0.0078982 -0.0083257 -0.0001038 0.0003375 -0.0009597 0.0010301 -0.0005357 0.0007328 -0.0000727 0.0001510 0.0000330 0.0001587 -0.0000239 0.0002351 0.0001320 0.0001549 0.0015852 -0.0016734 -0.0005545 0.0004185 0.0001286 0.0001632 0.0042047 -0.0061849 0.0000500 0.0001032 0.0000350 0.0003478 -0.0001015 0.0003440 0.0004124 -0.0013346 -0.0000809 -0.0003745 0.0000412 -0.0004250 -0.0002176 -0.0000132 -0.0001359 -0.0000809 0.0019067 -0.0038075 -0.0004888 0.0004878 0.0003646 -0.0001338 0.0000554 -0.0001571 0.0010816 -0.0019795 0.0000026 -0.0000623 0.0099037 -0.0121142 0.0006339 -0.0006244 0.0002268 0.0005613 0.0000792 0.0000058 0.0013144 0.0051415 0.0000024 -0.0005287 0.0000909 0.0000763 0.0007025 -0.0014406 0.0108969 -0.0169311 0.0001765 0.0002658 0.0023715 -0.0014083 -0.0000828 0.0005007 0.0000553 0.0000424 0.0000052 0.0005292 0.0000364 0.0005291 -0.0002374 -0.0034442
-0.0000402 -0.0000330 -0.0001410 -0.0002375 -0.0001865 -0.0001189 -0.0000081 -0.0002609 -0.0001195 -0.0009084 -0.0002382 -0.0004161 -0.0001492 -0.0002860 0.0000167 -0.0003800 0.0003714 0.0000582 0.0000098 -0.0003597 0.0002672 0.0000469 0.0000057 -0.0003679 -0.0000287 -0.0005823 0.0003053 -0.0009531 0.0005393 0.0000313 -0.0001159 0.0001648 0.0002864 -0.0002691 -0.0000740 -0.0002907 0.0000183 -0.0002920 -0.0003975 0.0008601 0.0000534 -0.0002790 0.0004300 0.0006014 -0.0002945 -0.0002643 0.0000985 -0.0002432 0.0005672 0.0005063 0.0003361 -0.0003290 0.0000623 -0.0008031 0.0004126 0.0003472 0.0004627 -0.0000770 0.0002279 -0.0003609 0.0004408 0.0000914 0.0005624 -0.0008936 -0.0001475 -0.0003386 -0.0001286 -0.0005698 -0.0003863 -0.0000075 -0.0002117 -0.0024129 -0.0059928 0.0047798 -0.0057165 0.0052683 0.0001058 -0.0006327 0.0000482 -0.0001493 0.0023626 -0.0038338 0.0002968 -0.0023223 0.0001883 -0.0003791 -0.0008097 0.0009739 -0.0011934 0.0004141 -0.0000033 -0.0013872 0.0015678 -0.0029072 0.0039500 -0.0057940 -0.0000516 -0.0002309 -0.0003980 -0.0000078 0.0000528 0.0002055 -0.0004560 -0.0001689 -0.0003116 -0.0011112 -0.0048419 0.0110773 -0.0054272 0.0091763 0.0003406 0.0005156 0.0001173 0.0000778 -0.0001607 0.0004548 0.0000894 0.0002297 0.0003256 -0.0004096 -0.0001320 -0.0004922 -0.0017595 0.0010971 -0.0001261 -0.0006320 -0.0003466 0.0001856 0.0000474 -0.0003689 0.0002606 -0.0003158 -0.0017144 0.0036515 -0.0000699 0.0003682 -0.0000968 0.0007498 -0.0007126 0.0007669 -0.0000585 0.0001076 0.0000775 -0.0000300 -0.0000611 0.0002585 0.0001065 0.0001151 0.0003721 -0.0002888 0.0000280 -0.0001405 -0.0000056 0.0002649 -0.0002711 0.0018736 0.0001070 0.0000579 -0.0004372 0.0006170 -0.0000502 0.0003568 0.0005008 -0.0019240 -0.0000368 -0.0005637 -0.0000112 -0.0003395 -0.0004103 -0.0000895 -0.0000692 -0.0001256 0.0006627 -0.0055697 -0.0003936 0.0002353 0.0000594 -0.0000324 0.0001036 -0.0002293 0.0008955 -0.0006889 -0.0019659 0.0014097 0.0080241 -0.0139193 0.0003096 -0.0006978 0.0002482 0.0005937 -0.0000357 0.0000583 0.0025942 0.0022199 -0.0003235 -0.0001804 0.0001131 0.0000772 -0.0001762 -0.0002632 -0.0004675 -0.0016679 0.0001609 0.0004004 0.0009027 -0.0001965 -0.0000652 0.0005704 0.0000482 0.0001147 0.0000349 0.0006779 0.0000267 0.0006800 -0.0004452 -0.0030554
-0.0000374 0.0001850 -0.0001397 -0.0000635 -0.0001860 0.0000582 0.0000138 -0.0000815 -0.0001194 -0.0008643 -0.0002812 -0.0004030 -0.0001442 -0.0002745 0.0000531 -0.0001033 0.0003837 0.0000031 0.0000481 -0.0002398 0.0003093 -0.0000254 -0.0000129 -0.0001494 0.0000237 -0.0004609 0.0001622 -0.0011136 0.0005504 0.0001198 -0.0001119 -0.0002793 0.0003238 -0.0001640 -0.0000135 -0.0002711 0.0000892 -0.0000147 -0.0005497 0.0008608 0.0000487 -0.0001213 0.0003398 0.0007198 -0.0001010 -0.0001835 0.0000893 -0.0001877 0.0005263 0.0007907 0.0003326 -0.0002482 0.0000857 -0.0006737 0.0004108 0.0004781 0.0004624 -0.0000033 0.0002317 -0.0003451 0.0004365 0.0001531 0.0003687 -0.0005407 -0.0001139 -0.0003309 -0.0002416 -0.0004615 -0.0004023 0.0003512 -0.0003962 -0.0020424 -0.0034706 -0.0015654 -0.0022929 -0.0036857 -0.0003772 -0.0004832 0.0001535 -0.0002754 -0.0029235 0.0020286 -0.0001158 -0.0019517 0.0002139 -0.0004506 -0.0012762 0.0005905 -0.0000742 -0.0009371 -0.0000863 -0.0013044 -0.0023317 -0.0011103 -0.0048778 0.0038497 -0.0001906 -0.0001500 -0.0007406 -0.0002639 0.0001038 -0.0002322 -0.0000044 -0.0005445 -0.0001299 -0.0013361 -0.0007745 -0.0024389 -0.0072761 0.0200067 0.0004489 0.0004042 0.0003022 -0.0000586 -0.0003949 -0.0003353 0.0000917 0.0001605 0.0001847 -0.0004105 -0.0002594 -0.0002989 -0.0026072 0.0022278 -0.0009737 -0.0006222 -0.0001240 0.0002698 0.0001391 -0.0005140 0.0002777 -0.0003852 -0.0088371 0.0133512 -0.0001841 0.0003231 -0.0024812 0.0049384 -0.0004907 0.0005780 0.0001238 -0.0001898 0.0001747 -0.0001796 -0.0001265 0.0000790 -0.0000896 0.0000942 -0.0028106 0.0020964 0.0002204 -0.0006670 -0.0000652 0.0001829 0.0029481 -0.0017214 0.0001258 -0.0000079 -0.0006129 0.0008257 0.0000267 0.0001516 0.0002755 -0.0015916 -0.0000918 -0.0008078 -0.0001433 -0.0004642 -0.0004532 -0.0001700 0.0000636 -0.0004159 -0.0010837 -0.0029671 -0.0000928 -0.0005205 0.0002770 -0.0003210 0.0000756 -0.0003990 0.0007574 -0.0019067 0.0016901 -0.0005700 -0.0032009 0.0005335 -0.0001467 -0.0001698 0.0001642 0.0005569 0.0000746 -0.0000979 0.0057897 -0.0071189 -0.0005959 -0.0002651 0.0000504 -0.0000169 -0.0004683 -0.0003130 -0.0087844 0.0108875 0.0000592 0.0004350 -0.0003812 0.0011224 -0.0000666 0.0005091 -0.0000374 0.0002032 0.0000738 0.0005971 0.0000193 0.0007596 -0.0005578 -0.0028910
-0.0000481 0.0002895 -0.0001081 0.0000224 -0.0001648 0.0001430 0.0000319 -0.0000770 -0.0000996 -0.0008333 -0.0002489 -0.0002717 -0.0001466 -0.0001531 0.0000452 -0.0000344 0.0003982 0.0001164 0.0000060 -0.0001233 0.0003110 0.0000241 -0.0000033 -0.0000579 -0.0000442 -0.0003305 0.0001723 -0.0010128 0.0005409 0.0000906 -0.0001069 -0.0002928 0.0003992 -0.0001494 0.0001091 -0.0002993 0.0001009 0.0000231 -0.0012040 0.0015864 0.0000386 -0.0000330 0.0003313 0.0008019 -0.0003602 0.0001401 0.0000691 -0.0002040 0.0004050 0.0011180 0.0003341 -0.0001665 0.0000827 -0.0006636 0.0004027 0.0005418 0.0004590 0.0001769 0.0002577 -0.0001936 0.0004299 0.0002911 0.0000238 -0.0000285 -0.0001565 -0.0002130 -0.0002143 -0.0003677 -0.0003216 0.0004253 -0.0002984 -0.0021675 0.0008667 -0.0048242 -0.0016688 -0.0115361 -0.0003671 -0.0003031 0.0001666 -0.0001321 -0.0107037 0.0082296 0.0001496 -0.0016002 0.0002509 -0.0003021 0.0004749 -0.0001545 0.0006916 -0.0015070 -0.0001693 -0.0011921 -0.0047523 0.0036709 -0.0002997 0.0018335 -0.0002721 0.0000333 -0.0011887 -0.0005804 -0.0000555 -0.0003979 0.0001699 -0.0006382 -0.0001944 -0.0012046 -0.0023821 0.0016767 -0.0069660 0.0155575 0.0006531 0.0004508 -0.0000094 0.0003875 -0.0004219 0.0000383 0.0000844 0.0003697 -0.0000047 -0.0000778 -0.0002835 -0.0001668 -0.0017688 0.0013052 -0.0009928 0.0009529 -0.0003608 0.0004766 0.0002312 -0.0005518 0.0002426 -0.0003512 -0.0085923 0.0074036 -0.0002762 0.0003866 -0.0030243 0.0041217 0.0001747 0.0000464 0.0001478 -0.0001999 0.0001693 -0.0001176 -0.0002309 0.0001508 -0.0000964 0.0001301 -0.0029518 0.0023885 -0.0000676 -0.0001192 0.0000026 0.0001365 -0.0038755 0.0051691 0.0000807 0.0000189 0.0004377 0.0005876 0.0000829 0.0000644 0.0011527 -0.0019922 -0.0000465 -0.0008525 -0.0002080 -0.0005264 -0.0004536 0.0000199 -0.0000118 -0.0004175 0.0009970 0.0015740 -0.0001869 -0.0003075 0.0005483 -0.0007848 0.0000194 -0.0004785 0.0011933 -0.0032436 0.0038765 -0.0038879 -0.0009006 0.0012166 -0.0003826 0.0002949 0.0001561 0.0004874 0.0001307 -0.0002026 0.0020310 0.0029458 -0.0003004 -0.0006389 -0.0000091 -0.0000807 -0.0003474 -0.0008373 -0.0062738 0.0088690 0.0001616 0.0002475 0.0015699 -0.0000424 -0.0000812 0.0004371 0.0000562 0.0000554 0.0000703 0.0004371 0.0000321 0.0006427 -0.0005154 -0.0031977
-0.0000481 0.0001239 -0.0001082 -0.0000765 -0.0001629 0.0000219 0.0000130 -0.0002048 -0.0000880 -0.0009252 -0.0001738 -0.0002573 -0.0001045 -0.0001423 -0.0000086 -0.0003237 0.0003866 0.0001897 -0.0000163 -0.0001731 0.0003075 -0.0000192 0.0000511 -0.0002224 -0.0000408 -0.0004689 0.0002948 -0.0007542 0.0004902 -0.0000118 -0.0000773 -0.0001292 0.0002753 -0.0000284 -0.0001047 -0.0001059 0.0000605 -0.0002995 -0.0007387 0.0011754 0.0000308 -0.0001108 0.0003433 0.0007451 -0.0002328 -0.0000919 0.0001866 -0.0003534 0.0004772 0.0007780 0.0003364 -0.0002104 0.0000036 -0.0009924 0.0003802 0.0005173 0.0004539 0.0001730 0.0002568 -0.0001283 0.0003994 0.0003727 0.0004419 -0.0007712 -0.0000975 -0.0003436 -0.0000547 -0.0004992 0.0002232 -0.0000628 -0.0006878 -0.0028374 0.0003122 -0.0027031 -0.0003975 0.0009691 -0.0000940 -0.0001285 0.0001492 -0.0001328 -0.0041702 0.0020157 -0.0002747 -0.0011505 0.0002161 -0.0001745 0.0002546 0.0009928 -0.0000918 -0.0010845 -0.0002039 -0.0011956 0.0011179 0.0001221 0.0046731 -0.0043584 0.0001201 -0.0003833 -0.0009366 0.0002223 -0.0006688 -0.0000360 -0.0000195 -0.0005196 -0.0003779 -0.0009889 0.0010373 -0.0039856 -0.0063825 0.0097828 0.0005140 0.0006967 -0.0002492 0.0005352 -0.0000535 0.0005160 0.0000847 0.0005412 0.0002208 -0.0001994 -0.0001737 -0.0001978 -0.0011570 0.0006158 -0.0003696 0.0012178 -0.0013827 0.0013418 0.0000919 -0.0002730 0.0001680 -0.0002349 -0.0007131 -0.0021045 -0.0000886 0.0003774 0.0003598 0.0011040 0.0001074 0.0000586 0.0000331 0.0000529 0.0003086 -0.0002263 -0.0000713 0.0001005 0.0000284 0.0001616 -0.0005688 0.0007425 -0.0002752 0.0002477 0.0001767 0.0000081 -0.0189521 0.0102546 0.0000847 0.0001161 0.0002855 0.0010912 0.0000308 0.0002844 0.0011251 -0.0018554 -0.0001454 -0.0007279 -0.0001069 -0.0005457 -0.0004545 0.0002461 -0.0000251 -0.0002722 -0.0021193 -0.0003366 0.0000278 -0.0002393 -0.0000296 -0.0003821 0.0000499 -0.0004119 0.0009978 -0.0016741 0.0002917 -0.0018226 0.0002152 -0.0029137 -0.0002769 -0.0001138 0.0001454 0.0005650 0.0000409 -0.0001605 0.0010845 0.0047441 -0.0001213 -0.0007885 -0.0000269 -0.0000431 -0.0003380 -0.0009175 -0.0014273 0.0000946 0.0002847 0.0002726 0.0039406 -0.0013242 -0.0001337 0.0006018 0.0001294 0.0001557 0.0000836 0.0005075 0.0000712 0.0007126 -0.0003223 -0.0032879
-0.0000596 0.0001715 -0.0001259 0.0000552 -0.0001394 0.0000724 -0.0000158 -0.0002647 -0.0001060 -0.0009825 -0.0001857 -0.0001547 -0.0000618 -0.0001058 -0.0000289 -0.0003938 0.0003889 0.0001596 0.0000009 -0.0001808 0.0003967 -0.0000449 0.0000742 -0.0002466 -0.0000758 -0.0004176 0.0002865 -0.0007094 0.0004688 -0.0000543 -0.0000918 -0.0003190 0.0001504 0.0000200 -0.0001185 -0.0000707 0.0000667 -0.0003370 0.0001762 0.0006016 0.0000183 -0.0001212 0.0003593 0.0007270 0.0000004 -0.0003677 0.0003294 -0.0004281 0.0006099 0.0004004 0.0002915 -0.0003186 -0.0000976 -0.0014616 0.0003370 0.0005062 0.0004044 0.0000781 0.0002732 -0.0002164 0.0003493 0.0003617 0.0002622 -0.0005160 0.0000489 -0.0005686 -0.0000836 -0.0005576 0.0005038 -0.0007888 -0.0012255 -0.0035557 0.0019895 -0.0061518 -0.0012815 0.0060130 -0.0002624 0.0000154 0.0001223 -0.0003903 -0.0020975 0.0018922 -0.0007768 -0.0006607 0.0001245 -0.0002097 -0.0002628 0.0015576 -0.0003200 -0.0008070 -0.0001370 -0.0012550 0.0060809 -0.0086565 0.0069025 -0.0118523 0.0000891 -0.0004232 -0.0002912 0.0002261 -0.0004006 -0.0004311 -0.0001818 -0.0003897 -0.0002680 -0.0010861 -0.0038284 -0.0084907 -0.0110195 0.0233754 0.0004239 0.0006169 0.0000846 0.0001764 0.0005327 -0.0005369 0.0000532 0.0004712 0.0002596 -0.0004063 -0.0001315 -0.0003048 -0.0006946 0.0000296 0.0010881 -0.0016964 -0.0010670 0.0010658 0.0000936 -0.0003117 0.0003023 -0.0003550 0.0010374 -0.0025616 -0.0000534 0.0003305 0.0014343 0.0015053 0.0001855 0.0000465 0.0000662 -0.0000138 0.0003569 -0.0002893 0.0001195 -0.0000844 -0.0000817 0.0002376 -0.0012996 0.0007894 -0.0004062 0.0000482 0.0000636 0.0000412 -0.0097911 0.0128492 0.0000656 0.0001585 -0.0001284 0.0007910 0.0000586 0.0003151 -0.0007648 -0.0004288 -0.0002825 -0.0006412 -0.0000694 -0.0006413 -0.0002567 -0.0002828 0.0000766 -0.0003988 0.0014655 -0.0042958 -0.0000018 -0.0009467 -0.0007300 0.0005285 0.0001078 -0.0003546 0.0004955 0.0003301 -0.0012091 0.0005531 0.0021115 -0.0033726 -0.0002483 -0.0001423 0.0001032 0.0007705 0.0000989 -0.0001588 0.0004045 0.0046141 0.0002247 -0.0009501 0.0000849 -0.0000771 0.0003892 -0.0014486 -0.0053584 0.0023853 0.0002086 0.0004917 0.0015749 0.0004077 -0.0001382 0.0008137 -0.0000242 0.0005077 0.0000964 0.0006879 0.0000546 0.0009839 -0.0002885 -0.0029149
-0.0000621 0.0004392 -0.0001077 0.0003109 -0.0001674 0.0001652 -0.0000974 -0.0005726 -0.0000384 0.0000095 -0.0002137 -0.0001368 -0.0001036 -0.0001496 -0.0000654 -0.0003007 0.0004134 0.0003125 0.0000041 0.0000257 0.0003827 0.0000176 0.0000584 0.0000567 -0.0001378 -0.0002369 0.0006361 -0.0000885 0.0005078 0.0000251 0.0000459 0.0014449 0.0001397 0.0003176 -0.0001419 0.0001798 -0.0003222 -0.0008131 0.0002535 0.0007249 0.0000338 0.0000795 0.0003026 0.0008769 -0.0004376 0.0000867 0.0000777 -0.0007693 0.0002814 0.0022777 0.0002830 -0.0002061 -0.0001801 -0.0017572 0.0003287 0.0005352 0.0003922 0.0001215 0.0002614 -0.0001419 0.0003150 0.0004164 -0.0006418 0.0003734 0.0000012 -0.0003670 -0.0000593 -0.0005633 -0.0005775 0.0003407 -0.0015908 -0.0034597 0.0072983 -0.0096124 -0.0077841 0.0145856 -0.0001619 -0.0001685 0.0002530 -0.0004134 -0.0051961 0.0053898 -0.0020404 -0.0009270 0.0000858 -0.0001764 0.0002778 0.0006891 -0.0003805 -0.0004474 -0.0001140 -0.0011936 -0.0010928 -0.0013643 0.0057360 -0.0103111 0.0001805 -0.0002957 0.0010958 -0.0013569 0.0000400 -0.0007143 -0.0002429 -0.0001792 -0.0001779 -0.0010838 0.0016909 -0.0099475 -0.0061023 0.0127627 0.0004232 0.0003684 0.0002628 0.0000695 0.0000616 -0.0001779 0.0000396 0.0003811 0.0001160 -0.0002923 -0.0001844 -0.0001355 -0.0001316 -0.0006992 0.0005967 -0.0014958 -0.0002885 0.0005359 0.0001868 -0.0004184 0.0004816 -0.0004583 0.0047789 -0.0050453 -0.0003231 0.0004296 -0.0001345 0.0017221 0.0004105 -0.0003613 0.0001338 -0.0001742 0.0000126 -0.0001026 -0.0001351 0.0000087 -0.0000233 0.0001741 -0.0030903 0.0011525 -0.0005023 -0.0000541 0.0000446 0.0001401 0.0019945 0.0018331 0.0000147 0.0001672 -0.0000501 0.0005722 0.0000671 0.0002971 -0.0014300 -0.0000826 -0.0001424 -0.0007342 -0.0000174 -0.0007507 -0.0002798 -0.0005904 0.0001240 -0.0006389 -0.0033107 0.0014795 0.0002218 -0.0011649 -0.0007146 0.0002601 0.0000488 -0.0005300 0.0012734 0.0015897 -0.0013124 0.0011372 0.0057792 -0.0065560 -0.0003813 0.0002529 0.0001576 0.0007627 -0.0000643 0.0001170 0.0038821 0.0061258 0.0002024 -0.0009989 0.0001295 -0.0001201 0.0001821 -0.0009086 0.0048580 -0.0028026 -0.0000413 0.0007413 -0.0010885 0.0015977 -0.0001265 0.0008499 -0.0001483 0.0005870 0.0000183 0.0007612 0.0000417 0.0010349 -0.0004148 -0.0024944
-0.0000367 0.0005337 -0.0001073 0.0004068 -0.0001962 0.0001378 -0.0001282 -0.0006901 0.0000977 0.0008786 -0.0001860 -0.0001213 -0.0001120 -0.0000072 -0.0000920 -0.0003373 0.0005017 0.0005880 0.0000659 0.0000866 0.0004602 0.0001435 0.0000652 0.0001446 -0.0001157 -0.0002113 0.0010697 0.0006598 0.0006921 -0.0000182 0.0000772 0.0028506 0.0000626 0.0005596 -0.0004505 0.0005455 -0.0006543 -0.0011302 0.0000663 0.0011963 0.0000324 0.0002037 0.0003925 0.0010904 -0.0004128 0.0000811 0.0000340 -0.0013536 0.0003344 0.0034224 0.0003134 -0.0000181 -0.0002350 -0.0018391 0.0003127 0.0005387 0.0003959 0.0002070 0.0002401 0.0000393 0.0003285 0.0004994 -0.0003247 0.0001277 -0.0000219 -0.0002284 -0.0000112 -0.0005412 -0.0016017 0.0015797 -0.0014689 -0.0036922 0.0040932 -0.0034729 -0.0183714 0.0235831 -0.0001086 -0.0001323 0.0002056 -0.0000545 -0.0033972 0.0026100 -0.0006758 -0.0023243 0.0001245 -0.0000262 0.0016946 -0.0006110 -0.0002243 -0.0009090 -0.0001879 -0.0009649 -0.0038688 0.0021089 -0.0051996 0.0028144 0.0002891 -0.0002981 0.0006246 -0.0009153 0.0002078 -0.0006304 -0.0002682 -0.0001804 -0.0001455 -0.0009991 0.0037428 -0.0084082 -0.0070230 0.0131615 0.0004808 0.0002720 0.0002102 0.0001971 -0.0001534 0.0001462 0.0000439 0.0003828 -0.0000040 -0.0001888 -0.0001776 -0.0000800 0.0005950 -0.0011432 -0.0003204 -0.0002877 0.0000980 0.0005357 0.0002696 -0.0004466 0.0004222 -0.0003749 0.0011224 0.0014722 -0.0002565 0.0002929 0.0008848 -0.0013329 0.0000803 -0.0001211 0.0001307 -0.0001827 -0.0001842 -0.0000172 -0.0003226 -0.0000640 0.0000501 0.0000878 -0.0001518 -0.0013633 -0.0002422 -0.0002443 0.0003276 -0.0000646 0.0018125 0.0030517 0.0000316 0.0001684 0.0005786 0.0005018 -0.0000006 0.0003600 -0.0001102 -0.0015388 -0.0002375 -0.0004797 -0.0000539 -0.0007161 -0.0004511 -0.0003250 0.0000706 -0.0007301 -0.0072738 0.0034328 0.0007979 -0.0016195 0.0000304 -0.0007287 -0.0000417 -0.0006649 0.0010605 0.0032247 -0.0001502 -0.0003866 0.0037776 -0.0030006 0.0005501 -0.0004205 0.0001645 0.0007284 -0.0003254 0.0004246 0.0059980 0.0031607 -0.0005134 -0.0005417 0.0000712 -0.0000722 -0.0000063 -0.0008921 0.0130490 -0.0136557 -0.0001783 0.0007958 0.0005411 -0.0004758 -0.0001132 0.0007798 -0.0001758 0.0006495 -0.0000113 0.0006503 0.0000278 0.0008994 -0.0002151 -0.0026947
-0.0000210 0.0003887 -0.0000874 0.0002490 -0.0001612 0.0000826 -0.0000188 -0.0003822 0.0001211 0.0002992 -0.0001643 -0.0001364 -0.0000132 0.0001094 -0.0000347 -0.0003388 0.0005333 0.0006301 0.0000438 -0.0000559 0.0005327 0.0000928 0.0000732 -0.0001278 -0.0000239 -0.0004202 0.0009298 0.0002195 0.0009064 -0.0000807 -0.0002332 0.0015188 0.0001162 0.0001732 -0.0004298 0.0002599 -0.0004537 -0.0005656 -0.0004367 0.0015382 -0.0000136 0.0000307 0.0005640 0.0010990 0.0004635 -0.0009335 0.0006016 -0.0009896 0.0010354 0.0019862 0.0002948 -0.0000930 -0.0002226 -0.0017725 0.0002899 0.0005207 0.0003838 0.0002156 0.0002508 -0.0000089 0.0003485 0.0004932 0.0003725 -0.0004423 -0.0000284 -0.0003469 -0.0001290 -0.0004750 -0.0006086 0.0006032 -0.0013500 -0.0039787 -0.0059313 0.0054684 -0.0105231 0.0094881 -0.0000517 -0.0003247 0.0000799 -0.0000361 -0.0032825 0.0008919 0.0004400 -0.0021507 0.0001797 0.0000046 0.0043203 -0.0026893 0.0005512 -0.0015298 -0.0000848 -0.0009824 0.0024599 -0.0037783 -0.0069181 0.0037928 0.0002309 -0.0002766 -0.0001051 -0.0005526 0.0001170 -0.0006506 -0.0002183 -0.0002569 -0.0001535 -0.0009086 0.0040679 -0.0026019 -0.0189609 0.0216733 0.0005102 0.0004834 0.0003193 0.0002938 -0.0001144 -0.0001139 0.0000387 0.0005498 -0.0000419 -0.0001540 -0.0000972 -0.0000598 0.0010347 -0.0016565 -0.0012529 0.0017251 -0.0001496 0.0005946 0.0001674 -0.0001321 0.0003362 -0.0001464 -0.0014615 0.0053008 -0.0002010 0.0003751 0.0028147 -0.0044177 -0.0001101 0.0004541 0.0001407 -0.0001060 -0.0000387 -0.0000115 -0.0000721 -0.0002037 -0.0001384 0.0003315 0.0021100 -0.0021230 0.0003735 -0.0006214 0.0001218 -0.0000272 0.0045749 0.0048536 0.0001245 0.0000965 0.0009651 0.0000903 -0.0000002 0.0004507 0.0008094 -0.0023040 -0.0001661 -0.0002951 -0.0001236 -0.0006825 -0.0003597 -0.0002089 0.0000041 -0.0006682 0.0046630 -0.0042317 0.0003255 -0.0011524 0.0010510 -0.0015286 0.0000209 -0.0006742 -0.0010647 0.0039751 0.0001199 -0.0013709 -0.0035362 0.0035681 0.0005092 -0.0002635 0.0001709 0.0007040 -0.0004143 0.0003560 0.0022762 0.0063679 -0.0001958 -0.0005509 0.0000635 0.0000416 -0.0002427 -0.0003108 0.0036429 -0.0031662 -0.0000782 0.0005666 0.0009168 -0.0009309 -0.0000859 0.0007272 -0.0000166 0.0006036 -0.0000005 0.0005132 0.0000318 0.0007920 -0.0002402 -0.0030699
-0.0000190 0.0001780 -0.0000813 0.0000743 -0.0001338 -0.0000743 0.0000294 -0.0003123 0.0000521 -0.0003389 -0.0001527 -0.0002409 0.0000210 0.0000060 -0.0000185 -0.0004291 0.0005042 0.0005077 0.0000246 -0.0001224 0.0005381 -0.0000526 0.0001319 -0.0002296 0.0000551 -0.0005990 0.0007436 -0.0002364 0.0009128 0.0000256 -0.0003727 0.0006346 0.0000937 0.0000288 -0.0002988 0.0000715 -0.0003916 -0.0004831 -0.0003678 0.0011294 0.0000015 -0.0001002 0.0004345 0.0011229 0.0006741 -0.0010656 0.0009470 -0.0006622 0.0015972 0.0006998 0.0002745 -0.0001878 -0.0001812 -0.0016273 0.0002698 0.0004120 0.0003781 0.0001800 0.0002508 -0.0001981 0.0003544 0.0003931 0.0003112 -0.0005280 -0.0000301 -0.0004944 -0.0001629 -0.0006284 0.0015978 -0.0012445 -0.0015581 -0.0038476 -0.0036073 0.0005351 0.0084840 -0.0247143 -0.0000249 -0.0006562 -0.0000231 -0.0001022 -0.0043841 0.0034245 -0.0002749 -0.0013298 0.0001746 -0.0001422 0.0030098 -0.0024713 0.0000474 -0.0010024 0.0000032 -0.0011753 0.0013513 -0.0025380 -0.0009907 -0.0006331 0.0000425 -0.0003209 0.0003401 -0.0016984 -0.0007443 -0.0000671 -0.0001522 -0.0003074 -0.0001603 -0.0009029 0.0069074 0.0002962 -0.0011547 -0.0033700 0.0001038 0.0008496 0.0004935 0.0001558 0.0004101 -0.0004530 0.0000790 0.0005550 -0.0000638 -0.0001904 -0.0000965 0.0000355 0.0000197 -0.0003033 -0.0008840 0.0026517 0.0000710 0.0001893 0.0000366 0.0001199 0.0002196 0.0001133 0.0009183 -0.0042868 -0.0003379 0.0006085 0.0038935 -0.0045731 -0.0002680 0.0004108 0.0000554 -0.0000699 0.0001634 -0.0000744 0.0000440 -0.0002303 -0.0000703 0.0002966 0.0012946 -0.0004874 -0.0002064 -0.0001396 -0.0001349 0.0000778 0.0131939 -0.0134493 0.0001138 0.0001273 -0.0001848 0.0014155 -0.0000467 0.0005825 -0.0001889 -0.0006058 -0.0000365 -0.0003158 0.0000940 -0.0008952 0.0001691 -0.0005085 -0.0000549 -0.0004758 0.0016685 -0.0006260 0.0007422 -0.0009164 0.0008335 -0.0012027 0.0000860 -0.0005659 -0.0005272 0.0012069 -0.0013233 0.0005398 -0.0014277 0.0008477 -0.0000388 0.0000222 0.0001491 0.0006961 -0.0001233 0.0001619 -0.0014326 0.0108506 -0.0001680 -0.0005190 0.0001005 0.0002346 0.0002148 -0.0003257 0.0002658 0.0014296 -0.0000545 0.0005831 0.0038001 -0.0042142 -0.0001224 0.0007821 -0.0001526 0.0007444 0.0000148 0.0004954 0.0000667 0.0007220 -0.0004500 -0.0029339
-0.0000049 0.0001024 -0.0000883 0.0000428 -0.0001220 -0.0001250 0.0000266 -0.0003333 -0.0000019 -0.0006354 -0.0001470 -0.0002679 -0.0000120 -0.0000010 0.0000005 -0.0004625 0.0004958 0.0003901 0.0000232 -0.0001805 0.0003763 0.0001634 0.0001326 -0.0001952 0.0000838 -0.0006131 0.0006625 -0.0004018 0.0008464 0.0000864 -0.0003559 0.0003298 0.0000362 0.0000719 -0.0002116 0.0000675 -0.0003299 -0.0005123 0.0002662 0.0003388 0.0000385 -0.0001572 0.0004205 0.0010729 0.0004775 -0.0007458 0.0010091 -0.0009173 0.0016556 0.0003509 0.0002683 -0.0002407 -0.0001456 -0.0014846 0.0002496 0.0003115 0.0003486 0.0001433 0.0002504 -0.0003416 0.0003559 0.0003249 -0.0006926 0.0001354 0.0000239 -0.0006317 -0.0000346 -0.0008982 0.0018374 -0.0012062 -0.0018631 -0.0036266 0.0013273 -0.0068211 -0.0056624 -0.0007206 -0.0001733 -0.0006390 0.0000104 -0.0001988 0.0004177 -0.0008134 -0.0008443 -0.0018687 0.0001566 -0.0002115 0.0002938 -0.0009283 -0.0001942 -0.0012572 0.0000433 -0.0013649 -0.0043628 0.0024687 -0.0000681 -0.0007480 -0.0001088 -0.0003454 -0.0011485 -0.0005905 -0.0012205 0.0003048 -0.0002317 -0.0004755 -0.0000957 -0.0010655 0.0039227 0.0011501 -0.0065200 0.0096162 -0.0000058 0.0008905 0.0002140 0.0002558 0.0005787 -0.0004623 0.0001050 0.0004126 -0.0001307 -0.0003002 -0.0000838 0.0000395 0.0003654 -0.0009633 0.0010043 0.0002237 0.0004118 0.0000953 0.0001592 -0.0000967 0.0002126 0.0000484 -0.0100208 -0.0036884 -0.0002352 0.0003397 0.0015542 -0.0002287 -0.0002376 -0.0001825 -0.0000298 -0.0002986 0.0004328 -0.0005387 0.0001757 -0.0005270 0.0000507 0.0000087 0.0001246 0.0001302 -0.0005460 -0.0002686 0.0001744 -0.0003347 0.0028215 0.0001559 0.0000979 0.0001055 -0.0004865 0.0016319 -0.0000446 0.0005115 -0.0005863 -0.0006885 -0.0000844 -0.0004329 0.0000992 -0.0010186 0.0005413 -0.0009558 -0.0000027 -0.0006843 -0.0031996 -0.0040287 0.0004551 -0.0007625 0.0001226 -0.0008078 0.0000915 -0.0005282 0.0015102 -0.0016068 -0.0010972 0.0012158 0.0038740 -0.0059412 -0.0002629 -0.0000607 0.0000613 0.0006087 0.0001911 -0.0001665 -0.0059572 0.0119653 -0.0001437 -0.0005242 0.0000531 0.0002463 0.0009456 -0.0013250 0.0011725 -0.0079423 -0.0000798 0.0005770 0.0038235 -0.0045025 -0.0001210 0.0007345 -0.0002431 0.0008510 -0.0000458 0.0005896 0.0000538 0.0007346 -0.0003890 -0.0029574
-0.0000001 0.0001816 -0.0000815 0.0001025 -0.0001297 -0.0000472 0.0000408 -0.0002989 -0.0000146 -0.0008073 -0.0001565 -0.0003992 0.0000022 0.0000122 0.0000540 -0.0002736 0.0004322 0.0003278 -0.0000148 -0.0000590 0.0003310 0.0002725 0.0000748 0.0000125 0.0000438 -0.0004422 0.0004740 -0.0006879 0.0007971 0.0001749 -0.0002962 -0.0003385 0.0002431 -0.0000918 -0.0001138 0.0000185 -0.0001012 -0.0000602 0.0002005 0.0001459 0.0000498 -0.0000705 0.0005139 0.0010839 0.0000012 -0.0002744 0.0010443 -0.0008471 0.0015424 0.0003525 0.0002559 -0.0002923 -0.0001262 -0.0014265 0.0002630 0.0003705 0.0003351 0.0001208 0.0002447 -0.0004158 0.0003512 0.0003516 -0.0002871 -0.0002338 0.0000150 -0.0007201 0.0001690 -0.0012994 0.0012473 -0.0006140 -0.0019246 -0.0034030 -0.0132124 0.0073609 -0.0019521 0.0005942 0.0000652 -0.0006413 0.0001447 -0.0004437 0.0027456 -0.0057088 -0.0024697 -0.0009580 0.0001777 -0.0002353 0.0016052 -0.0022005 -0.0002741 -0.0018289 0.0000327 -0.0014338 0.0011028 -0.0021812 0.0041874 -0.0045405 -0.0001610 -0.0004503 -0.0004815 -0.0010550 -0.0005247 -0.0005337 -0.0003522 -0.0003388 -0.0001025 -0.0010990 0.0015591 -0.0016550 -0.0071229 0.0085751 0.0004252 0.0006360 0.0003370 0.0000556 -0.0000404 -0.0001239 0.0001078 0.0002771 0.0000166 -0.0005558 0.0000167 -0.0000676 0.0014541 -0.0015444 0.0010724 -0.0004232 0.0004852 -0.0000009 0.0002892 -0.0000422 0.0002847 0.0001300 -0.0040222 -0.0002704 -0.0000492 0.0000591 0.0009950 -0.0000749 -0.0004889 -0.0003779 -0.0000347 -0.0004485 0.0005440 -0.0007489 0.0001622 -0.0006684 0.0000203 0.0000142 0.0005842 -0.0003815 -0.0002354 -0.0008195 0.0001219 -0.0006771 -0.0036166 0.0005216 0.0000870 0.0001503 0.0000847 0.0002814 -0.0000415 0.0004868 0.0003662 -0.0023204 -0.0000125 -0.0006840 -0.0001119 -0.0009021 0.0004106 -0.0011872 0.0000676 -0.0010333 0.0034605 -0.0138646 -0.0002810 -0.0003606 0.0000638 -0.0011298 0.0000194 -0.0005145 0.0021036 -0.0027720 0.0003545 -0.0006597 -0.0006519 -0.0024698 -0.0005370 0.0002659 0.0000298 0.0002111 -0.0000405 -0.0002504 -0.0054423 0.0126266 -0.0002905 -0.0005473 -0.0000148 0.0000156 0.0000141 -0.0004532 0.0043928 -0.0120012 0.0000666 0.0001186 0.0002203 -0.0001237 -0.0000770 0.0004718 -0.0002017 0.0006248 -0.0000495 0.0004267 0.0001095 0.0006610 -0.0003292 -0.0031052
-0.0000086 0.0001392 -0.0000872 0.0000809 -0.0001435 -0.0001294 0.0000327 -0.0003420 -0.0000089 -0.0009243 -0.0001508 -0.0006478 0.0000196 -0.0000166 0.0000919 -0.0001893 0.0004171 0.0002127 0.0000327 -0.0000136 0.0004944 0.0000530 0.0000685 0.0000724 -0.0000248 -0.0003605 0.0003008 -0.0008788 0.0007380 0.0002389 -0.0002024 -0.0007808 0.0003278 -0.0002328 0.0000257 -0.0001028 0.0000588 0.0001753 0.0000058 0.0001210 0.0000400 0.0000172 0.0005348 0.0012349 -0.0002671 0.0000507 0.0009955 -0.0007786 0.0014969 0.0000528 0.0002422 -0.0001955 -0.0001159 -0.0012925 0.0002579 0.0005770 0.0003218 0.0002737 0.0002476 -0.0003015 0.0003381 0.0005550 0.0001071 -0.0002926 0.0000625 -0.0006984 0.0000952 -0.0011234 0.0011379 -0.0015449 -0.0016235 -0.0032247 -0.0169244 0.0117425 0.0117012 -0.0206209 -0.0000376 -0.0005613 0.0003545 -0.0004632 0.0033109 -0.0063500 -0.0007986 -0.0015479 0.0002105 -0.0001498 -0.0014286 0.0006032 -0.0001816 -0.0019499 -0.0000587 -0.0012095 0.0063414 -0.0095505 0.0020124 -0.0042211 -0.0001982 -0.0006707 -0.0002940 -0.0013658 0.0004517 -0.0014487 -0.0002998 -0.0002300 -0.0000588 -0.0010977 0.0004206 -0.0085490 -0.0025011 0.0000160 0.0006187 0.0004118 0.0002892 -0.0000309 -0.0003700 0.0002840 0.0001362 0.0002275 0.0002200 -0.0006821 0.0000746 -0.0002189 0.0007229 -0.0010202 0.0010016 -0.0006411 0.0012869 -0.0004272 0.0003606 0.0002340 0.0003761 0.0004909 0.0017757 0.0031801 -0.0000571 -0.0000238 0.0021894 -0.0030650 -0.0005912 -0.0004283 0.0000046 -0.0004785 0.0003181 -0.0005650 -0.0001168 -0.0006502 -0.0000281 0.0000547 -0.0006666 -0.0001788 0.0001721 -0.0012966 -0.0002242 -0.0005778 -0.0022450 -0.0018213 0.0001462 0.0001102 -0.0008462 0.0010441 -0.0000533 0.0003989 0.0000605 -0.0024927 0.0000389 -0.0009156 -0.0001450 -0.0009723 0.0001237 -0.0009259 0.0000362 -0.0011007 0.0050297 -0.0081297 0.0006669 -0.0014288 0.0004146 -0.0015117 -0.0000691 -0.0004604 -0.0005894 -0.0001566 -0.0003562 -0.0009418 -0.0103932 0.0031296 -0.0007303 0.0003912 -0.0000248 -0.0000510 -0.0002405 -0.0003191 0.0009595 0.0084794 -0.0003053 -0.0006869 -0.0000176 -0.0002092 -0.0004274 -0.0001939 0.0112502 -0.0162001 0.0000964 -0.0002102 0.0018820 -0.0010596 -0.0001052 0.0003050 -0.0002332 0.0004534 0.0000111 0.0001664 0.0001390 0.0005315 -0.0003429 -0.0030342
-0.0000092 -0.0000035 -0.0000711 -0.0000276 -0.0001306 -0.0002751 0.0000122 -0.0004220 -0.0000003 -0.0009787 -0.0001108 -0.0007598 0.0000233 -0.0000851 0.0000993 -0.0003135 0.0004762 0.0001137 0.0000484 -0.0001036 0.0004239 -0.0000281 0.0000413 -0.0000365 0.0000202 -0.0005488 0.0003117 -0.0008145 0.0007366 0.0001896 -0.0001447 -0.0005857 0.0003184 -0.0003256 -0.0000866 -0.0000633 0.0000275 -0.0001101 0.0008332 -0.0005651 0.0000153 -0.0000298 0.0005562 0.0012403 -0.0001143 -0.0000195 0.0009079 -0.0009140 0.0012920 0.0000923 0.0002348 -0.0001141 -0.0000935 -0.0011297 0.0002468 0.0005957 0.0003049 0.0003905 0.0002640 -0.0002365 0.0003512 0.0006552 0.0002262 -0.0005019 0.0000410 -0.0006305 -0.0001273 -0.0007930 0.0008439 -0.0012915 -0.0013327 -0.0030407 -0.0014658 -0.0027969 0.0065648 -0.0097534 -0.0003535 -0.0003137 0.0004244 -0.0001661 -0.0003909 -0.0009371 -0.0000331 -0.0013249 0.0002499 0.0000342 -0.0027007 0.0021074 0.0004178 -0.0016394 -0.0001880 -0.0008760 0.0045427 -0.0075825 0.0002044 -0.0016395 -0.0000145 -0.0008745 -0.0025761 0.0009886 0.0002624 -0.0009251 -0.0001771 -0.0002337 0.0000210 -0.0010051 -0.0041714 -0.0011980 -0.0056644 0.0086736 0.0008440 0.0000670 -0.0004292 0.0006020 -0.0004170 0.0007122 0.0001352 0.0004165 0.0003620 -0.0005922 0.0001095 -0.0000671 0.0004095 -0.0012975 -0.0003042 0.0012705 0.0009058 0.0002802 0.0003738 0.0004849 0.0004441 0.0007514 -0.0039005 0.0082449 -0.0001045 0.0000483 -0.0032663 0.0007654 -0.0002748 -0.0004404 -0.0000132 -0.0003529 0.0000651 -0.0003025 -0.0002077 -0.0005337 -0.0000040 0.0001060 -0.0010641 -0.0005482 0.0000192 -0.0010773 0.0000696 -0.0008430 -0.0045675 0.0151875 0.0002068 0.0000628 -0.0011861 0.0010887 0.0000129 0.0002508 -0.0012335 -0.0014281 0.0000455 -0.0009177 0.0000286 -0.0011337 -0.0001833 -0.0006368 0.0001547 -0.0011510 0.0022455 -0.0029350 0.0010685 -0.0016119 0.0006830 -0.0016891 0.0000854 -0.0005441 -0.0008676 0.0007721 -0.0001900 -0.0004746 -0.0064893 -0.0048498 -0.0005735 0.0001809 -0.0001001 -0.0001083 -0.0000839 -0.0003291 0.0037183 0.0050505 -0.0000281 -0.0008428 0.0000255 -0.0003250 -0.0002698 -0.0005669 0.0073351 -0.0112542 0.0001104 -0.0003368 0.0018250 -0.0036065 -0.0001530 0.0002566 -0.0001206 0.0002428 -0.0000651 0.0000995 0.0001465 0.0003934 -0.0004360 -0.0028156
-0.0000084 -0.0001504 -0.0000671 -0.0001322 -0.0001224 -0.0003778 0.0000106 -0.0004369 0.0000049 -0.0009488 -0.0000853 -0.0007802 0.0000516 -0.0001435 0.0001037 -0.0003664 0.0004531 0.0001286 0.0000658 -0.0001707 0.0003214 0.0000680 0.0000905 -0.0001123 0.0000848 -0.0005953 0.0003280 -0.0007279 0.0007188 0.0001780 -0.0001108 -0.0003985 0.0002265 -0.0002357 -0.0002262 -0.0000304 0.0000106 -0.0002878 0.0008855 -0.0003404 0.0000197 -0.0000900 0.0005501 0.0011925 0.0000765 -0.0003309 0.0008565 -0.0009911 0.0011651 0.0000881 0.0002511 -0.0001208 -0.0000535 -0.0009722 0.0002327 0.0004925 0.0002822 0.0003735 0.0002648 -0.0003316 0.0003503 0.0005947 0.0006900 -0.0013178 0.0000755 -0.0007764 -0.0000900 -0.0010679 -0.0002718 0.0000988 -0.0009950 -0.0030871 -0.0051370 0.0003821 0.0048086 -0.0069682 -0.0002075 -0.0004601 0.0001536 0.0001080 -0.0027769 0.0019085 -0.0010433 -0.0005541 0.0002187 0.0001174 -0.0008085 0.0000284 -0.0001128 -0.0007085 -0.0001351 -0.0009118 0.0035434 -0.0044985 0.0069228 -0.0080357 -0.0001428 -0.0008348 -0.0026763 0.0009278 -0.0006334 -0.0000859 0.0000510 -0.0002437 -0.0000143 -0.0009142 -0.0027497 0.0063935 0.0038479 -0.0010674 0.0006682 0.0004285 -0.0000725 0.0003998 -0.0000033 0.0002698 0.0001339 0.0005302 0.0002588 -0.0004390 0.0001210 0.0001478 0.0003118 -0.0002938 -0.0006482 0.0017626 0.0002098 0.0007691 0.0003572 0.0006399 0.0004945 0.0009268 -0.0110016 0.0101948 -0.0000952 0.0001479 -0.0018410 0.0005382 0.0000674 -0.0006522 -0.0000226 -0.0002195 0.0000603 -0.0000835 -0.0001580 -0.0002979 0.0000693 0.0002111 -0.0003828 -0.0005968 -0.0004504 -0.0005872 0.0002538 -0.0010714 0.0040275 0.0071948 0.0001446 0.0002140 0.0000124 -0.0002787 -0.0000117 0.0003590 -0.0012110 -0.0008232 -0.0000280 -0.0006376 0.0000061 -0.0008426 0.0001148 -0.0009154 0.0000918 -0.0009245 0.0057525 -0.0052452 0.0007422 -0.0012749 0.0002710 -0.0010231 0.0001314 -0.0003807 0.0014532 -0.0011282 0.0003173 0.0004347 0.0057428 -0.0086447 0.0000131 -0.0003335 -0.0001316 -0.0000468 0.0000440 -0.0002425 0.0021705 0.0050043 -0.0000302 -0.0005543 0.0000645 -0.0002264 -0.0003560 -0.0005345 0.0000912 0.0037288 0.0000656 -0.0001947 -0.0008841 -0.0017834 -0.0000939 0.0002220 0.0000142 0.0001152 -0.0000843 0.0001616 0.0001460 0.0004219 -0.0003171 -0.0027170
-0.0000102 -0.0001798 -0.0000612 -0.0001392 -0.0001133 -0.0003687 0.0000051 -0.0003994 0.0000057 -0.0008357 -0.0000873 -0.0007831 0.0000694 -0.0001515 0.0000934 -0.0003176 0.0004393 0.0001310 0.0001081 -0.0002159 0.0003564 0.0001275 0.0001305 -0.0001381 0.0000515 -0.0005379 0.0003062 -0.0006294 0.0006743 0.0002249 -0.0000937 -0.0002970 0.0001981 -0.0002221 -0.0001605 -0.0000639 0.0000129 -0.0003142 0.0005605 -0.0001552 0.0000181 -0.0000939 0.0005065 0.0011702 0.0002582 -0.0006247 0.0008281 -0.0009558 0.0011032 0.0001089 0.0002589 -0.0000988 -0.0000190 -0.0008146 0.0002048 0.0004688 0.0002510 0.0003638 0.0002662 -0.0004026 0.0003190 0.0005770 0.0006640 -0.0011957 0.0002521 -0.0009889 -0.0000492 -0.0012793 -0.0005449 -0.0004375 -0.0008336 -0.0029734 0.0014139 -0.0020140 0.0009985 -0.0088755 -0.0001217 -0.0007922 0.0002214 -0.0001788 0.0001814 -0.0014002 -0.0006864 -0.0023204 0.0002009 0.0001468 -0.0001112 -0.0010935 -0.0001279 -0.0007179 -0.0000241 -0.0010009 -0.0005701 -0.0012001 0.0009347 -0.0029115 0.0000577 -0.0010788 -0.0016530 -0.0001660 -0.0003878 -0.0003411 0.0000831 -0.0001661 -0.0000604 -0.0008958 -0.0006853 -0.0030045 0.0073515 -0.0146351 0.0001301 0.0010207 0.0001248 0.0002409 0.0000648 -0.0001155 0.0001563 0.0004183 0.0000797 -0.0003485 0.0001574 0.0000493 -0.0012762 0.0013554 0.0011958 -0.0008156 -0.0001363 0.0008629 0.0003240 0.0006179 0.0005355 0.0009307 -0.0037782 -0.0033784 -0.0001817 0.0001428 0.0013987 -0.0005638 0.0001503 -0.0008424 0.0000146 -0.0002257 0.0003143 -0.0000604 -0.0001773 -0.0001375 0.0000455 0.0001966 -0.0007214 0.0000435 -0.0003459 -0.0009186 0.0001905 -0.0010356 0.0097830 -0.0129385 0.0001565 0.0002220 0.0006532 -0.0007347 -0.0000311 0.0003970 0.0001687 -0.0017231 -0.0001058 -0.0003950 -0.0000265 -0.0007384 0.0001875 -0.0010275 0.0001003 -0.0008391 0.0023048 -0.0062183 0.0009142 -0.0015433 0.0000581 -0.0008687 0.0000116 -0.0001835 -0.0012160 0.0020173 -0.0007719 0.0004773 0.0024613 -0.0033404 0.0000087 -0.0002821 -0.0000517 -0.0000313 0.0002518 -0.0004322 0.0044756 0.0024056 -0.0000109 -0.0003737 0.0000687 -0.0000590 0.0001524 -0.0008656 -0.0093557 0.0074103 -0.0000607 0.0000622 -0.0024092 0.0001308 -0.0000690 0.0002941 0.0000108 0.0002242 -0.0001019 0.0003878 0.0001767 0.0005692 -0.0003007 -0.0025703
-0.0000225 0.0000346 -0.0000386 0.0000514 -0.0001168 -0.0001448 -0.0000128 -0.0002687 -0.0000209 -0.0007060 -0.0000830 -0.0007272 0.0000543 -0.0001040 0.0000917 -0.0001209 0.0004076 0.0002015 0.0000760 -0.0000163 0.0003149 0.0002301 0.0000813 0.0000704 0.0000508 -0.0004575 0.0002770 -0.0005062 0.0006512 0.0002973 -0.0000907 -0.0001669 0.0002672 -0.0001974 -0.0001341 0.0000275 0.0000177 -0.0001801 0.0009217 -0.0003965 0.0000450 -0.0000215 0.0004649 0.0012174 0.0001655 -0.0005190 0.0008255 -0.0008789 0.0010797 0.0004011 0.0002199 -0.0000518 -0.0000126 -0.0007378 0.0001919 0.0004925 0.0002286 0.0003621 0.0002532 -0.0003889 0.0002908 0.0006154 0.0003397 -0.0007572 0.0002385 -0.0009851 -0.0000303 -0.0012565 0.0008922 -0.0016163 -0.0005154 -0.0029642 0.0066250 -0.0058000 0.0088507 -0.0237307 -0.0001590 -0.0007020 0.0004426 -0.0003314 0.0008787 -0.0025670 -0.0009889 -0.0017884 0.0001553 0.0002615 0.0021075 -0.0032555 0.0003509 -0.0012001 -0.0000022 -0.0009568 0.0022601 -0.0060710 0.0019801 -0.0044688 0.0003350 -0.0012768 -0.0001614 -0.0014973 0.0001132 -0.0006599 -0.0000827 0.0000025 -0.0001125 -0.0007467 -0.0049830 -0.0100724 0.0119386 -0.0228683 0.0000883 0.0009711 -0.0000786 0.0004235 0.0001345 -0.0003529 0.0001576 0.0003595 -0.0001292 -0.0002090 0.0000719 0.0000043 -0.0007146 0.0006807 0.0026096 -0.0024645 0.0006998 0.0003137 0.0003103 0.0006763 0.0005855 0.0008101 0.0049849 -0.0112855 -0.0001055 0.0000415 0.0011434 -0.0012089 0.0001051 -0.0009104 0.0000327 -0.0001820 0.0004580 -0.0001012 -0.0001337 -0.0003276 -0.0000359 0.0002771 -0.0000908 -0.0003548 -0.0002403 -0.0011269 0.0001155 -0.0010784 0.0049707 -0.0065145 0.0001236 0.0002367 0.0000339 -0.0000820 -0.0000075 0.0003374 0.0000838 -0.0014870 -0.0001157 -0.0003847 0.0000134 -0.0008575 -0.0002423 -0.0008122 0.0002658 -0.0010171 -0.0136449 0.0108160 0.0002326 -0.0006330 0.0001758 -0.0009337 -0.0000243 -0.0001650 -0.0017789 0.0024117 0.0006318 -0.0006449 -0.0019144 -0.0035521 -0.0003033 -0.0000926 -0.0000434 -0.0001430 0.0003525 -0.0004995 0.0029371 0.0062351 -0.0002681 0.0000167 0.0000255 -0.0000573 0.0008298 -0.0020789 -0.0136311 0.0010123 -0.0000859 0.0000964 -0.0023280 -0.0002103 -0.0000667 0.0002605 -0.0000575 0.0001924 -0.0001221 0.0004525 0.0001800 0.0006269 -0.0004050 -0.0022981
-0.0000385 0.0001242 -0.0000523 0.0000952 -0.0001385 -0.0000932 0.0000119 0.0000159 -0.0000662 -0.0007495 -0.0002093 -0.0009005 -0.0000001 -0.0002371 0.0001960 0.0003755 0.0002768 0.0000048 0.0000405 0.0001632 0.0002692 0.0002551 0.0001037 0.0002081 0.0000280 -0.0003552 0.0000645 -0.0007706 0.0006004 0.0003713 -0.0001167 -0.0005182 0.0002035 0.0000794 -0.0001562 0.0001111 0.0000886 0.0000685 0.0007048 -0.0002103 0.0000432 0.0001131 0.0005260 0.0011833 -0.0001529 -0.0000944 0.0007702 -0.0007625 0.0012072 0.0003083 0.0001906 0.0000378 -0.0000138 -0.0006953 0.0001971 0.0008631 0.0001854 0.0004592 0.0001759 -0.0002124 0.0002840 0.0008875 0.0005982 -0.0008938 0.0001888 -0.0008192 0.0001005 -0.0010637 0.0011880 -0.0010461 -0.0005132 -0.0027184 0.0028961 -0.0054035 0.0175402 -0.0279108 -0.0003858 -0.0001753 0.0003479 0.0000787 0.0000400 -0.0035714 -0.0009336 -0.0004800 0.0001313 0.0004129 0.0007445 -0.0013137 0.0005984 -0.0011661 -0.0000883 -0.0006936 0.0023237 -0.0052813 0.0073635 -0.0084320 0.0002990 -0.0011024 -0.0000389 -0.0008049 0.0000713 -0.0005308 -0.0001337 0.0000897 -0.0001953 -0.0005618 -0.0044705 -0.0037751 0.0100887 -0.0181666 0.0002766 0.0007739 0.0002794 0.0002358 0.0007039 -0.0007505 0.0001408 0.0004101 -0.0000231 -0.0002940 -0.0000254 0.0000736 -0.0018101 0.0015774 0.0036657 -0.0039248 0.0007835 0.0004459 0.0003559 0.0007488 0.0004979 0.0010029 0.0070380 -0.0082178 -0.0000706 -0.0000459 0.0015154 -0.0026047 -0.0001343 -0.0007089 0.0001076 -0.0002216 0.0003959 -0.0000958 -0.0000593 -0.0005138 -0.0000754 0.0003763 0.0010146 -0.0018616 -0.0001472 -0.0011677 -0.0001363 -0.0006757 0.0022977 -0.0024757 0.0000751 0.0002739 0.0004716 -0.0001606 -0.0000688 0.0004064 -0.0016009 -0.0000113 -0.0000790 -0.0001849 -0.0002495 -0.0004737 -0.0001046 -0.0007316 0.0003581 -0.0009725 -0.0011268 0.0012520 -0.0010843 0.0006947 0.0005289 -0.0010393 -0.0000126 -0.0001313 0.0000205 -0.0001580 -0.0008087 0.0014877 0.0063220 -0.0166075 -0.0001157 -0.0002278 -0.0000919 -0.0001167 0.0000630 -0.0001444 0.0009640 0.0071039 -0.0001656 0.0001388 0.0000121 -0.0000565 0.0006847 -0.0013256 0.0028134 -0.0072884 -0.0001534 0.0001737 0.0001983 0.0009758 -0.0000414 0.0001934 -0.0000093 0.0000957 -0.0000414 0.0003841 0.0001722 0.0005440 -0.0003049 -0.0023189
-0.0000485 0.0000623 -0.0000682 -0.0000334 -0.0001549 -0.0002015 0.0000063 0.0000048 -0.0000868 -0.0008788 -0.0002657 -0.0010072 -0.0000629 -0.0003259 0.0002533 0.0004703 0.0002298 -0.0001836 0.0000837 0.0000436 0.0003032 0.0001306 0.0001087 0.0001272 -0.0000060 -0.0003632 -0.0000595 -0.0009936 0.0005392 0.0003360 -0.0001169 -0.0007220 0.0002769 0.0000481 -0.0001772 0.0001503 0.0001197 0.0001239 0.0000337 0.0001312 0.0000257 0.0001262 0.0005533 0.0011074 -0.0002274 -0.0000828 0.0007113 -0.0007024 0.0012694 0.0000876 0.0001893 0.0000886 -0.0000104 -0.0006565 0.0001847 0.0009850 0.0001372 0.0005188 0.0001334 -0.0000588 0.0002611 0.0010032 0.0003889 -0.0006336 0.0001257 -0.0006587 0.0000096 -0.0007983 0.0009204 -0.0014388 -0.0006926 -0.0024632 0.0088033 -0.0116360 0.0130116 -0.0231894 -0.0003163 -0.0001625 -0.0001509 0.0006987 0.0028413 -0.0056678 -0.0008692 -0.0006281 0.0001704 0.0005579 -0.0002604 0.0001023 0.0002703 -0.0007178 -0.0000872 -0.0003814 0.0022013 -0.0017163 0.0009989 -0.0015969 0.0001614 -0.0008787 -0.0009895 0.0005411 0.0001658 -0.0003758 -0.0001075 0.0001218 -0.0001563 -0.0004230 0.0036474 -0.0138091 -0.0012660 0.0003890 0.0003552 0.0009308 0.0003479 0.0003688 0.0001294 -0.0001831 0.0000845 0.0006380 0.0000085 -0.0000737 0.0000409 0.0001964 -0.0019261 0.0018891 0.0013937 -0.0011198 0.0003021 0.0009784 0.0003519 0.0008500 0.0003098 0.0012898 -0.0027298 0.0023780 -0.0001886 0.0002857 -0.0010501 -0.0003933 -0.0006666 0.0001477 0.0001403 -0.0000449 0.0003566 0.0002180 0.0000059 -0.0001891 -0.0000763 0.0005577 0.0015724 -0.0023275 -0.0001732 -0.0008357 0.0000985 -0.0006067 -0.0123838 0.0041028 0.0000525 0.0003655 0.0007172 -0.0002583 -0.0001000 0.0004928 -0.0010082 -0.0002174 -0.0000667 0.0000575 -0.0000999 -0.0004281 -0.0006366 -0.0000532 0.0002773 -0.0006688 -0.0032742 -0.0015972 -0.0009042 0.0005787 0.0004549 -0.0007450 0.0000170 -0.0000692 0.0002737 0.0009028 -0.0032127 0.0029944 0.0042945 -0.0117116 0.0000930 -0.0001566 -0.0000666 -0.0000714 -0.0003085 0.0002457 0.0034460 -0.0016299 -0.0001064 -0.0001578 0.0000763 -0.0000482 0.0002756 0.0000409 -0.0019971 0.0048124 -0.0000555 0.0000492 0.0014442 0.0005695 -0.0000437 0.0002151 0.0000842 0.0001068 -0.0000702 0.0004128 0.0001963 0.0004586 -0.0003614 -0.0023231
