-0.0000000 -0.0000000 -0.0000000 -0.0000000 -0.0000000 -0.0000000 -0.0000000 -0.0000000 -0.0000000 -0.0000000 -0.0000000 -0.0000000 -0.0000000 -0.0000000 -0.0000000 -0.0000000 -0.0000000 -0.0000000 -0.0000000 -0.0000000 -0.0000000 -0.0000000 -0.0000000 -0.0000000 -0.0000000 -0.0000000 -0.0000000 -0.0000000 -0.0000000 -0.0000000 -0.0000000 -0.0000000 -0.0000000 -0.0000000 -0.0000000 -0.0000000 -0.0000000 -0.0000000 -0.0000000 -0.0000000 -0.0000000 -0.0000000 -0.0000000 -0.0000000 -0.0000000 -0.0000000 -0.0000000 -0.0000000 -0.0000000 -0.0000000 -0.0000000 -0.0000000 -0.0000000 -0.0000000 -0.0000000 -0.0000000 -0.0000000 -0.0000000 -0.0000000 -0.0000000 -0.0000000 -0.0000000 -0.0000000 -0.0000000 -0.0000000 -0.0000000 -0.0000000 -0.0000000 -0.0000000 -0.0000000 -0.0000000 -0.0000000 -0.0000000 -0.0000000 -0.0000000 -0.0000000 -0.0000000 -0.0000000 -0.0000000 -0.0000000 -0.0000000 -0.0000000 -0.0000000 -0.0000000 -0.0000000 -0.0000000 -0.0000000 -0.0000000 -0.0000000 -0.0000000 -0.0000000 -0.0000000 -0.0000000 -0.0000000 -0.0000000 -0.0000000 -0.0000000 -0.0000000 -0.0000000 -0.0000000 -0.0000000 -0.0000000 -0.0000000 -0.0000000 -0.0000000 -0.0000000 -0.0000000 -0.0000000 -0.0000000 -0.0000000 -0.0000000 -0.0000000 -0.0000000 -0.0000000 -0.0000000 -0.0000000 -0.0000000 -0.0000000 -0.0000000 -0.0000000 -0.0000000 -0.0000000 -0.0000000 -0.0000000 -0.0000000 -0.0000000 -0.0000000 -0.0000000 -0.0000000 -0.0000000 -0.0000000 -0.0000000 -0.0000000 -0.0000000 -0.0000000 -0.0000000 -0.0000000 -0.0000000 -0.0000000 -0.0000000 -0.0000000 -0.0000000 -0.0000000 -0.0000000 -0.0000000 -0.0000000 -0.0000000 -0.0000000 -0.0000000 -0.0000000 -0.0000000 -0.0000000 -0.0000000 -0.0000000 -0.0000000 -0.0000000 -0.0000000 -0.0000000 -0.0000000 -0.0000000 -0.0000000 -0.0000000 -0.0000000 -0.0000000 -0.0000000 -0.0000000 -0.0000000 -0.0000000 -0.0000000 -0.0000000 -0.0000000 -0.0000000 -0.0000000 -0.0000000 -0.0000000 -0.0000000 -0.0000000 -0.0000000 -0.0000000 -0.0000000 -0.0000000 -0.0000000 -0.0000000 -0.0000000 -0.0000000 -0.0000000 -0.0000000 -0.0000000 -0.0000000 -0.0000000 -0.0000000 -0.0000000 -0.0000000 -0.0000000 -0.0000000 -0.0000000 -0.0000000 -0.0000000 -0.0000000 -0.0000000 -0.0000000 -0.0000000 -0.0000000 -0.0000000 -0.0000000 -0.0000000 -0.0000000 -0.0000000 -0.0000000 -0.0000000 -0.0000000 -0.0000000 -0.0000000 -0.0000000 -0.0000000 -0.0000000
-0.0000000 -0.0000000 -0.0000000 -0.0000000 -0.0000000 -0.0000000 -0.0000000 -0.0000000 -0.0000000 -0.0000000 -0.0000000 -0.0000000 -0.0000000 -0.0000000 -0.0000000 -0.0000000 -0.0000000 -0.0000000 -0.0000000 -0.0000000 -0.0000000 -0.0000000 -0.0000000 -0.0000000 -0.0000000 -0.0000000 -0.0000000 -0.0000000 -0.0000000 -0.0000000 -0.0000000 -0.0000000 -0.0000000 -0.0000000 -0.0000000 -0.0000000 -0.0000000 -0.0000000 -0.0000000 -0.0000000 -0.0000000 -0.0000000 -0.0000000 -0.0000000 -0.0000000 -0.0000000 -0.0000000 -0.0000000 -0.0000000 -0.0000000 -0.0000000 -0.0000000 -0.0000000 -0.0000000 -0.0000000 -0.0000000 -0.0000000 -0.0000000 -0.0000000 -0.0000000 -0.0000000 -0.0000000 -0.0000000 -0.0000000 -0.0000000 -0.0000000 -0.0000000 -0.0000000 -0.0000000 -0.0000000 -0.0000000 -0.0000000 -0.0000000 -0.0000000 -0.0000000 -0.0000000 -0.0000000 -0.0000000 -0.0000000 -0.0000000 -0.0000000 -0.0000000 -0.0000000 -0.0000000 -0.0000000 -0.0000000 -0.0000000 -0.0000000 -0.0000000 -0.0000000 -0.0000000 -0.0000000 -0.0000000 -0.0000000 -0.0000000 -0.0000000 -0.0000000 -0.0000000 -0.0000000 -0.0000000 -0.0000000 -0.0000000 -0.0000000 -0.0000000 -0.0000000 -0.0000000 -0.0000000 -0.0000000 -0.0000000 -0.0000000 -0.0000000 -0.0000000 -0.0000000 -0.0000000 -0.0000000 -0.0000000 -0.0000000 -0.0000000 -0.0000000 -0.0000000 -0.0000000 -0.0000000 -0.0000000 -0.0000000 -0.0000000 -0.0000000 -0.0000000 -0.0000000 -0.0000000 -0.0000000 -0.0000000 -0.0000000 -0.0000000 -0.0000000 -0.0000000 -0.0000000 -0.0000000 -0.0000000 -0.0000000 -0.0000000 -0.0000000 -0.0000000 -0.0000000 -0.0000000 -0.0000000 -0.0000000 -0.0000000 -0.0000000 -0.0000000 -0.0000000 -0.0000000 -0.0000000 -0.0000000 -0.0000000 -0.0000000 -0.0000000 -0.0000000 -0.0000000 -0.0000000 -0.0000000 -0.0000000 -0.0000000 -0.0000000 -0.0000000 -0.0000000 -0.0000000 -0.0000000 -0.0000000 -0.0000000 -0.0000000 -0.0000000 -0.0000000 -0.0000000 -0.0000000 -0.0000000 -0.0000000 -0.0000000 -0.0000000 -0.0000000 -0.0000000 -0.0000000 -0.0000000 -0.0000000 -0.0000000 -0.0000000 -0.0000000 -0.0000000 -0.0000000 -0.0000000 -0.0000000 -0.0000000 -0.0000000 -0.0000000 -0.0000000 -0.0000000 -0.0000000 -0.0000000 -0.0000000 -0.0000000 -0.0000000 -0.0000000 -0.0000000 -0.0000000 -0.0000000 -0.0000000 -0.0000000 -0.0000000 -0.0000000 -0.0000000 -0.0000000 -0.0000000 -0.0000000 -0.0000000 -0.0000000 -0.0000000 -0.0000000
0.0000178 0.0002320 -0.0000113 0.0001665 -0.0000021 0.0002130 0.0000698 0.0001562 0.0000398 0.0002614 0.0000937 0.0003022 0.0000466 0.0002022 0.0000071 0.0000784 -0.0000466 0.0000219 -0.0000408 0.0000693 0.0000946 0.0000172 -0.0000285 0.0002222 0.0000307 0.0001324 0.0000600 0.0004880 -0.0000889 -0.0000326 0.0000446 -0.0002534 -0.0000572 0.0000986 0.0000273 0.0002489 0.0000057 -0.0000201 -0.0006949 0.0001811 -0.0000023 0.0001883 -0.0002278 -0.0006327 0.0001181 0.0001637 -0.0003381 -0.0000842 -0.0000392 -0.0003437 0.0002914 0.0005837 0.0001961 0.0004750 0.0002199 0.0005777 0.0000769 0.0002687 -0.0000105 0.0001022 0.0000418 0.0000513 -0.0000675 0.0001323 -0.0000972 0.0001022 0.0000033 0.0000781 0.0004456 -0.0005291 0.0005557 -0.0006938 0.0040424 -0.0043339 -0.0008993 0.0065910 -0.0001439 0.0006082 0.0001003 0.0001953 -0.0012800 0.0006079 0.0015290 -0.0003966 -0.0000175 0.0000857 -0.0007644 -0.0003106 0.0004639 0.0000711 0.0000198 0.0002544 -0.0009195 0.0015637 0.0001824 -0.0001184 0.0002307 -0.0000382 0.0000597 0.0000886 -0.0003970 -0.0006770 -0.0000612 -0.0001028 -0.0000726 0.0002785 0.0093659 -0.0169421 0.0040786 -0.0025915 -0.0000100 -0.0001413 0.0004200 -0.0001032 0.0000500 0.0006053 0.0000109 0.0001284 -0.0001604 0.0004883 0.0000980 0.0000430 -0.0000073 0.0002490 0.0004225 -0.0004599 0.0003487 0.0005120 -0.0000853 -0.0001915 -0.0000031 -0.0000016 -0.0030986 0.0017850 0.0000280 0.0001068 -0.0008172 0.0011593 -0.0000304 0.0000864 0.0000012 0.0000738 0.0000357 0.0001507 0.0001031 0.0000208 0.0000099 0.0000858 -0.0006910 0.0003722 0.0000376 0.0000319 0.0000405 0.0000923 -0.0048640 0.0056658 0.0000510 0.0001171 0.0001872 -0.0001232 0.0000655 0.0000361 -0.0003487 0.0003440 -0.0000426 0.0002220 -0.0000798 0.0001743 0.0003873 -0.0004525 0.0000981 0.0000777 -0.0007131 0.0003475 0.0001053 -0.0001126 -0.0003791 0.0005748 0.0000014 0.0000633 0.0002720 -0.0001562 0.0001414 -0.0004857 0.0011836 -0.0015228 -0.0001002 0.0002052 0.0000061 0.0000076 -0.0000180 0.0001803 0.0019609 -0.0036599 -0.0000586 0.0003040 -0.0000234 0.0000379 -0.0000118 0.0005295 -0.0003027 -0.0020759 -0.0000161 0.0001098 -0.0003216 -0.0000747 -0.0000205 -0.0000344 -0.0000273 -0.0000894 -0.0000463 0.0000125 -0.0000286 -0.0000324 -0.0000599 0.0001746
0.0000193 -0.0000805 -0.0000162 0.0000571 -0.0000111 0.0000626 0.0001280 0.0000365 0.0001003 0.0003355 0.0002167 0.0004199 0.0000981 0.0002390 0.0000199 -0.0000776 -0.0000193 0.0000519 -0.0000644 -0.0000403 -0.0000250 -0.0000658 -0.0000451 0.0001514 0.0000570 0.0000350 0.0001650 0.0008228 -0.0001330 -0.0002850 0.0000768 -0.0005331 -0.0000832 0.0000034 -0.0000538 0.0000712 -0.0000486 -0.0002129 -0.0010073 -0.0016095 0.0000215 0.0002751 -0.0007873 -0.0024182 0.0003044 0.0002350 -0.0011217 0.0000628 -0.0008318 -0.0000535 0.0003276 0.0006926 0.0002000 0.0005354 0.0001807 0.0005766 0.0000496 0.0003473 -0.0000629 0.0001007 -0.0000276 0.0001003 -0.0001144 0.0004963 -0.0000375 0.0003304 -0.0000869 0.0004290 0.0008286 -0.0009340 -0.0005016 0.0006272 0.0104750 -0.0136266 -0.0011473 0.0088091 -0.0005045 0.0008610 0.0000647 0.0002652 -0.0024839 0.0015268 0.0007060 0.0013480 0.0000087 0.0004317 -0.0008364 0.0010332 0.0006613 -0.0003275 0.0000438 0.0005983 -0.0017013 0.0022189 -0.0027556 0.0009210 0.0002681 0.0002669 0.0012916 -0.0005618 -0.0000019 -0.0001368 0.0000433 -0.0002844 -0.0000262 0.0001877 0.0006397 0.0003507 0.0044723 0.0000384 -0.0002998 -0.0001416 0.0019606 0.0012013 -0.0002217 0.0006986 0.0000409 0.0004975 -0.0001619 0.0007824 0.0000023 0.0002159 0.0004031 0.0001751 0.0006787 0.0001257 0.0015850 0.0022943 -0.0007063 -0.0012179 -0.0003652 -0.0000830 -0.0045998 0.0011319 0.0001241 0.0005222 -0.0019642 0.0000509 0.0001324 0.0003172 -0.0001423 0.0001630 0.0001259 0.0004585 0.0002482 0.0006855 -0.0000272 -0.0000206 -0.0017242 0.0016425 0.0001296 0.0000612 -0.0001892 0.0003302 -0.0095324 0.0123136 0.0002205 0.0007014 0.0000916 -0.0000528 -0.0000066 0.0002119 -0.0013808 0.0012022 0.0000827 0.0007546 -0.0002383 0.0004711 0.0004678 -0.0004888 0.0000683 0.0004159 -0.0007573 0.0022098 0.0004214 0.0002144 0.0000206 0.0010157 0.0000017 0.0001519 0.0000667 0.0004511 0.0014505 -0.0006894 0.0017459 -0.0010135 -0.0004409 0.0003767 -0.0001072 -0.0000223 0.0000365 0.0003062 0.0027533 -0.0056147 0.0001537 0.0004508 -0.0000151 0.0003021 -0.0003541 0.0000874 -0.0000802 -0.0016434 0.0000891 -0.0001779 -0.0002848 0.0002289 -0.0000377 -0.0001514 -0.0000731 -0.0001452 -0.0000421 0.0002075 0.0000185 0.0002916 -0.0003045 -0.0019011
0.0000038 -0.0002850 -0.0000170 0.0000190 -0.0000614 0.0000003 0.0001598 0.0001413 0.0001267 0.0003456 0.0002709 0.0002850 0.0001461 0.0002619 0.0001155 0.0001264 0.0001070 0.0003392 -0.0001075 -0.0001453 -0.0000374 0.0001111 -0.0000570 0.0000489 -0.0000503 -0.0000506 0.0001863 0.0010541 -0.0001748 -0.0003785 0.0001507 -0.0011982 -0.0001853 -0.0001321 -0.0002058 -0.0004406 -0.0001028 -0.0004760 -0.0025754 -0.0042949 0.0000129 0.0003100 -0.0020364 -0.0063361 0.0004177 0.0004229 -0.0020872 0.0004880 -0.0018175 -0.0008882 0.0002879 0.0007166 0.0001509 0.0004128 0.0001593 0.0004256 -0.0000219 0.0000908 -0.0001603 -0.0004089 -0.0000622 0.0000646 0.0000617 0.0005631 0.0000529 0.0005047 -0.0000149 0.0003842 0.0009704 -0.0006968 -0.0011999 0.0006914 0.0043324 -0.0062391 0.0046808 -0.0032235 -0.0002492 0.0001172 0.0000579 0.0000104 -0.0028022 0.0034511 -0.0011221 0.0020634 0.0000382 0.0006960 -0.0003272 0.0010310 0.0007011 -0.0002630 0.0002098 0.0005777 0.0002176 0.0012965 -0.0067858 0.0043968 0.0001931 0.0004501 0.0015637 -0.0003448 0.0004620 0.0003003 -0.0000965 -0.0011446 0.0000705 -0.0000224 -0.0032013 -0.0040538 0.0029920 0.0084692 -0.0006834 -0.0008516 0.0037015 0.0033691 0.0002135 -0.0006906 0.0000219 0.0006877 -0.0000117 0.0007987 -0.0000801 0.0001686 -0.0002476 0.0000803 0.0018206 -0.0008322 0.0033446 0.0042941 -0.0019825 -0.0027909 -0.0013579 -0.0005227 -0.0055766 0.0015035 0.0001486 0.0005703 0.0002475 -0.0012650 0.0001047 0.0005994 -0.0002869 0.0000915 -0.0000484 0.0001979 0.0000974 0.0008650 -0.0002955 -0.0002409 -0.0016274 0.0018076 0.0002143 0.0001498 -0.0002051 0.0002825 0.0010802 0.0020649 0.0002066 0.0007704 -0.0002759 -0.0010749 -0.0002155 -0.0000775 -0.0000084 -0.0004595 0.0001153 0.0011551 -0.0001813 0.0005421 -0.0001497 0.0003279 0.0000840 0.0006300 -0.0020031 0.0031997 0.0002582 0.0006105 0.0000581 0.0012983 -0.0000695 0.0002555 -0.0002430 0.0011424 0.0008713 -0.0005802 0.0003624 -0.0003000 -0.0000178 0.0000208 -0.0001348 -0.0001574 0.0000054 0.0004596 0.0047491 -0.0090988 0.0003186 0.0004248 -0.0000063 0.0002365 -0.0005501 0.0004383 -0.0097158 0.0093918 0.0000428 -0.0000760 0.0001447 0.0003797 -0.0000365 -0.0002444 -0.0001673 -0.0003290 -0.0000138 0.0002088 0.0000341 0.0004102 -0.0007437 -0.0022696
0.0000483 -0.0001663 -0.0000437 0.0000652 -0.0000731 0.0000030 0.0002167 0.0003257 0.0001700 0.0004990 0.0003096 0.0003119 0.0001738 0.0003265 0.0001907 0.0004187 0.0002293 0.0007980 -0.0000585 -0.0000849 -0.0000063 0.0005611 -0.0000405 0.0001661 -0.0001008 0.0000819 0.0001458 0.0012201 -0.0001479 -0.0001748 0.0002257 -0.0012168 -0.0002467 0.0001764 -0.0003930 -0.0005226 -0.0000495 -0.0002569 -0.0024151 -0.0061237 0.0000008 0.0003914 -0.0028033 -0.0081241 0.0003800 0.0005660 -0.0024441 0.0005477 -0.0017110 -0.0016250 0.0003325 0.0008881 0.0001112 0.0002651 0.0002038 0.0005143 -0.0000033 0.0001188 -0.0001864 -0.0006076 -0.0000234 0.0000231 0.0001713 0.0003857 0.0000970 0.0004727 -0.0000027 0.0002360 0.0006453 -0.0001683 -0.0029936 0.0001422 0.0047442 -0.0096344 -0.0060690 0.0107748 0.0000992 -0.0002368 0.0001844 -0.0002690 -0.0024176 0.0039571 -0.0019242 0.0023082 0.0000656 0.0005860 -0.0006949 0.0007879 0.0011028 -0.0006381 0.0002101 0.0006739 -0.0021357 0.0038183 -0.0031057 0.0034992 0.0003918 0.0001719 0.0015114 -0.0005837 0.0001679 0.0001430 -0.0004250 -0.0018358 0.0000236 0.0000424 0.0191365 -0.0350709 -0.0099301 0.0181236 -0.0010312 -0.0020192 0.0038137 0.0034977 -0.0002649 -0.0008402 0.0000104 0.0005544 0.0000125 0.0006646 -0.0000363 -0.0001341 -0.0019003 0.0016081 -0.0000741 0.0009455 0.0035704 0.0045778 -0.0028721 -0.0035049 -0.0018946 -0.0007341 -0.0046137 0.0040011 0.0000690 0.0000967 0.0037720 -0.0049472 0.0000675 0.0006262 -0.0003165 -0.0001785 -0.0000878 -0.0003471 -0.0000587 0.0002516 -0.0003729 -0.0004311 -0.0005654 0.0001933 0.0003941 -0.0002305 -0.0001240 -0.0001327 0.0066288 -0.0060182 0.0001197 0.0005032 -0.0003478 -0.0019971 -0.0002422 -0.0004719 0.0006867 -0.0010790 0.0000968 0.0008410 0.0000056 0.0003448 -0.0004142 0.0005097 0.0000848 0.0004953 -0.0028521 0.0032020 0.0000665 0.0005271 0.0000994 0.0008814 -0.0000712 0.0001983 0.0006689 -0.0002910 0.0002598 -0.0006739 -0.0065826 0.0081929 0.0000583 -0.0000846 -0.0001665 -0.0003723 -0.0000160 0.0003653 0.0002466 -0.0061927 0.0002206 0.0001952 -0.0000359 0.0000005 -0.0008536 0.0010433 -0.0014971 -0.0016003 -0.0000808 -0.0001034 -0.0001240 -0.0004660 0.0000171 -0.0003666 -0.0002620 -0.0005116 -0.0000132 0.0000677 -0.0000001 0.0002196 -0.0008588 -0.0017254
0.0000822 -0.0001698 -0.0000132 0.0000172 -0.0000602 -0.0000383 0.0002294 0.0004461 0.0001758 0.0004687 0.0002765 0.0001369 0.0001574 0.0002420 0.0002571 0.0006073 0.0002579 0.0008531 0.0000215 0.0000211 0.0001182 0.0006534 -0.0000225 0.0002861 -0.0000121 0.0001231 0.0000712 0.0010251 -0.0000862 0.0000221 0.0002452 -0.0009955 -0.0001640 0.0003676 -0.0003389 -0.0005423 0.0000379 0.0000555 -0.0019272 -0.0059536 0.0000153 0.0003824 -0.0024515 -0.0071748 0.0002709 0.0005369 -0.0022161 0.0003585 -0.0015530 -0.0013607 0.0002724 0.0008316 0.0000731 0.0002193 0.0001961 0.0006728 -0.0000012 0.0002258 -0.0001454 -0.0004894 0.0000264 0.0001328 0.0000489 0.0003749 0.0001250 0.0004204 -0.0000221 0.0001630 0.0006904 -0.0000684 -0.0003427 -0.0023150 0.0055399 -0.0050693 -0.0185581 0.0260303 0.0004717 -0.0002231 0.0001585 -0.0000012 0.0010149 -0.0003118 0.0015023 -0.0004044 0.0000848 0.0004868 -0.0001004 0.0005972 0.0005210 0.0001410 0.0001333 0.0007953 -0.0040143 0.0041488 0.0020318 -0.0004799 0.0003380 0.0000077 0.0003650 0.0001013 0.0002057 0.0001359 -0.0008061 -0.0024732 0.0001202 0.0003183 0.0148875 -0.0176317 0.0025404 -0.0068224 -0.0008064 -0.0023903 0.0024293 0.0026552 -0.0001280 -0.0007218 0.0000121 0.0004887 0.0001376 0.0006752 0.0000511 0.0000382 -0.0010849 0.0014643 -0.0017196 0.0026016 0.0020041 0.0034462 -0.0025710 -0.0031195 -0.0016400 -0.0004583 0.0022146 0.0014209 0.0000353 -0.0002326 0.0037558 -0.0048441 0.0000824 0.0003801 -0.0001797 -0.0001291 -0.0000068 -0.0005216 -0.0002778 -0.0000397 -0.0002825 -0.0003265 0.0004161 -0.0005815 -0.0001465 0.0001617 -0.0000579 -0.0001936 -0.0036484 0.0029104 0.0001136 0.0003124 -0.0004957 -0.0023941 -0.0002894 -0.0005566 -0.0001494 0.0006276 -0.0000384 0.0003566 0.0001027 0.0002366 -0.0002729 0.0006847 0.0000071 0.0003875 0.0011648 -0.0002931 0.0001261 0.0004357 -0.0001288 0.0005486 -0.0000201 0.0000931 0.0010273 -0.0014795 -0.0010512 0.0010444 -0.0034639 0.0065353 -0.0002000 0.0003336 -0.0001461 -0.0004565 0.0000598 0.0001907 -0.0016140 -0.0024880 -0.0000037 0.0001712 -0.0000859 -0.0002129 -0.0007955 0.0009110 0.0084003 -0.0152955 -0.0000494 -0.0001834 -0.0018103 0.0000963 0.0000898 -0.0002707 -0.0002915 -0.0006836 0.0000477 -0.0001930 -0.0000279 -0.0001964 -0.0008285 -0.0020215
0.0001189 -0.0002293 -0.0000589 -0.0003905 0.0000000 -0.0002027 0.0002468 0.0004911 0.0001587 0.0002141 0.0003172 -0.0001751 0.0001066 -0.0001724 0.0003076 0.0004919 0.0001993 0.0005031 -0.0000346 -0.0001534 0.0001555 0.0002491 0.0000324 -0.0000173 0.0001319 0.0000973 0.0001410 0.0002142 0.0000534 0.0002005 0.0001820 -0.0000680 -0.0000019 0.0004627 -0.0001711 -0.0005031 0.0002217 0.0004505 -0.0018214 -0.0055925 0.0000121 0.0001527 -0.0022018 -0.0063905 0.0001010 0.0003214 -0.0016157 -0.0000169 -0.0013030 -0.0016965 0.0002592 0.0006777 0.0001584 0.0004475 0.0003312 0.0008028 0.0000592 0.0003307 -0.0000326 -0.0003372 0.0001384 0.0001135 0.0005307 -0.0003021 0.0000300 -0.0000327 0.0001463 0.0001376 0.0008364 -0.0008894 0.0011842 -0.0024102 0.0018753 -0.0010838 -0.0189023 0.0227384 0.0003459 0.0001522 0.0000621 -0.0000854 0.0049818 -0.0057426 0.0021351 -0.0003208 0.0001426 0.0004300 -0.0003227 -0.0020397 0.0009715 0.0001709 0.0000983 0.0007535 0.0027688 -0.0013896 0.0022740 -0.0028666 0.0003171 0.0001263 -0.0002686 0.0009176 0.0000281 -0.0005739 -0.0023107 -0.0041541 -0.0000059 0.0004913 0.0058948 -0.0082794 0.0070598 -0.0036711 -0.0008980 -0.0025628 0.0015904 0.0023826 -0.0005264 -0.0000638 0.0000870 0.0006076 0.0001476 0.0005883 0.0000227 0.0001943 -0.0012772 0.0011989 0.0004096 0.0002107 0.0009780 0.0026622 -0.0021891 -0.0025893 -0.0013474 0.0000775 0.0065776 -0.0063474 0.0000530 -0.0003269 0.0018126 -0.0026130 -0.0000391 0.0009125 -0.0001465 0.0000840 0.0000482 -0.0003153 -0.0003949 0.0005468 -0.0004180 -0.0001236 0.0004826 0.0000395 -0.0001120 0.0002428 -0.0001981 -0.0004660 -0.0078352 0.0105038 0.0001424 0.0004642 0.0001328 -0.0006592 -0.0001866 -0.0001871 -0.0004197 0.0016619 -0.0002259 0.0002709 0.0000418 0.0004159 0.0003395 0.0009857 -0.0000165 0.0005725 0.0039330 -0.0027054 0.0001384 0.0011762 0.0002594 0.0007711 -0.0000421 0.0001875 0.0002081 -0.0011425 -0.0015261 0.0023728 -0.0006398 0.0003457 -0.0001078 0.0007990 0.0001045 0.0001202 0.0001735 0.0004122 -0.0029455 0.0023339 0.0000202 0.0003236 -0.0000680 0.0001653 0.0005577 0.0002560 0.0062169 -0.0174160 0.0000395 0.0003003 0.0000874 -0.0008772 0.0002221 0.0003200 -0.0002499 -0.0004814 0.0000460 0.0000141 -0.0000588 -0.0003357 -0.0008351 -0.0039210
0.0001574 -0.0002964 -0.0000907 -0.0004793 0.0000793 -0.0001676 0.0002451 0.0002882 0.0000770 -0.0002183 0.0003357 -0.0003722 -0.0000233 -0.0005471 0.0003144 0.0003197 0.0002323 0.0004852 -0.0000396 -0.0002236 0.0000610 -0.0000886 0.0000511 -0.0003000 0.0001700 0.0001889 0.0002797 -0.0009741 0.0003166 0.0005972 -0.0000740 0.0017750 0.0001069 0.0007338 -0.0001702 -0.0006255 0.0003312 0.0008106 -0.0013252 -0.0033360 -0.0000017 -0.0001334 -0.0013682 -0.0045749 0.0000553 -0.0001759 -0.0005001 -0.0000563 -0.0008869 -0.0008101 -0.0000290 -0.0002676 -0.0001010 -0.0002816 0.0001222 -0.0001436 -0.0001074 -0.0001834 0.0000894 -0.0004191 0.0000775 -0.0001853 0.0006565 -0.0007658 0.0001370 -0.0003290 0.0003790 0.0001688 -0.0001144 -0.0001161 0.0008008 -0.0035249 0.0040858 -0.0032253 -0.0110163 0.0146881 0.0002920 -0.0004472 0.0000229 -0.0010047 0.0020514 -0.0014257 0.0029817 -0.0013523 0.0001773 -0.0000855 -0.0007512 -0.0029407 0.0010067 -0.0003676 0.0000746 0.0000664 0.0055813 -0.0049838 0.0014615 -0.0009597 0.0003316 0.0001050 -0.0009192 0.0017100 -0.0002175 -0.0008388 -0.0022403 -0.0039917 -0.0001426 0.0000594 0.0084374 -0.0173690 -0.0002502 0.0126244 -0.0007018 -0.0020927 0.0005887 0.0019143 -0.0013592 0.0001630 0.0001331 0.0002567 0.0000344 -0.0002123 0.0001112 -0.0000391 -0.0008917 0.0011812 0.0016482 -0.0016531 -0.0004151 0.0008999 -0.0013535 -0.0019093 -0.0008027 -0.0000382 0.0037317 -0.0028788 0.0000798 -0.0006295 -0.0002601 0.0010944 0.0000347 0.0007241 -0.0000584 0.0000330 0.0000693 -0.0002016 -0.0000694 0.0003416 -0.0003163 -0.0001958 0.0005582 -0.0002933 0.0002546 -0.0003150 -0.0002902 -0.0002420 -0.0022845 0.0091795 0.0001526 0.0003736 -0.0001344 0.0012155 -0.0000933 -0.0001080 -0.0000545 0.0010060 -0.0000892 -0.0001052 0.0000884 0.0002228 0.0000998 0.0010613 -0.0000473 0.0002893 0.0012692 -0.0008858 -0.0000711 0.0012922 0.0004565 0.0007556 -0.0000439 0.0000909 -0.0005747 0.0003382 0.0002850 0.0001937 0.0000170 -0.0014367 0.0001022 0.0003245 0.0001590 0.0003558 0.0001541 0.0001060 -0.0080397 0.0096776 -0.0000795 0.0001082 -0.0000785 0.0001113 0.0006514 0.0006253 0.0073505 -0.0196964 0.0000991 0.0006207 0.0006006 -0.0005999 0.0001591 0.0005924 -0.0002826 -0.0000708 0.0000642 0.0000898 -0.0000847 -0.0005219 -0.0005826 -0.0046271
0.0002904 -0.0001878 -0.0000486 -0.0003211 0.0000743 -0.0002839 0.0002049 0.0000838 0.0000076 -0.0005789 0.0004434 -0.0003958 -0.0001266 -0.0007883 0.0003143 0.0002129 0.0003075 0.0006140 -0.0000123 -0.0000522 0.0000111 -0.0002295 0.0000112 -0.0003643 0.0000259 -0.0000285 0.0001630 -0.0017312 0.0004638 0.0009154 -0.0001538 0.0019563 0.0001676 0.0006800 -0.0002313 -0.0010962 0.0002889 0.0007376 -0.0005421 -0.0005111 -0.0000333 -0.0003038 0.0000054 -0.0012808 -0.0004963 -0.0000499 0.0005657 0.0001925 0.0002250 0.0003735 -0.0004923 -0.0012913 -0.0006611 -0.0016005 -0.0004082 -0.0012348 -0.0004756 -0.0008907 0.0000595 -0.0003810 -0.0001471 -0.0001707 0.0002359 -0.0004461 0.0002649 -0.0001093 0.0003988 0.0001431 -0.0001882 0.0008164 0.0010032 -0.0071707 0.0109588 -0.0191859 -0.0011303 0.0022371 0.0002059 -0.0011855 0.0001263 -0.0012398 -0.0075114 0.0073611 0.0018130 -0.0004407 0.0001005 -0.0003434 0.0012739 -0.0003434 0.0004754 -0.0002511 0.0000405 -0.0005260 0.0040252 -0.0026136 -0.0020944 0.0059537 0.0001889 0.0001754 -0.0005933 0.0014311 0.0003089 0.0002424 -0.0007669 -0.0013876 0.0001300 -0.0004781 0.0113972 -0.0194622 -0.0055034 -0.0010735 0.0002387 -0.0014120 -0.0007076 0.0012693 -0.0010299 -0.0004537 0.0000749 -0.0003138 -0.0000309 -0.0008397 0.0001446 -0.0003686 -0.0002928 0.0011357 -0.0001046 -0.0007684 -0.0017227 -0.0008884 -0.0005467 -0.0012883 -0.0002621 -0.0004266 -0.0008546 -0.0006541 -0.0000032 -0.0011386 0.0012846 -0.0005770 0.0000800 -0.0000640 0.0001173 -0.0002155 0.0001616 -0.0002632 -0.0000241 -0.0005675 -0.0001908 -0.0003834 0.0020579 -0.0021351 0.0002112 -0.0004999 0.0001360 -0.0000232 0.0041746 -0.0022226 0.0001033 0.0000179 -0.0004019 0.0014429 -0.0001173 -0.0003091 0.0003165 0.0000612 0.0000006 -0.0004830 0.0000827 -0.0000316 -0.0000515 0.0004957 -0.0000855 -0.0002624 0.0005690 0.0005660 0.0000916 0.0003814 0.0001486 0.0001799 -0.0000113 -0.0001089 -0.0002635 -0.0001048 0.0021656 -0.0018338 0.0045872 -0.0084291 -0.0000442 -0.0000422 0.0001180 0.0001381 -0.0000813 -0.0001821 -0.0032067 0.0025170 0.0001378 -0.0005677 -0.0001652 -0.0001952 0.0000257 0.0008015 0.0054894 -0.0071317 0.0001837 0.0005397 0.0004596 -0.0000505 -0.0000338 0.0005361 -0.0000667 0.0000117 0.0000401 -0.0000215 -0.0000967 -0.0007632 -0.0001315 -0.0038021
0.0004071 0.0000594 -0.0000327 -0.0004608 0.0000358 -0.0005711 0.0001888 0.0000849 0.0000001 -0.0006806 0.0005903 -0.0002345 -0.0001608 -0.0010024 0.0002944 -0.0001062 0.0002916 0.0004828 0.0000066 -0.0000212 -0.0000640 -0.0002057 0.0000220 -0.0004001 -0.0000317 -0.0002823 0.0000214 -0.0019321 0.0004691 0.0009756 -0.0000240 0.0013905 0.0002873 0.0004530 -0.0002274 -0.0012344 0.0002798 0.0006067 0.0003114 0.0007562 -0.0000357 -0.0003842 0.0008027 0.0010012 -0.0006362 -0.0002417 0.0012305 0.0003002 0.0011591 0.0010184 -0.0005461 -0.0012689 -0.0007856 -0.0017629 -0.0004921 -0.0013101 -0.0005681 -0.0009914 0.0000536 -0.0002935 -0.0001885 -0.0000917 0.0003856 -0.0006802 0.0002550 -0.0002761 0.0003540 -0.0000861 0.0006715 0.0002100 -0.0013859 -0.0057893 0.0117974 -0.0277359 -0.0012251 0.0052943 0.0000953 -0.0009548 0.0001557 -0.0009392 -0.0033917 0.0043718 0.0011432 0.0001247 0.0000875 -0.0002619 0.0020035 0.0007746 0.0005781 -0.0004638 0.0000212 -0.0005619 -0.0012740 0.0018123 -0.0044089 0.0061659 0.0003060 0.0000664 0.0003020 -0.0001880 0.0005350 0.0012237 -0.0002626 -0.0003875 0.0002188 -0.0005501 0.0063707 -0.0015804 0.0089750 -0.0232716 0.0005119 -0.0007919 -0.0008110 0.0011475 -0.0002219 -0.0006168 0.0000448 -0.0004096 -0.0001905 -0.0005833 0.0000674 -0.0004893 -0.0001452 -0.0001767 -0.0012720 0.0000010 -0.0014854 -0.0007481 -0.0003789 -0.0008929 -0.0002053 -0.0003229 0.0003076 -0.0013218 -0.0000793 -0.0010305 0.0033668 -0.0028763 -0.0000578 0.0001320 0.0000860 -0.0001234 0.0001550 0.0001575 -0.0002044 -0.0000894 -0.0002571 -0.0002527 0.0011922 -0.0021220 -0.0000141 0.0000347 0.0003807 -0.0000712 0.0040434 -0.0022422 0.0000975 0.0002319 0.0005444 0.0012345 -0.0000328 -0.0001912 0.0006802 0.0007107 -0.0001339 -0.0002898 0.0000809 -0.0000044 0.0000697 0.0005830 -0.0001666 -0.0000798 -0.0002933 0.0000254 0.0006635 -0.0000903 0.0000249 0.0001070 0.0000357 -0.0001389 -0.0004373 -0.0002452 0.0012619 -0.0003099 -0.0002853 0.0004903 -0.0000721 -0.0000543 0.0001380 0.0002693 0.0000183 -0.0001016 -0.0052480 0.0027487 0.0005106 -0.0006685 -0.0000677 -0.0000478 0.0003543 -0.0001881 0.0076428 -0.0153589 0.0002440 0.0003644 0.0011546 -0.0003912 -0.0000135 0.0005965 0.0001617 -0.0000501 0.0000780 -0.0000140 -0.0000816 -0.0006067 -0.0000459 -0.0036100
0.0003949 -0.0000631 -0.0000380 -0.0006195 0.0000236 -0.0007027 0.0002037 0.0000703 -0.0000038 -0.0007834 0.0005866 -0.0003436 -0.0001509 -0.0011001 0.0002938 -0.0003031 0.0003131 0.0002683 0.0000602 -0.0002245 -0.0001441 -0.0002289 0.0000386 -0.0006694 0.0000380 -0.0005473 0.0000539 -0.0019295 0.0004674 0.0007779 -0.0000612 0.0013970 0.0003093 0.0002033 -0.0002340 -0.0014537 0.0002227 0.0002778 0.0016740 -0.0003188 -0.0000252 -0.0006010 0.0007983 0.0012126 -0.0001313 -0.0009490 0.0012773 0.0002830 0.0011356 0.0012348 -0.0005075 -0.0012187 -0.0007457 -0.0016176 -0.0004461 -0.0014169 -0.0005253 -0.0009401 0.0000772 -0.0004975 -0.0001773 -0.0002823 0.0002286 -0.0007109 0.0002128 -0.0004071 0.0003893 -0.0003075 0.0006665 0.0002574 -0.0020188 -0.0055596 0.0087655 -0.0325220 0.0015525 0.0009508 0.0003148 -0.0009670 0.0001446 -0.0008277 0.0016044 0.0001188 0.0010905 -0.0003420 0.0000383 -0.0003395 0.0009543 0.0001054 0.0004601 -0.0003386 0.0000489 -0.0007110 -0.0048441 0.0037593 -0.0073300 0.0047070 0.0003609 -0.0000627 0.0003161 -0.0009636 0.0002723 0.0006343 -0.0003000 -0.0002834 0.0001415 -0.0005155 0.0046345 0.0033142 0.0108093 -0.0195817 0.0002731 -0.0001665 -0.0003733 0.0008640 0.0001135 -0.0010962 0.0000712 -0.0004658 -0.0002904 -0.0005032 -0.0000375 -0.0003638 -0.0005492 -0.0006962 -0.0003607 -0.0004679 -0.0015105 -0.0003834 -0.0003645 -0.0009744 -0.0003061 -0.0003128 0.0015450 -0.0050506 0.0000027 -0.0009684 0.0017028 0.0000589 0.0000579 0.0000953 0.0000376 -0.0000212 0.0002008 0.0003463 -0.0000517 -0.0000399 -0.0002091 -0.0001923 -0.0009044 -0.0003627 -0.0000936 0.0002271 0.0002608 0.0000703 -0.0116109 0.0151573 0.0001268 0.0003450 0.0009548 0.0005694 -0.0000181 -0.0001112 0.0007441 0.0003818 -0.0001791 -0.0004291 0.0000685 0.0000522 -0.0000984 0.0010445 -0.0001888 0.0000064 0.0033128 -0.0047309 0.0004946 0.0000790 0.0002761 -0.0001604 0.0000710 -0.0001380 0.0005846 -0.0009125 -0.0016555 0.0015841 -0.0065738 0.0072948 -0.0002710 0.0002316 0.0001419 0.0003633 0.0001667 0.0000175 -0.0070050 0.0067652 0.0002508 -0.0003306 0.0000131 -0.0000098 0.0000258 -0.0002356 0.0048799 -0.0174734 0.0000971 0.0004628 0.0003666 0.0012182 0.0000500 0.0006039 0.0000877 0.0001300 0.0001242 0.0000843 -0.0000734 -0.0003734 -0.0000046 -0.0032092
0.0003600 0.0000295 -0.0000323 -0.0005403 0.0000291 -0.0005692 0.0001937 0.0001100 0.0000113 -0.0007320 0.0005391 -0.0003321 -0.0001383 -0.0010464 0.0002759 -0.0002720 0.0002760 0.0002849 0.0000287 -0.0000836 -0.0000468 -0.0002961 0.0000007 -0.0005369 0.0000246 -0.0004532 0.0000530 -0.0017893 0.0004608 0.0007335 -0.0001063 0.0013874 0.0001635 0.0002893 -0.0001100 -0.0015244 0.0001795 0.0002108 0.0025928 -0.0006399 -0.0000149 -0.0005431 0.0008263 0.0013712 0.0000779 -0.0011221 0.0012723 0.0002861 0.0011673 0.0013690 -0.0004834 -0.0011918 -0.0006998 -0.0015244 -0.0004103 -0.0013997 -0.0004853 -0.0008620 0.0000839 -0.0005572 -0.0001845 -0.0003859 -0.0000302 -0.0005740 0.0001807 -0.0003044 0.0003075 -0.0004039 0.0007978 0.0003870 0.0002915 -0.0070540 0.0040456 -0.0211608 0.0005584 -0.0029591 0.0000145 -0.0007978 0.0003062 -0.0009606 0.0030776 -0.0028513 0.0016794 -0.0006132 0.0000119 -0.0005598 0.0005830 -0.0007199 0.0010153 -0.0009139 0.0000641 -0.0009163 -0.0040422 0.0052163 -0.0066526 0.0053422 0.0001657 0.0000237 -0.0002286 -0.0006085 0.0000524 0.0002061 -0.0004821 -0.0001860 0.0000917 -0.0006035 0.0013918 -0.0004912 0.0143625 -0.0327300 0.0004089 -0.0001353 -0.0005220 0.0007085 -0.0003693 -0.0013231 0.0000882 -0.0006690 -0.0002876 -0.0008058 -0.0000127 -0.0005345 -0.0001145 -0.0009050 0.0002180 -0.0024097 -0.0014241 -0.0005057 -0.0003104 -0.0013343 -0.0001905 -0.0004117 -0.0084512 0.0032841 0.0000413 -0.0010692 0.0020256 -0.0006880 0.0002444 -0.0002981 0.0000474 -0.0001703 0.0002755 0.0002691 -0.0001481 -0.0002328 0.0000679 -0.0003995 -0.0006779 0.0001610 -0.0000403 -0.0001465 0.0002147 0.0000880 -0.0270124 0.0255669 0.0001747 0.0002967 0.0012173 0.0001228 -0.0000881 -0.0001014 0.0002237 -0.0000373 -0.0000448 -0.0008015 -0.0000054 0.0000730 -0.0006430 0.0012576 -0.0001112 -0.0001596 0.0054499 -0.0074392 0.0003835 0.0001648 0.0001554 -0.0000278 0.0000641 -0.0001551 0.0002952 -0.0009980 -0.0018453 0.0011173 -0.0005874 -0.0011670 -0.0002171 0.0001907 0.0001138 0.0003080 0.0001944 -0.0001212 0.0018821 -0.0043549 -0.0001889 -0.0002675 0.0000016 -0.0000981 -0.0004211 -0.0000577 -0.0041703 -0.0030253 0.0000498 0.0004039 0.0013649 -0.0004772 0.0000044 0.0006101 0.0000366 0.0001137 0.0001648 0.0001087 -0.0000319 -0.0002907 0.0001330 -0.0029103
0.0003477 0.0000217 -0.0000247 -0.0005029 0.0000138 -0.0005136 0.0001747 0.0000961 0.0000295 -0.0007284 0.0004949 -0.0003644 -0.0001236 -0.0009994 0.0002625 -0.0002722 0.0001833 0.0003310 -0.0000039 -0.0000219 -0.0000043 -0.0003088 -0.0000287 -0.0004305 0.0000258 -0.0004184 0.0000585 -0.0016900 0.0003915 0.0007069 -0.0001384 0.0013655 0.0001717 0.0001281 -0.0001156 -0.0014663 0.0001362 0.0001254 0.0016297 0.0006957 -0.0000346 -0.0004543 0.0008877 0.0014327 -0.0002141 -0.0007672 0.0012455 0.0003422 0.0012320 0.0013056 -0.0004858 -0.0011108 -0.0006795 -0.0014512 -0.0003875 -0.0012034 -0.0005082 -0.0006823 0.0000688 -0.0003947 -0.0002051 -0.0002857 -0.0002052 -0.0002462 0.0001361 -0.0001886 0.0001644 -0.0002973 0.0000669 0.0009252 0.0002897 -0.0063658 -0.0098186 0.0154948 0.0031450 0.0106116 -0.0004010 -0.0002006 0.0002736 -0.0007821 0.0044311 -0.0036494 0.0029213 -0.0024482 0.0000214 -0.0004809 -0.0001945 -0.0001171 0.0008398 -0.0006219 -0.0000799 -0.0006610 0.0009728 0.0017292 -0.0054748 0.0046757 0.0002118 0.0000952 -0.0009964 0.0000833 -0.0001010 0.0001930 -0.0003999 -0.0002312 0.0000583 -0.0005424 -0.0017790 0.0045858 0.0056472 -0.0139004 0.0009107 -0.0004241 -0.0006212 0.0007667 -0.0000631 -0.0012245 0.0000705 -0.0006046 -0.0003362 -0.0007046 0.0000114 -0.0004530 -0.0004734 0.0007350 0.0026555 -0.0047124 -0.0011688 -0.0007857 -0.0004143 -0.0011845 -0.0001384 -0.0002780 -0.0037224 0.0034815 0.0000758 -0.0010753 0.0013316 -0.0016534 0.0002541 -0.0002273 0.0000854 -0.0001767 0.0002924 0.0002475 -0.0001554 -0.0002530 0.0000269 -0.0001936 -0.0007433 0.0002751 -0.0001564 -0.0002025 0.0003149 0.0001292 -0.0156687 0.0096081 0.0001503 0.0003274 0.0006858 0.0006467 -0.0000202 -0.0001436 0.0013733 -0.0014248 -0.0000455 -0.0008922 -0.0000160 0.0000525 -0.0007758 0.0009943 -0.0000911 -0.0002125 0.0035434 -0.0056848 0.0005327 -0.0001883 -0.0004551 0.0002565 0.0000308 -0.0001685 0.0000223 -0.0006076 0.0000072 -0.0001056 -0.0016830 0.0008387 -0.0003099 0.0003846 0.0001075 0.0001774 0.0001179 -0.0002755 0.0021227 -0.0045524 -0.0002603 -0.0003468 0.0000300 -0.0002314 0.0001141 -0.0007603 -0.0112608 0.0116167 0.0000655 0.0001014 0.0015360 -0.0022658 -0.0000471 0.0005781 0.0000663 -0.0000219 0.0001602 0.0000155 0.0000058 -0.0003589 0.0001255 -0.0027914
0.0003485 -0.0001730 -0.0000302 -0.0006279 0.0000051 -0.0006665 0.0001635 0.0000094 0.0000357 -0.0008299 0.0004640 -0.0004768 -0.0001421 -0.0010247 0.0002469 -0.0003760 0.0001606 0.0001844 0.0000130 -0.0001947 -0.0000362 -0.0003729 -0.0000081 -0.0005977 0.0000626 -0.0005947 0.0000754 -0.0017624 0.0003431 0.0005563 -0.0001609 0.0012797 0.0002259 -0.0002053 -0.0002957 -0.0013237 0.0000863 -0.0000963 0.0004056 0.0017381 -0.0000363 -0.0005837 0.0008515 0.0012908 -0.0003701 -0.0007172 0.0011963 0.0002532 0.0007917 0.0012317 -0.0004468 -0.0010877 -0.0006689 -0.0014270 -0.0003625 -0.0011427 -0.0005247 -0.0006108 0.0000673 -0.0003672 -0.0002081 -0.0002933 0.0000244 -0.0003604 0.0000540 -0.0001106 0.0001260 -0.0003206 -0.0007714 0.0012995 -0.0007627 -0.0047532 -0.0173015 0.0293842 0.0016574 0.0092646 -0.0000421 -0.0004405 0.0002205 -0.0006611 -0.0022615 0.0039593 0.0028352 -0.0026988 0.0000052 -0.0004533 -0.0009928 0.0005507 0.0007261 0.0000010 -0.0000823 -0.0006477 0.0018911 -0.0008908 -0.0044112 0.0042448 0.0000268 0.0002701 -0.0005113 -0.0001415 -0.0000832 0.0002445 -0.0001011 -0.0005257 0.0000230 -0.0005401 -0.0008426 0.0091885 -0.0010229 -0.0037540 0.0004631 0.0000090 -0.0003980 0.0006097 0.0011672 -0.0015926 0.0000461 -0.0004832 -0.0002416 -0.0006058 -0.0001049 -0.0002765 -0.0004579 0.0004658 0.0022742 -0.0030768 -0.0009928 -0.0007031 -0.0004278 -0.0010408 -0.0001454 -0.0000622 0.0085540 -0.0048869 0.0001976 -0.0010349 0.0006909 -0.0002445 0.0003789 -0.0002429 0.0001279 -0.0001038 0.0002081 0.0004109 -0.0000066 -0.0002330 -0.0002257 0.0001300 -0.0014701 0.0011174 -0.0003234 0.0001793 0.0001803 0.0003432 0.0001758 -0.0017773 0.0001929 0.0003234 0.0000432 0.0008681 0.0000431 -0.0001299 0.0015857 -0.0014032 -0.0001244 -0.0006222 -0.0000504 0.0000885 -0.0003320 0.0005270 -0.0001606 0.0000200 0.0046994 -0.0034113 0.0002244 -0.0002640 -0.0003673 0.0003355 -0.0000438 -0.0000507 0.0001414 -0.0007393 0.0001589 0.0003480 -0.0057838 0.0056551 -0.0002724 0.0004605 0.0001223 0.0001661 0.0001313 -0.0000648 0.0031634 -0.0027903 0.0000722 -0.0003957 0.0000275 -0.0001747 0.0005677 -0.0007863 -0.0024863 0.0092336 0.0000137 0.0000914 0.0004158 -0.0003728 -0.0000581 0.0006242 0.0001237 0.0000427 0.0001282 0.0001277 -0.0000027 -0.0001843 -0.0000046 -0.0024162
0.0003126 0.0000212 -0.0000121 -0.0004775 0.0000035 -0.0004641 0.0001559 0.0000585 0.0000405 -0.0007541 0.0004409 -0.0004242 -0.0001630 -0.0009260 0.0002279 -0.0003161 0.0000923 0.0002107 0.0000417 -0.0002106 -0.0000318 -0.0003396 -0.0000230 -0.0005352 -0.0000492 -0.0003891 0.0000523 -0.0017543 0.0003624 0.0004700 -0.0001496 0.0010844 0.0001449 -0.0001577 -0.0003361 -0.0012635 0.0000550 -0.0001354 0.0009664 0.0007031 -0.0000285 -0.0006254 0.0007113 0.0012228 -0.0005812 -0.0006038 0.0011156 0.0001806 0.0007967 0.0011262 -0.0004064 -0.0010864 -0.0006466 -0.0014162 -0.0003697 -0.0011957 -0.0005206 -0.0006653 0.0000467 -0.0004647 -0.0002095 -0.0004118 -0.0000378 -0.0003568 -0.0000379 0.0000035 0.0001214 -0.0003552 0.0000399 0.0004468 -0.0021202 -0.0038832 -0.0085895 0.0177683 0.0034322 -0.0022880 -0.0002047 -0.0005999 0.0002106 -0.0007359 -0.0018563 0.0043400 0.0020126 -0.0006359 -0.0000004 -0.0006736 -0.0005708 0.0001473 0.0007336 -0.0000837 -0.0000831 -0.0007679 -0.0046498 0.0048225 -0.0072406 0.0072158 0.0000100 0.0002373 0.0010673 -0.0010457 0.0000870 0.0001279 -0.0000286 -0.0006518 0.0000726 -0.0006829 -0.0011853 0.0072855 -0.0021119 -0.0051306 -0.0000673 0.0004058 -0.0004420 0.0005263 -0.0000483 -0.0006056 0.0000124 -0.0005522 -0.0000122 -0.0008817 -0.0001203 -0.0003325 -0.0007471 -0.0002271 -0.0010224 0.0005566 -0.0009962 -0.0007175 -0.0003978 -0.0011346 -0.0000613 -0.0002297 0.0061412 -0.0001417 0.0001258 -0.0009010 0.0031471 -0.0007512 0.0002171 -0.0000714 0.0001414 -0.0001711 0.0001490 0.0003732 -0.0001198 -0.0000763 -0.0002585 0.0001838 -0.0008371 0.0009670 -0.0003037 0.0004126 0.0001367 0.0004669 -0.0004711 -0.0065602 0.0001771 0.0002699 -0.0001994 0.0012576 -0.0000432 -0.0000561 0.0005126 0.0006493 -0.0000479 -0.0005950 -0.0000875 0.0001101 -0.0000362 0.0007375 -0.0001730 0.0000563 0.0000700 -0.0014834 -0.0000622 -0.0000968 0.0000572 -0.0001757 -0.0000010 -0.0000678 -0.0002892 -0.0005256 0.0023464 -0.0013800 0.0021247 -0.0001000 0.0004320 -0.0002420 0.0000703 0.0002002 0.0002515 -0.0001657 0.0046810 -0.0066663 -0.0000968 -0.0002875 0.0000586 -0.0001839 0.0000688 -0.0000721 -0.0019006 0.0072703 0.0000002 0.0000577 -0.0005138 0.0019522 -0.0000834 0.0005995 0.0002386 0.0000116 0.0000458 0.0002456 -0.0000309 -0.0001147 0.0000978 -0.0023358
0.0002656 0.0001628 -0.0000016 -0.0004153 -0.0000059 -0.0003577 0.0001643 0.0001038 0.0000380 -0.0007138 0.0004081 -0.0004307 -0.0001723 -0.0008713 0.0002289 -0.0002342 0.0000864 0.0001815 0.0000652 -0.0001525 0.0000439 -0.0003768 -0.0000220 -0.0003856 -0.0000776 -0.0001937 -0.0000077 -0.0017249 0.0003523 0.0004908 -0.0000801 0.0008203 0.0000604 -0.0001201 -0.0001093 -0.0014940 0.0000327 -0.0001012 0.0017741 -0.0003893 -0.0000164 -0.0005244 0.0005510 0.0012901 -0.0003493 -0.0006756 0.0010377 0.0001800 0.0008274 0.0011038 -0.0003979 -0.0010110 -0.0006368 -0.0013445 -0.0003694 -0.0009371 -0.0005340 -0.0005533 0.0000049 -0.0002587 -0.0002173 -0.0002432 0.0000539 -0.0004095 -0.0000815 0.0001692 0.0000448 -0.0000304 0.0003941 -0.0001808 0.0011656 -0.0058599 0.0004717 -0.0057343 0.0110387 -0.0036519 0.0001431 -0.0007493 0.0002938 -0.0006646 0.0037863 -0.0016661 0.0005041 0.0002319 -0.0000361 -0.0005014 -0.0005264 0.0001867 0.0011117 -0.0007316 -0.0001371 -0.0005468 -0.0021209 0.0026797 -0.0015740 0.0026376 0.0002920 0.0002045 0.0013867 -0.0010070 -0.0001592 0.0002052 -0.0003477 -0.0004266 0.0000820 -0.0005552 -0.0034723 0.0121243 -0.0189713 0.0125448 0.0002012 0.0002493 -0.0007706 0.0007720 -0.0003755 -0.0001569 0.0000136 -0.0005279 -0.0001697 -0.0007715 -0.0000697 -0.0003440 -0.0009856 0.0005110 -0.0000129 -0.0005687 -0.0011733 -0.0003473 -0.0003604 -0.0011047 -0.0000477 -0.0002721 -0.0006400 0.0022691 0.0000380 -0.0008560 0.0060108 -0.0042952 0.0002568 -0.0000170 0.0001432 -0.0002473 0.0002988 0.0002167 -0.0001348 -0.0001919 -0.0001798 0.0000354 -0.0011140 0.0008788 -0.0001321 0.0000412 0.0000647 0.0005207 -0.0015229 -0.0094249 0.0001304 0.0002333 0.0001694 0.0011142 -0.0000902 -0.0000608 0.0001783 0.0010857 0.0000075 -0.0007689 -0.0000455 0.0000388 -0.0002091 0.0006788 -0.0001142 -0.0001675 -0.0079618 0.0032120 -0.0001687 0.0000541 0.0001780 -0.0004544 0.0000695 -0.0001683 0.0004470 -0.0012336 0.0027205 -0.0028315 0.0064132 -0.0034430 0.0005680 -0.0003486 0.0000527 0.0001345 0.0001152 -0.0002845 -0.0029468 -0.0058206 -0.0002210 -0.0005034 0.0000048 -0.0001990 -0.0008615 0.0009325 -0.0046749 0.0021742 0.0000551 -0.0001755 -0.0009900 0.0020100 -0.0000473 0.0004175 0.0002244 -0.0001503 -0.0000251 0.0002136 -0.0000513 -0.0002239 0.0000517 -0.0024498
0.0002487 -0.0000408 -0.0000224 -0.0005843 -0.0000131 -0.0005743 0.0001859 0.0001356 0.0000300 -0.0007991 0.0003569 -0.0005384 -0.0001647 -0.0009826 0.0002465 -0.0002046 0.0001093 -0.0000228 0.0000035 -0.0001496 0.0000348 -0.0004851 0.0000015 -0.0004525 -0.0000718 -0.0002749 -0.0000496 -0.0017875 0.0003399 0.0004383 -0.0000481 0.0005747 0.0001223 -0.0002860 -0.0000985 -0.0014565 0.0000166 -0.0001414 0.0008917 0.0004162 0.0000136 -0.0005300 0.0004657 0.0012218 -0.0000543 -0.0007967 0.0009662 0.0001534 0.0004329 0.0013271 -0.0003989 -0.0009418 -0.0006175 -0.0013125 -0.0003682 -0.0008058 -0.0005523 -0.0004897 -0.0000058 -0.0001979 -0.0002150 -0.0001694 0.0003234 -0.0005547 0.0000457 0.0000495 0.0000991 -0.0000666 0.0000954 0.0000037 0.0006558 -0.0047615 -0.0083087 -0.0002688 0.0007269 0.0098990 0.0001180 -0.0006651 0.0003236 -0.0005205 0.0066417 -0.0047217 -0.0001403 -0.0005045 -0.0000527 -0.0004082 -0.0003565 -0.0000080 0.0015041 -0.0011889 -0.0000515 -0.0005983 -0.0019299 -0.0000292 0.0056199 -0.0043840 0.0001554 0.0004416 0.0012601 -0.0003138 -0.0000912 0.0002267 -0.0004277 -0.0003666 0.0000611 -0.0004963 -0.0073847 0.0096430 -0.0251688 0.0203397 0.0003621 0.0001581 -0.0007816 0.0008117 0.0009802 -0.0009023 0.0000473 -0.0004497 -0.0001759 -0.0005850 -0.0000703 -0.0002250 -0.0006302 -0.0002316 0.0013855 -0.0023983 -0.0010154 -0.0003955 -0.0003295 -0.0009500 0.0000539 -0.0002627 -0.0023179 0.0014744 0.0000651 -0.0006979 0.0028070 -0.0019529 0.0002887 0.0000414 0.0001256 -0.0001568 0.0000076 0.0004958 -0.0001147 -0.0000262 -0.0001627 0.0000995 -0.0008945 -0.0000757 0.0000740 -0.0001149 -0.0002237 0.0008391 0.0031742 -0.0141919 0.0001407 0.0002893 -0.0000256 0.0008290 -0.0001242 0.0000561 0.0005063 0.0001962 -0.0001310 -0.0004844 -0.0000399 0.0000894 -0.0002099 0.0004971 -0.0001059 -0.0000030 -0.0074202 0.0031137 -0.0004172 0.0002852 0.0002644 -0.0002202 0.0000089 -0.0000743 -0.0006552 -0.0003053 0.0012829 -0.0016903 -0.0006543 0.0000369 0.0001809 0.0000807 0.0000586 0.0002084 0.0000336 -0.0001661 -0.0110001 0.0029262 -0.0001283 -0.0004256 0.0000057 -0.0000980 -0.0000065 0.0000041 -0.0002694 -0.0147301 0.0000748 -0.0000946 -0.0009058 0.0014122 -0.0000440 0.0004623 0.0001318 -0.0000724 0.0000216 0.0002237 -0.0000642 -0.0001115 0.0000930 -0.0023149
0.0002423 0.0000310 -0.0000580 -0.0004806 -0.0000324 -0.0004550 0.0001762 0.0002147 0.0000128 -0.0007422 0.0003246 -0.0004441 -0.0001425 -0.0009337 0.0002409 -0.0001118 0.0001164 -0.0000605 -0.0000551 -0.0001473 -0.0000507 -0.0004121 -0.0000042 -0.0005423 -0.0000799 -0.0003379 -0.0000409 -0.0017159 0.0003130 0.0004177 -0.0000727 0.0005043 0.0002068 -0.0004244 -0.0002293 -0.0012166 -0.0000049 -0.0001471 0.0004805 0.0006493 0.0000138 -0.0006172 0.0005721 0.0010355 -0.0003800 -0.0006994 0.0008913 0.0001916 0.0011732 0.0005573 -0.0003828 -0.0009292 -0.0005854 -0.0012683 -0.0003699 -0.0009271 -0.0005642 -0.0005437 -0.0000276 -0.0003460 -0.0002519 -0.0002881 -0.0002255 -0.0000484 0.0001272 -0.0000951 0.0002622 -0.0004395 0.0003146 0.0003699 -0.0036893 -0.0022842 -0.0028307 0.0070293 -0.0032467 0.0076106 -0.0003203 -0.0005570 0.0000557 -0.0004704 0.0034716 -0.0014101 0.0016173 -0.0017596 -0.0000522 -0.0006374 0.0000330 -0.0006871 0.0010154 -0.0009360 -0.0000156 -0.0008604 -0.0026596 0.0020675 0.0058968 -0.0052789 -0.0000200 0.0005415 0.0018629 -0.0013143 0.0004771 -0.0003170 -0.0003781 -0.0004715 0.0000082 -0.0006115 -0.0015294 0.0005349 -0.0000572 -0.0035031 0.0005579 -0.0000388 -0.0003715 0.0004767 0.0003964 -0.0003292 0.0000256 -0.0004387 -0.0001142 -0.0005783 -0.0000950 -0.0001538 -0.0013343 -0.0002963 0.0001541 -0.0001958 -0.0009062 -0.0004688 -0.0003609 -0.0008972 0.0000676 -0.0003356 0.0069418 -0.0062950 0.0001436 -0.0007091 -0.0014596 0.0015067 0.0000176 0.0002155 0.0000579 -0.0001405 0.0000848 0.0003790 -0.0001780 0.0001499 -0.0001991 0.0002215 -0.0003871 -0.0000281 0.0000626 -0.0000245 -0.0002562 0.0008951 0.0004155 -0.0116664 0.0001084 0.0003119 -0.0005517 0.0010892 -0.0000810 0.0000297 0.0004654 0.0000656 -0.0002569 -0.0002824 -0.0001027 0.0001554 0.0001276 0.0000910 -0.0000971 0.0000015 -0.0042259 -0.0003110 0.0001353 -0.0001043 0.0000580 -0.0000827 0.0000862 -0.0001420 -0.0010701 0.0001418 -0.0009903 -0.0000499 -0.0152624 0.0115661 -0.0002833 0.0003080 0.0000813 0.0001917 0.0000110 0.0000442 0.0002032 -0.0010743 -0.0001604 -0.0003080 0.0000213 -0.0000586 0.0006933 -0.0010352 0.0049700 -0.0109508 -0.0000257 0.0000260 -0.0008381 0.0020262 -0.0000012 0.0004215 0.0002073 -0.0001095 0.0000184 0.0002391 -0.0000491 -0.0000621 0.0001392 -0.0020645
0.0002266 0.0002284 -0.0000553 -0.0003114 -0.0000311 -0.0002431 0.0001425 0.0001337 -0.0000040 -0.0005380 0.0002961 -0.0000821 -0.0000932 -0.0006674 0.0001683 -0.0001175 0.0001402 0.0001525 -0.0000550 -0.0000488 -0.0001005 -0.0001089 -0.0000476 -0.0003599 -0.0000727 -0.0002186 0.0001323 -0.0010120 0.0003143 0.0005780 -0.0001786 0.0014164 0.0001624 -0.0001862 -0.0002351 -0.0008425 -0.0001340 -0.0003332 0.0006443 0.0009462 -0.0000016 -0.0004499 0.0006632 0.0011755 -0.0004856 -0.0004165 0.0008652 0.0004736 0.0012684 0.0007361 -0.0003829 -0.0007859 -0.0005637 -0.0010935 -0.0003927 -0.0007533 -0.0005787 -0.0003813 -0.0000400 -0.0000887 -0.0002901 -0.0001204 -0.0000638 -0.0001425 0.0000680 0.0000899 0.0001570 -0.0001699 -0.0003128 0.0013842 -0.0046446 -0.0011495 0.0016601 0.0076218 0.0005596 0.0063641 0.0000214 -0.0007731 0.0001208 -0.0004564 0.0020847 0.0000626 0.0004264 -0.0000976 -0.0000445 -0.0005534 -0.0006436 -0.0001299 0.0009981 -0.0010128 -0.0002045 -0.0006042 -0.0029630 0.0048839 0.0033508 -0.0036592 0.0000558 0.0006655 0.0000669 0.0002382 0.0005406 -0.0003307 -0.0003157 -0.0005168 -0.0000400 -0.0004886 0.0105219 -0.0103216 0.0018206 -0.0018482 0.0004095 0.0002950 -0.0005108 0.0005739 0.0001267 -0.0004297 0.0000114 -0.0004252 -0.0001335 -0.0006042 -0.0002078 -0.0000636 -0.0012447 -0.0005449 0.0007590 0.0001048 -0.0012908 0.0001125 -0.0003266 -0.0009793 -0.0000741 -0.0002223 0.0047071 -0.0089494 0.0001784 -0.0008834 0.0009553 -0.0020161 0.0000155 0.0001570 0.0000888 -0.0002607 0.0000125 0.0002894 -0.0001719 -0.0000423 -0.0001520 0.0001266 -0.0001900 0.0005398 0.0000208 0.0000098 -0.0000553 0.0005212 -0.0094945 0.0073176 0.0000741 0.0002455 0.0001704 0.0005459 -0.0000540 -0.0000579 -0.0006446 0.0009539 -0.0002124 -0.0004228 0.0000800 -0.0001135 0.0001648 -0.0000919 -0.0000165 -0.0002503 -0.0052086 0.0010039 0.0003674 -0.0002696 -0.0002345 0.0001430 0.0000798 -0.0001670 -0.0005402 -0.0002379 -0.0015629 0.0007703 -0.0135277 0.0099251 -0.0003292 0.0001596 0.0000629 0.0001361 -0.0000293 -0.0000020 0.0050366 -0.0035012 -0.0000797 -0.0002105 -0.0000326 -0.0000416 -0.0002758 -0.0006500 0.0023161 -0.0031305 -0.0001845 0.0001215 -0.0007761 0.0021238 -0.0000004 0.0003353 0.0001198 -0.0000779 -0.0000117 0.0001606 -0.0000381 -0.0001783 0.0001080 -0.0019135
0.0002157 0.0002403 -0.0000202 -0.0003273 -0.0000033 -0.0002767 0.0001286 0.0000174 0.0000090 -0.0003213 0.0003117 0.0002442 -0.0000527 -0.0004988 0.0000804 -0.0002534 0.0001816 0.0003568 -0.0000956 -0.0000211 -0.0001823 0.0000803 -0.0000802 -0.0002855 -0.0001112 -0.0001615 0.0003317 -0.0002704 0.0003519 0.0007990 -0.0001834 0.0023227 0.0001432 0.0002385 -0.0001587 -0.0005279 -0.0002808 -0.0005789 0.0011092 0.0010909 -0.0000015 -0.0003715 0.0006945 0.0014080 -0.0003712 -0.0003997 0.0008898 0.0006897 0.0008535 0.0014528 -0.0003790 -0.0006313 -0.0005476 -0.0009558 -0.0003959 -0.0006925 -0.0005991 -0.0002288 -0.0000387 0.0000609 -0.0002981 -0.0000263 0.0002516 -0.0004439 -0.0000028 0.0002119 0.0000403 0.0001493 -0.0001933 0.0006672 -0.0009220 -0.0027333 0.0053598 -0.0011797 0.0013008 0.0104987 0.0003097 -0.0009093 0.0002539 -0.0004251 0.0003779 0.0016898 0.0004558 0.0004568 -0.0000057 -0.0004435 -0.0008052 0.0005923 0.0005969 -0.0005864 -0.0002055 -0.0004295 -0.0064135 0.0075731 -0.0068677 0.0049610 0.0001205 0.0007622 0.0002172 0.0008020 0.0003972 0.0000504 -0.0001367 -0.0004566 -0.0000701 -0.0003324 0.0058398 -0.0081590 -0.0177903 0.0230595 0.0000930 0.0009216 -0.0004396 0.0006001 -0.0001069 -0.0003864 -0.0000001 -0.0002539 -0.0001095 -0.0004593 -0.0001612 0.0000496 -0.0018866 0.0002223 0.0014519 -0.0000338 -0.0011282 -0.0000655 -0.0003109 -0.0009305 -0.0001151 -0.0001809 -0.0142861 0.0014435 0.0000215 -0.0004824 0.0010631 -0.0023130 0.0000018 0.0002906 0.0000891 -0.0001417 -0.0000326 0.0003898 -0.0002265 0.0001224 -0.0001536 0.0001847 0.0000275 -0.0000056 0.0002452 0.0000546 -0.0001268 0.0006778 -0.0153778 0.0142607 0.0000662 0.0002634 -0.0000388 0.0007237 -0.0001578 0.0002217 -0.0016600 0.0024022 -0.0001034 -0.0002296 0.0001719 -0.0001334 0.0002939 0.0000022 -0.0000685 -0.0000561 -0.0035996 0.0002679 0.0004117 -0.0001469 -0.0000368 0.0002955 -0.0000704 0.0000124 -0.0014488 0.0005309 -0.0010380 0.0017686 -0.0065645 0.0052653 -0.0000116 -0.0000117 0.0000590 0.0002634 -0.0001028 0.0000699 0.0028820 -0.0068626 -0.0002299 0.0001101 -0.0000238 0.0000759 -0.0002313 -0.0005415 0.0031068 -0.0098340 -0.0000782 0.0001615 -0.0009125 0.0016017 -0.0000461 0.0003486 0.0001183 -0.0000328 -0.0000288 0.0001506 -0.0000513 -0.0002323 0.0001075 -0.0017885
0.0002012 0.0002014 -0.0000262 -0.0003907 -0.0000095 -0.0003561 0.0001478 0.0001845 0.0000403 -0.0001136 0.0003094 0.0003106 -0.0000984 -0.0005117 0.0000995 -0.0000642 0.0002226 0.0004125 -0.0000390 -0.0001877 -0.0001530 -0.0000344 -0.0000463 -0.0004464 -0.0001322 -0.0002451 0.0002490 -0.0003669 0.0003553 0.0009447 -0.0002231 0.0019888 0.0001987 0.0002754 -0.0001587 -0.0004651 -0.0002234 -0.0002073 0.0011994 0.0007671 -0.0000301 -0.0004786 0.0006514 0.0013663 -0.0004603 -0.0003675 0.0009028 0.0006316 0.0014837 0.0010895 -0.0003560 -0.0005694 -0.0005208 -0.0008893 -0.0003728 -0.0008063 -0.0005990 -0.0002522 -0.0000599 -0.0001210 -0.0002971 -0.0001763 0.0002571 -0.0005776 0.0000044 0.0000349 0.0001249 -0.0000448 0.0003440 -0.0004271 0.0009775 -0.0039130 0.0079419 -0.0059987 0.0075193 -0.0051971 0.0006235 -0.0014669 0.0001862 -0.0003943 -0.0069628 0.0085247 0.0004073 -0.0002159 0.0000087 -0.0005535 -0.0001312 0.0004203 -0.0003173 0.0002709 -0.0000220 -0.0005370 0.0005767 0.0000242 -0.0067126 0.0036507 -0.0000071 0.0008192 0.0012808 -0.0008212 0.0002062 0.0003928 -0.0000829 -0.0002700 0.0001145 -0.0005238 -0.0116639 0.0141468 -0.0132333 0.0086653 0.0005465 0.0004887 0.0000556 0.0002371 0.0000443 -0.0001739 -0.0000099 -0.0002131 -0.0002896 -0.0003177 -0.0000669 -0.0000147 -0.0011804 0.0008875 -0.0000960 0.0012591 -0.0006967 -0.0004871 -0.0002493 -0.0008516 0.0000247 -0.0002782 -0.0019381 -0.0001723 -0.0000410 -0.0003339 0.0009642 -0.0017614 -0.0000241 0.0004174 0.0000401 -0.0001184 0.0002801 0.0001390 -0.0001307 0.0001552 -0.0002354 0.0002677 -0.0004608 0.0004755 0.0001688 0.0002185 -0.0001249 0.0006775 -0.0113190 0.0097279 0.0001010 0.0003031 -0.0000527 0.0010448 -0.0001280 0.0002856 -0.0008155 0.0011687 0.0000110 -0.0000834 0.0000368 0.0000313 0.0004271 0.0001369 -0.0000472 0.0000019 -0.0003785 -0.0022568 0.0000853 0.0001116 0.0001245 0.0002031 -0.0000693 0.0000095 -0.0006279 -0.0001385 0.0001960 -0.0004730 -0.0000299 0.0009177 -0.0002218 0.0001431 0.0000855 0.0001876 -0.0002961 0.0002874 0.0024015 -0.0107681 -0.0002521 -0.0000240 0.0000734 0.0000033 0.0002475 -0.0006199 0.0023655 -0.0061849 -0.0000986 0.0000784 0.0003157 -0.0003165 -0.0000050 0.0002694 0.0002602 -0.0001169 -0.0000572 0.0001831 -0.0000598 -0.0000973 0.0000915 -0.0013377
0.0001681 0.0003855 -0.0000517 -0.0002768 -0.0000341 -0.0002047 0.0001662 0.0004716 0.0000514 0.0000992 0.0002522 0.0004035 -0.0001202 -0.0004364 0.0001411 0.0003406 0.0002001 0.0005260 0.0000322 -0.0001559 -0.0000120 -0.0000214 -0.0000246 -0.0003544 -0.0000856 -0.0001701 0.0001060 -0.0004826 0.0003179 0.0010800 -0.0003818 0.0016343 0.0001751 0.0003931 -0.0001744 -0.0004563 -0.0001727 0.0003582 0.0003749 0.0013997 -0.0000335 -0.0003910 0.0004765 0.0015431 -0.0005367 -0.0001954 0.0008285 0.0006931 0.0017735 0.0008593 -0.0003264 -0.0004749 -0.0005040 -0.0007552 -0.0003548 -0.0006774 -0.0005948 -0.0001395 -0.0001017 -0.0000690 -0.0003096 -0.0001599 0.0003072 -0.0005842 0.0000610 -0.0000345 0.0001904 -0.0001602 0.0001119 0.0001287 0.0015300 -0.0047642 -0.0038506 0.0030011 0.0113786 -0.0231202 0.0002135 -0.0011182 0.0001974 -0.0004816 -0.0035664 0.0046660 -0.0001271 0.0001904 -0.0000188 -0.0006532 0.0003957 -0.0002597 -0.0001827 -0.0000413 -0.0000728 -0.0005767 0.0031979 -0.0040846 0.0024292 -0.0044985 -0.0000648 0.0008315 0.0002482 -0.0005153 0.0003828 0.0003932 -0.0003024 0.0000552 0.0001886 -0.0006167 0.0039827 -0.0079121 0.0018781 -0.0066732 0.0010044 -0.0000798 -0.0002448 0.0004464 0.0005053 -0.0004796 0.0000040 -0.0003336 -0.0003351 -0.0004098 -0.0001543 -0.0000643 -0.0005954 0.0006375 0.0010238 -0.0011560 -0.0011001 0.0000744 -0.0001973 -0.0008937 0.0001231 -0.0002949 -0.0009260 0.0035109 0.0000094 -0.0006055 0.0030819 -0.0023616 -0.0001855 0.0006003 0.0000433 -0.0003394 0.0001417 0.0000542 0.0000447 -0.0003144 -0.0000329 -0.0000078 -0.0008301 0.0010120 0.0000686 0.0001979 0.0001074 0.0002617 -0.0158836 0.0124611 0.0001045 0.0002824 0.0000712 0.0010912 -0.0000385 0.0000982 0.0002683 -0.0004602 -0.0000233 -0.0000800 0.0000668 -0.0000823 0.0004131 0.0002411 -0.0000404 -0.0001394 0.0018110 -0.0036849 0.0000826 -0.0003342 0.0003060 -0.0000809 0.0000064 -0.0000986 0.0001806 -0.0014534 0.0028701 -0.0038495 0.0009642 0.0034523 0.0000473 -0.0003602 0.0000774 0.0000927 -0.0004717 0.0003340 -0.0000707 -0.0012651 0.0001597 -0.0004191 0.0001062 -0.0000064 -0.0006399 0.0003226 0.0014396 -0.0002852 -0.0001392 0.0000361 -0.0006617 -0.0000061 -0.0000675 0.0003004 0.0002034 -0.0000269 0.0000032 0.0001011 -0.0000069 -0.0001318 0.0001379 -0.0011273
0.0001547 0.0004461 -0.0000482 -0.0002406 -0.0000264 -0.0001604 0.0001635 0.0005370 0.0000357 0.0001444 0.0002433 0.0005476 -0.0001040 -0.0003468 0.0001124 0.0003876 0.0002226 0.0005993 -0.0000234 -0.0001126 -0.0000383 0.0000511 0.0000154 -0.0003722 -0.0000813 -0.0001361 0.0001430 -0.0002366 0.0002854 0.0011125 -0.0003399 0.0017810 0.0001679 0.0004759 -0.0001150 -0.0004833 -0.0002187 0.0003756 -0.0004184 0.0022998 -0.0000228 -0.0003384 0.0005544 0.0016158 0.0000212 -0.0007228 0.0007795 0.0007639 0.0016904 0.0007610 -0.0003037 -0.0003773 -0.0004791 -0.0006198 -0.0003465 -0.0005562 -0.0006064 0.0000037 -0.0000931 0.0000242 -0.0003023 -0.0000799 0.0000183 -0.0002199 0.0000400 0.0000325 0.0003041 -0.0002701 -0.0004266 0.0007699 0.0002877 -0.0036243 -0.0216103 0.0102157 0.0080535 -0.0168179 -0.0001737 -0.0004545 0.0003393 -0.0006311 0.0039768 -0.0015856 0.0015713 -0.0012154 -0.0000322 -0.0005255 0.0000800 0.0000859 0.0002700 -0.0003040 -0.0000194 -0.0004368 -0.0015856 -0.0001673 0.0054491 -0.0049183 -0.0001898 0.0009460 -0.0002224 0.0006088 0.0005283 0.0003630 -0.0002935 0.0001514 -0.0000042 -0.0003140 0.0033454 -0.0075379 0.0020658 0.0109686 0.0006458 0.0003362 -0.0004237 0.0006706 0.0001897 -0.0005338 0.0000361 -0.0002274 -0.0002032 -0.0004232 -0.0002239 0.0001844 -0.0011185 0.0004212 0.0019946 -0.0032062 -0.0006504 -0.0001515 -0.0002551 -0.0007082 0.0000378 -0.0001162 -0.0052816 0.0028495 0.0000046 -0.0004792 0.0037958 -0.0012311 -0.0003151 0.0008854 0.0000778 -0.0003839 0.0001422 0.0001154 -0.0001435 -0.0001576 -0.0000204 -0.0000512 -0.0012992 0.0008028 0.0000180 0.0001885 0.0001450 0.0003179 -0.0093327 0.0042933 0.0001055 0.0002110 -0.0005458 0.0016767 -0.0000129 0.0000534 0.0005933 -0.0004910 -0.0000787 -0.0000473 0.0000427 -0.0000572 0.0004352 0.0000314 -0.0001922 -0.0001056 0.0018062 -0.0019556 0.0005051 -0.0007887 -0.0001312 0.0001769 0.0000291 -0.0001324 -0.0004273 -0.0007973 0.0010675 -0.0020241 0.0006471 0.0063592 0.0005435 -0.0007278 0.0000924 0.0002469 -0.0001735 0.0000402 0.0018622 -0.0023659 0.0003028 -0.0003540 0.0000874 0.0001322 -0.0004273 0.0005540 -0.0037484 -0.0027707 0.0000746 0.0001431 -0.0003753 0.0005738 -0.0000839 0.0002954 0.0000583 0.0001711 0.0000664 0.0000523 0.0000095 -0.0002961 0.0002192 -0.0017784
0.0001707 0.0002500 -0.0000344 -0.0004082 -0.0000322 -0.0003305 0.0001528 0.0005022 0.0000132 0.0000968 0.0002658 0.0005482 -0.0000936 -0.0003908 0.0000950 0.0003450 0.0002371 0.0006169 -0.0000559 -0.0002511 -0.0000560 -0.0000582 0.0000546 -0.0005991 -0.0000801 -0.0002798 0.0002064 -0.0001029 0.0002925 0.0010871 -0.0002336 0.0018089 0.0002491 0.0003354 -0.0000852 -0.0004753 -0.0002184 0.0003540 -0.0001470 0.0020485 -0.0000100 -0.0004815 0.0005436 0.0014237 0.0004397 -0.0011563 0.0008159 0.0007407 0.0013885 0.0009075 -0.0002935 -0.0003701 -0.0004610 -0.0005498 -0.0003386 -0.0005937 -0.0006313 -0.0000051 -0.0000715 -0.0001247 -0.0002850 -0.0000995 -0.0001119 -0.0001852 0.0000204 -0.0000737 0.0003030 -0.0003562 -0.0003263 0.0010182 -0.0049334 0.0007595 0.0052529 -0.0102125 0.0101742 -0.0166256 -0.0001063 -0.0004539 0.0001959 -0.0005782 0.0033884 -0.0003300 0.0000074 -0.0000262 0.0000145 -0.0005462 0.0000805 -0.0000175 0.0002189 -0.0002517 0.0002040 -0.0006564 -0.0006352 0.0011223 0.0019748 -0.0012449 -0.0000503 0.0007853 0.0005008 0.0001030 0.0005296 0.0001534 -0.0002611 -0.0000223 0.0000112 -0.0003602 -0.0105379 0.0135168 0.0135093 -0.0074665 0.0002867 0.0006592 -0.0003010 0.0007033 -0.0003570 0.0001656 0.0000685 -0.0001889 -0.0000748 -0.0005769 -0.0000596 0.0001562 0.0003488 -0.0009145 0.0015081 -0.0020745 -0.0002681 -0.0004095 -0.0002540 -0.0005215 -0.0000562 -0.0000983 -0.0040461 -0.0034049 0.0000149 -0.0003547 0.0033355 -0.0021967 0.0000883 0.0005092 0.0001683 -0.0004200 0.0002147 -0.0000021 -0.0001934 -0.0000086 -0.0000506 -0.0000874 -0.0010047 0.0004290 0.0001576 0.0001272 0.0000560 0.0002320 -0.0053912 0.0016029 0.0000945 0.0002901 0.0004073 0.0010166 0.0000508 0.0000253 0.0012179 -0.0005016 -0.0000097 -0.0001285 0.0000539 -0.0001191 0.0003412 -0.0001112 -0.0001669 -0.0002547 0.0003951 0.0003609 0.0005386 -0.0009684 -0.0006146 0.0005265 0.0001405 -0.0002067 -0.0003316 -0.0005566 0.0001714 -0.0025860 0.0020719 0.0009548 0.0004607 -0.0003151 0.0000596 0.0002282 0.0001994 -0.0002243 -0.0013342 0.0020906 -0.0000371 -0.0000142 0.0000835 0.0001066 0.0007396 -0.0009420 -0.0063569 -0.0096828 0.0001216 0.0000356 0.0008879 -0.0011221 -0.0000548 0.0002095 0.0000670 0.0001460 0.0001065 0.0001574 -0.0000070 -0.0001201 0.0002473 -0.0020204
0.0001483 0.0004072 -0.0000444 -0.0003116 -0.0000391 -0.0001913 0.0001663 0.0007331 0.0000213 0.0002557 0.0002453 0.0005514 -0.0000937 -0.0003307 0.0001319 0.0005999 0.0002032 0.0007014 -0.0000599 -0.0002165 -0.0000368 -0.0000825 0.0000027 -0.0005334 -0.0000527 -0.0002779 0.0001234 -0.0001861 0.0002808 0.0011731 -0.0003135 0.0013999 0.0002010 0.0004484 -0.0001470 -0.0004119 -0.0001081 0.0007872 0.0005157 0.0015785 0.0000098 -0.0005596 0.0003969 0.0013517 0.0002068 -0.0009825 0.0008619 0.0008012 0.0008813 0.0012068 -0.0002977 -0.0003968 -0.0004641 -0.0005292 -0.0002998 -0.0005906 -0.0006392 -0.0000141 -0.0000541 -0.0003119 -0.0002648 -0.0000994 0.0002158 -0.0006620 0.0000009 -0.0002081 0.0002116 -0.0004142 -0.0007970 0.0011479 -0.0043729 0.0001391 0.0153836 -0.0232365 0.0043265 -0.0081380 -0.0000637 -0.0008840 0.0000523 -0.0005833 0.0039269 -0.0024959 -0.0003624 0.0006848 0.0000881 -0.0008115 0.0003910 -0.0012885 0.0001314 -0.0005801 0.0000583 -0.0008372 0.0022380 -0.0010456 -0.0007149 -0.0000301 0.0001861 0.0003864 0.0008224 -0.0005749 0.0006110 -0.0001347 -0.0003187 -0.0002515 0.0001419 -0.0005026 -0.0155634 0.0217112 0.0201814 -0.0355733 0.0005603 0.0002610 -0.0002663 0.0006578 0.0000561 -0.0002023 0.0000811 -0.0003206 -0.0000092 -0.0007362 0.0001219 -0.0001384 0.0002829 -0.0005880 0.0007855 -0.0008982 -0.0007370 0.0001580 -0.0000832 -0.0007539 -0.0001050 -0.0000887 -0.0026224 -0.0007380 0.0001180 -0.0005378 0.0018729 -0.0040444 0.0000497 0.0001710 0.0002663 -0.0006508 0.0003047 -0.0001557 -0.0001234 -0.0002610 0.0000243 -0.0002755 -0.0006205 0.0003939 0.0001701 0.0000114 -0.0000117 0.0001493 -0.0009213 0.0062984 0.0001541 0.0003394 0.0007378 0.0008192 0.0000869 0.0000928 0.0008364 0.0005265 0.0000155 -0.0001963 0.0000557 -0.0001455 0.0001566 -0.0000636 -0.0000765 -0.0004678 0.0005446 -0.0019265 0.0009056 -0.0014815 -0.0005795 0.0003883 0.0001859 -0.0002554 -0.0006419 -0.0012317 -0.0000847 -0.0015207 0.0037064 -0.0040560 0.0002070 -0.0003566 0.0000226 0.0000256 0.0000312 -0.0000913 -0.0030264 0.0084902 -0.0002905 0.0000088 0.0000421 0.0000814 0.0006662 -0.0013063 -0.0044459 -0.0043026 0.0000401 -0.0002255 -0.0002602 -0.0009059 0.0000078 0.0000497 0.0001736 -0.0000048 0.0000709 0.0002385 0.0000342 -0.0000107 0.0002298 -0.0019413
0.0001189 0.0004467 -0.0000481 -0.0002876 -0.0000223 -0.0001794 0.0001792 0.0009889 0.0000281 0.0003387 0.0002087 0.0004942 -0.0000983 -0.0003025 0.0001691 0.0008195 0.0002143 0.0006654 -0.0000735 -0.0001765 -0.0000710 0.0000250 -0.0000292 -0.0004428 -0.0000242 -0.0002649 -0.0000379 -0.0004233 0.0002345 0.0012463 -0.0003384 0.0007428 0.0001604 0.0004208 -0.0001291 -0.0004108 -0.0000004 0.0011198 0.0006118 0.0013116 0.0000066 -0.0004909 0.0003628 0.0014406 -0.0002093 -0.0005622 0.0008486 0.0008931 0.0007832 0.0010313 -0.0003163 -0.0003304 -0.0004728 -0.0005223 -0.0002768 -0.0003679 -0.0006443 0.0001127 -0.0000358 -0.0002241 -0.0002314 0.0000746 0.0002737 -0.0006191 0.0000485 -0.0002355 0.0001202 -0.0002675 -0.0014410 0.0007798 -0.0028394 -0.0010751 0.0060333 -0.0135944 -0.0087470 0.0130328 -0.0000403 -0.0008700 0.0001640 -0.0004833 0.0055198 -0.0039054 0.0020268 -0.0010645 0.0000648 -0.0005948 0.0000491 -0.0007176 -0.0000456 -0.0001735 -0.0000675 -0.0004853 0.0024352 -0.0025104 -0.0033575 0.0018282 0.0000870 0.0003955 0.0008039 -0.0006328 0.0000096 0.0004492 -0.0002827 -0.0002825 0.0001558 -0.0002851 -0.0070844 0.0128213 0.0036711 -0.0180345 0.0004314 0.0004081 -0.0003786 0.0006933 -0.0004906 -0.0001044 0.0000327 -0.0002322 0.0002590 -0.0009042 0.0001389 -0.0002145 -0.0007252 0.0004128 -0.0010327 -0.0000010 -0.0007195 0.0001805 -0.0000748 -0.0006264 -0.0000087 0.0000527 -0.0023135 0.0034358 0.0001133 -0.0005771 -0.0006447 -0.0001906 -0.0001517 0.0003529 0.0002868 -0.0007222 0.0003248 0.0000162 0.0000144 -0.0006538 -0.0001181 -0.0002013 -0.0001664 -0.0003079 -0.0003122 0.0003032 0.0000197 0.0000337 0.0093345 -0.0084797 0.0002109 0.0003667 -0.0000539 0.0015330 0.0000433 0.0001825 -0.0001901 0.0010914 0.0000318 -0.0003561 -0.0000027 -0.0000849 0.0002360 -0.0002309 -0.0000062 -0.0006407 -0.0014656 -0.0019286 0.0001732 -0.0005985 -0.0000237 -0.0004137 0.0000820 -0.0001701 -0.0002579 -0.0012593 0.0007676 -0.0017166 0.0010858 -0.0017648 -0.0001533 -0.0005719 0.0000684 -0.0001302 -0.0000083 -0.0000076 0.0002396 0.0014078 -0.0002908 -0.0002412 0.0000241 0.0000620 -0.0002573 -0.0006471 -0.0089753 0.0114848 -0.0000065 -0.0002495 -0.0002546 0.0013082 0.0000769 -0.0001325 0.0003118 -0.0001590 0.0000537 0.0001436 0.0000455 -0.0000576 0.0002407 -0.0019728
0.0000960 0.0002086 -0.0000408 -0.0004660 0.0000002 -0.0004203 0.0001847 0.0010111 0.0000138 0.0001912 0.0001521 0.0003865 -0.0000614 -0.0004122 0.0001831 0.0008201 0.0001780 0.0005858 0.0000021 -0.0003380 0.0000070 0.0000351 0.0000004 -0.0005361 0.0000679 -0.0004539 -0.0001348 -0.0006199 0.0001970 0.0012446 -0.0001880 0.0003105 0.0001158 0.0003132 -0.0001182 -0.0004125 0.0000124 0.0010726 0.0001899 0.0011412 -0.0000188 -0.0004490 0.0004357 0.0014455 -0.0004481 -0.0001821 0.0008098 0.0008254 0.0006616 0.0009197 -0.0003111 -0.0002680 -0.0004970 -0.0005625 -0.0002824 -0.0002358 -0.0006627 0.0001959 -0.0000138 -0.0002021 -0.0002162 0.0002003 0.0004747 -0.0007974 0.0001116 -0.0003042 0.0000543 -0.0001802 0.0002918 -0.0001954 -0.0029611 -0.0013875 -0.0057966 -0.0053171 -0.0075407 0.0083153 0.0001107 -0.0006974 0.0000766 -0.0004697 0.0021325 0.0015694 0.0024777 -0.0017489 0.0000340 -0.0003235 -0.0001316 0.0001022 0.0009291 -0.0005518 0.0000182 -0.0002893 0.0008530 -0.0010444 -0.0104889 0.0066492 0.0000165 0.0003649 0.0001622 -0.0000219 -0.0002349 0.0007680 -0.0003128 -0.0001874 0.0001237 -0.0001817 -0.0045113 0.0032487 -0.0051553 0.0119293 0.0005127 0.0004804 -0.0004791 0.0007239 -0.0011583 -0.0001107 0.0000279 -0.0000704 0.0000514 -0.0006835 0.0000810 -0.0000722 -0.0004117 -0.0010241 -0.0007978 -0.0002308 -0.0006277 0.0001226 -0.0002568 -0.0000807 0.0000578 0.0002534 -0.0038749 0.0028704 0.0000766 -0.0003410 -0.0012034 0.0037361 0.0001196 0.0002193 0.0002530 -0.0005342 0.0002987 0.0002024 0.0001124 -0.0005663 -0.0000559 -0.0000711 -0.0006523 -0.0002358 -0.0000663 0.0001589 0.0001280 -0.0001672 0.0153195 -0.0208923 0.0001591 0.0005716 0.0001381 0.0011896 0.0000015 0.0002932 -0.0010030 0.0015220 0.0000473 -0.0001727 -0.0000020 -0.0000869 0.0004514 -0.0003712 0.0001562 -0.0007131 -0.0022701 -0.0005127 -0.0006217 0.0001043 0.0003873 -0.0008862 -0.0000403 0.0000452 0.0004787 -0.0014042 0.0002829 -0.0013161 -0.0080232 0.0083339 0.0001073 -0.0006923 0.0001469 -0.0001361 -0.0000281 0.0000825 -0.0015954 -0.0010036 0.0000246 -0.0003640 0.0000476 0.0001349 -0.0005845 -0.0006079 0.0023285 0.0051867 -0.0000727 -0.0002017 0.0010129 0.0003424 0.0000462 -0.0000988 0.0002717 -0.0000833 0.0000429 0.0001462 0.0000531 -0.0000182 0.0002946 -0.0017412
0.0000895 0.0001014 -0.0000617 -0.0005208 -0.0000166 -0.0004756 0.0001876 0.0010534 -0.0000137 0.0000626 0.0000820 0.0003596 -0.0000557 -0.0004866 0.0001940 0.0008498 0.0001170 0.0004982 0.0000476 -0.0004361 0.0001031 -0.0001077 0.0000467 -0.0006883 0.0000130 -0.0004259 -0.0002289 -0.0008759 0.0001999 0.0011852 -0.0001167 -0.0000657 0.0001049 0.0001462 -0.0001536 -0.0005543 0.0000029 0.0010114 -0.0003796 0.0013311 -0.0000115 -0.0005559 0.0004162 0.0011769 -0.0002557 -0.0003866 0.0007823 0.0006890 0.0003480 0.0009503 -0.0003115 -0.0002693 -0.0005006 -0.0006309 -0.0002761 -0.0003124 -0.0006660 0.0001513 0.0000018 -0.0003723 -0.0002004 0.0001372 0.0006617 -0.0011288 0.0000630 -0.0004384 0.0000763 -0.0003647 -0.0000250 0.0003832 -0.0062393 0.0009573 -0.0169026 0.0120136 0.0044166 -0.0048923 0.0003742 -0.0011644 0.0000906 -0.0007564 0.0025661 -0.0015865 0.0023138 -0.0033511 0.0000621 -0.0003772 0.0003292 -0.0001504 0.0010899 -0.0009090 0.0000724 -0.0004622 0.0012444 -0.0011084 0.0012057 -0.0025333 0.0003381 -0.0001195 -0.0006002 0.0000426 0.0002183 0.0003318 -0.0003858 -0.0001019 0.0001124 -0.0002339 0.0047252 -0.0126345 0.0003735 0.0074976 0.0006554 0.0003413 -0.0001113 0.0004047 -0.0000149 -0.0006996 0.0000467 -0.0000391 -0.0001644 -0.0005483 0.0000364 0.0000481 0.0001904 -0.0017925 -0.0001677 -0.0004037 -0.0006992 0.0003385 -0.0001402 -0.0001126 0.0000691 0.0004418 0.0026588 -0.0099837 0.0000788 -0.0003040 -0.0007550 0.0021205 0.0002402 -0.0003356 0.0002487 -0.0005001 0.0002525 0.0001366 0.0001605 -0.0005355 -0.0000081 -0.0000657 -0.0004933 0.0005945 0.0004067 -0.0003541 0.0001591 -0.0001136 0.0129899 -0.0123979 0.0001614 0.0005931 0.0002185 0.0006247 -0.0000276 0.0002991 -0.0010266 0.0004660 0.0000444 0.0000523 0.0000116 -0.0000840 0.0002557 -0.0002476 0.0000661 -0.0006192 -0.0045352 0.0022863 -0.0003205 -0.0001662 -0.0000933 -0.0002776 -0.0000860 0.0001375 -0.0002971 -0.0009698 -0.0037616 0.0027186 -0.0012163 0.0012242 0.0005531 -0.0007779 0.0001129 -0.0000235 0.0000429 0.0000820 -0.0043154 0.0059634 0.0001127 -0.0003377 0.0000635 0.0001849 0.0001904 -0.0006976 0.0014097 0.0033298 -0.0001176 -0.0001018 0.0024546 -0.0014939 0.0000168 0.0000564 0.0003291 -0.0000205 0.0000816 0.0001508 0.0000495 0.0000748 0.0001739 -0.0013389
0.0000810 0.0001725 -0.0000576 -0.0004551 -0.0000410 -0.0003456 0.0001869 0.0011811 -0.0000675 0.0000131 0.0000554 0.0003336 -0.0001131 -0.0004366 0.0002165 0.0010277 0.0000999 0.0004177 0.0000288 -0.0003205 -0.0000204 -0.0000506 0.0000246 -0.0005192 0.0000523 -0.0003837 -0.0003557 -0.0010328 0.0001796 0.0011611 -0.0000754 -0.0003493 0.0000346 0.0002063 -0.0000500 -0.0006554 -0.0000223 0.0010389 -0.0003246 0.0015080 -0.0000058 -0.0004029 0.0002955 0.0012285 -0.0000421 -0.0004353 0.0007326 0.0007205 0.0006747 0.0008751 -0.0003553 -0.0001893 -0.0004992 -0.0005794 -0.0002876 -0.0001863 -0.0006844 0.0001737 -0.0000111 -0.0003069 -0.0001946 0.0002516 0.0005178 -0.0009194 0.0000550 -0.0004465 -0.0000195 -0.0002130 -0.0006975 0.0006773 -0.0061830 0.0010208 0.0075860 -0.0104470 0.0032091 0.0023898 -0.0000151 -0.0010248 0.0002332 -0.0008222 0.0055823 -0.0061267 0.0009635 -0.0015359 0.0000901 -0.0003605 0.0012113 -0.0007373 0.0002387 -0.0001911 0.0000424 -0.0004378 -0.0012794 -0.0007792 0.0019848 -0.0007590 0.0001911 0.0000252 0.0002052 -0.0006883 0.0000500 0.0003338 -0.0004358 0.0000407 -0.0000113 -0.0000862 0.0131608 -0.0294994 0.0109393 -0.0207521 0.0004041 0.0004610 0.0001413 0.0002518 0.0004785 -0.0005720 0.0000539 -0.0000599 -0.0001878 -0.0006122 0.0001038 -0.0001146 0.0005452 -0.0013407 -0.0010982 0.0007997 -0.0007475 0.0005614 -0.0000274 -0.0003244 -0.0000232 0.0005369 -0.0044224 -0.0029494 0.0000600 -0.0004614 -0.0013314 0.0010069 0.0003106 -0.0005665 0.0003024 -0.0006287 0.0002393 0.0000558 0.0001760 -0.0007372 0.0001458 -0.0003182 -0.0000150 -0.0000682 0.0001201 -0.0002733 -0.0000025 -0.0001530 0.0079536 -0.0161694 0.0001724 0.0005596 -0.0002508 0.0009665 -0.0000171 0.0002176 0.0002222 -0.0006326 0.0000249 -0.0000068 0.0001256 -0.0002064 -0.0001724 0.0000096 -0.0000605 -0.0005730 -0.0026770 0.0013711 0.0002409 -0.0006476 -0.0001574 0.0000696 -0.0000332 0.0000898 -0.0003693 -0.0009445 -0.0043995 0.0027492 0.0017957 -0.0018162 0.0005472 -0.0005358 0.0000703 0.0000226 0.0001083 0.0000247 -0.0012290 0.0064587 -0.0000642 -0.0000518 0.0000597 0.0002129 0.0007003 -0.0008644 -0.0114753 0.0078988 -0.0000046 -0.0001073 0.0009180 0.0006147 0.0000052 0.0001189 0.0003134 0.0000581 0.0001451 0.0001192 0.0000436 0.0000757 -0.0000181 -0.0012586
0.0000452 0.0002092 -0.0000647 -0.0004692 -0.0000888 -0.0003340 0.0001722 0.0012237 -0.0001213 -0.0000981 0.0000084 0.0001944 -0.0001558 -0.0005130 0.0002662 0.0011783 0.0000855 0.0002789 0.0000126 -0.0002987 -0.0000433 -0.0000074 -0.0000320 -0.0003793 0.0000465 -0.0003647 -0.0004730 -0.0011863 0.0001050 0.0011282 -0.0000320 -0.0004953 0.0000099 0.0002047 -0.0001296 -0.0005426 -0.0000669 0.0008826 -0.0000489 0.0014550 -0.0000150 -0.0002699 0.0003343 0.0013193 0.0001568 -0.0004600 0.0006698 0.0006973 0.0003911 0.0010554 -0.0003746 -0.0001329 -0.0005114 -0.0005447 -0.0003121 -0.0000331 -0.0007049 0.0002322 -0.0000180 -0.0001957 -0.0001877 0.0003942 0.0003677 -0.0007102 0.0001158 -0.0003845 -0.0000995 -0.0000753 0.0000032 0.0000594 0.0005484 -0.0041731 0.0167481 -0.0324558 -0.0005078 0.0008891 -0.0000112 -0.0007762 0.0002356 -0.0005252 0.0041467 -0.0027380 -0.0005331 0.0012853 0.0001219 -0.0002091 0.0013557 -0.0013170 0.0005101 -0.0001899 0.0000443 -0.0000839 -0.0009631 -0.0013773 -0.0054923 0.0066873 -0.0001281 0.0002759 0.0011684 -0.0010537 0.0000390 0.0003196 -0.0003075 0.0000343 0.0000500 -0.0000221 0.0016178 -0.0026226 -0.0009978 -0.0049757 0.0003685 0.0006785 0.0000998 0.0003951 0.0008851 -0.0009461 0.0000541 0.0001396 -0.0001651 -0.0004751 0.0001395 -0.0000001 -0.0007697 0.0004974 0.0004973 -0.0008472 -0.0006975 0.0004282 -0.0000137 -0.0001448 -0.0000053 0.0005974 -0.0092762 0.0050779 0.0001220 -0.0002447 -0.0008530 0.0001578 0.0001861 0.0000362 0.0002220 -0.0003208 0.0004206 0.0002379 -0.0000137 -0.0001782 0.0001323 -0.0001490 0.0001878 -0.0006004 0.0000504 -0.0000991 0.0000076 -0.0000982 0.0062931 -0.0220726 0.0001435 0.0007639 -0.0004780 0.0016495 0.0000337 0.0003211 0.0006006 -0.0003914 -0.0000889 0.0002826 0.0001024 -0.0001330 -0.0002040 0.0000651 -0.0000607 -0.0004986 0.0014101 -0.0004402 0.0002423 -0.0005315 0.0001051 -0.0000227 0.0000109 0.0001168 -0.0003420 -0.0005771 -0.0003182 0.0002401 -0.0100631 0.0087994 0.0003660 -0.0002479 0.0000717 0.0000824 -0.0000188 0.0000258 -0.0030985 0.0070950 -0.0001316 0.0003341 0.0000516 0.0003276 0.0001804 -0.0003869 0.0003415 -0.0060696 0.0000586 -0.0001324 0.0005751 0.0005913 0.0000097 0.0001998 0.0000420 0.0003217 0.0000733 0.0002524 0.0000759 0.0000619 0.0000561 -0.0016108
0.0000288 0.0001287 -0.0000722 -0.0005214 -0.0001282 -0.0004794 0.0001336 0.0010988 -0.0001558 -0.0002540 -0.0000665 0.0001145 -0.0001353 -0.0005816 0.0002408 0.0010367 0.0000942 0.0001814 0.0000171 -0.0003258 0.0000181 -0.0000742 -0.0000651 -0.0004099 -0.0000162 -0.0003559 -0.0004866 -0.0010694 0.0000379 0.0010280 0.0000223 -0.0002912 0.0000512 -0.0000654 -0.0002437 -0.0005807 -0.0001409 0.0004927 0.0002069 0.0010616 -0.0000023 -0.0003295 0.0003468 0.0013143 0.0003046 -0.0007499 0.0006155 0.0005881 0.0005561 0.0007138 -0.0003861 -0.0001437 -0.0005178 -0.0005607 -0.0003139 -0.0000562 -0.0007087 0.0002211 -0.0000306 -0.0002501 -0.0001896 0.0003526 0.0005723 -0.0008923 0.0001164 -0.0003124 0.0000669 -0.0002608 -0.0003001 0.0006730 -0.0002051 -0.0035170 -0.0006832 -0.0139478 0.0105186 -0.0287824 0.0007384 -0.0013983 0.0001924 -0.0003248 0.0011602 -0.0014037 -0.0008907 0.0015795 0.0001083 -0.0000816 0.0004994 -0.0008593 0.0006188 -0.0001893 0.0001625 0.0000758 -0.0038868 0.0040826 -0.0029193 0.0036278 0.0001660 -0.0001653 0.0003925 -0.0009792 0.0001708 0.0001150 -0.0001348 0.0000024 0.0000532 0.0001263 0.0003522 0.0049470 -0.0012213 0.0047326 0.0005566 0.0007544 -0.0001950 0.0006657 -0.0001683 -0.0001671 0.0000372 0.0002894 -0.0000766 -0.0004232 0.0000514 0.0001983 -0.0012088 0.0009891 -0.0010415 -0.0001159 -0.0008632 0.0005586 0.0000149 0.0000237 0.0001219 0.0006269 0.0009181 -0.0116041 0.0000829 0.0000526 -0.0002780 0.0007961 0.0002759 0.0001169 0.0001011 0.0000347 0.0001418 0.0007271 -0.0003267 0.0002411 -0.0000218 0.0001882 0.0004961 -0.0001330 0.0003059 -0.0001836 0.0001309 -0.0001285 0.0045784 -0.0089047 0.0001479 0.0009406 -0.0002927 0.0016880 0.0000303 0.0004549 0.0004918 -0.0002335 -0.0001856 0.0004762 -0.0000669 0.0001323 -0.0002151 0.0000129 -0.0000242 -0.0003310 0.0029859 -0.0020413 -0.0006384 0.0003333 0.0000407 0.0003609 -0.0000989 0.0003380 0.0006949 -0.0007758 -0.0004978 0.0006549 -0.0045577 0.0015550 0.0003903 -0.0003846 0.0000235 0.0002149 0.0001256 0.0002013 -0.0000285 -0.0040247 -0.0004224 0.0004924 0.0000268 0.0004087 -0.0007371 0.0007692 0.0045347 -0.0041728 0.0000897 0.0000914 0.0013524 -0.0007114 0.0000183 0.0004051 0.0000760 0.0003899 0.0000379 0.0004282 0.0000699 0.0003477 -0.0000396 -0.0011419
0.0000079 0.0003772 -0.0000711 -0.0002518 -0.0000964 -0.0002706 0.0000968 0.0011223 -0.0001770 -0.0001643 -0.0001067 0.0002086 -0.0001277 -0.0003622 0.0001779 0.0010092 0.0000934 0.0002878 -0.0000379 -0.0000573 0.0000015 0.0000578 -0.0000625 -0.0002160 0.0000413 -0.0002803 -0.0004793 -0.0007207 -0.0000128 0.0009963 0.0000568 0.0000172 0.0000019 -0.0000857 -0.0003476 -0.0004758 -0.0002146 0.0002715 -0.0004292 0.0015694 -0.0000193 -0.0002461 0.0003504 0.0013494 0.0002692 -0.0008299 0.0005422 0.0005950 0.0006074 0.0008278 -0.0003724 -0.0001263 -0.0005072 -0.0005095 -0.0003269 -0.0000563 -0.0007343 0.0002223 -0.0000471 -0.0002748 -0.0002073 0.0003359 0.0004881 -0.0006542 -0.0000056 -0.0001147 0.0001567 -0.0003537 -0.0005302 0.0013019 -0.0035888 -0.0014501 -0.0057250 0.0046031 0.0020275 -0.0076868 0.0005176 -0.0011397 0.0002315 -0.0003065 -0.0009381 0.0015317 0.0002525 0.0004577 0.0000537 -0.0000221 0.0000509 -0.0002671 0.0000037 0.0003260 0.0001168 0.0000695 0.0009069 0.0019627 -0.0005400 0.0001213 0.0001927 -0.0001881 -0.0008207 -0.0000391 0.0006098 -0.0003678 -0.0001201 0.0000642 -0.0000246 0.0002133 0.0017396 0.0019178 0.0003865 0.0081642 0.0004774 0.0008182 -0.0000846 0.0004990 -0.0010480 0.0005754 0.0000390 0.0002356 -0.0000268 -0.0005469 0.0000454 0.0002093 -0.0010841 -0.0001215 -0.0029673 0.0014524 -0.0011779 0.0009948 0.0000652 -0.0000058 0.0001270 0.0007965 0.0019959 -0.0156571 0.0001184 -0.0000105 -0.0021363 0.0039470 0.0004935 -0.0000653 0.0000716 0.0000655 -0.0001461 0.0010226 -0.0003161 0.0000341 -0.0000555 0.0001749 0.0000823 -0.0000689 0.0001490 -0.0001011 0.0000584 -0.0001977 -0.0038920 0.0041234 0.0002096 0.0009345 -0.0001966 0.0013730 0.0000624 0.0003709 -0.0015303 0.0027588 -0.0002763 0.0004066 -0.0000998 0.0001978 0.0000321 -0.0002538 -0.0000646 -0.0001524 0.0005346 -0.0034700 -0.0005441 0.0003247 -0.0001476 0.0002801 -0.0001232 0.0003963 -0.0003213 0.0005016 -0.0026159 0.0021590 0.0054034 -0.0071183 -0.0000156 0.0001196 0.0000110 0.0002700 0.0000449 0.0006234 0.0110293 -0.0160468 -0.0001973 0.0002854 0.0000704 0.0003313 -0.0000077 0.0004198 0.0004575 -0.0032599 0.0001227 0.0002113 0.0005753 0.0009041 0.0000655 0.0004211 0.0001490 0.0003101 -0.0000333 0.0005171 0.0000559 0.0004816 -0.0000732 -0.0007138
-0.0000188 0.0005612 -0.0000738 -0.0001126 -0.0000915 -0.0001070 0.0000617 0.0011851 -0.0001929 -0.0000713 -0.0001190 0.0002755 -0.0001390 -0.0002722 0.0001464 0.0010628 0.0000455 0.0003281 -0.0000689 0.0001358 0.0000102 0.0001818 -0.0000245 -0.0000571 -0.0000452 -0.0000755 -0.0005071 -0.0005603 -0.0000616 0.0009885 0.0000405 0.0000394 -0.0000442 0.0000210 -0.0003611 -0.0003959 -0.0002626 0.0003207 0.0000568 0.0012492 -0.0000342 -0.0000975 0.0003852 0.0013513 0.0000283 -0.0003873 0.0004994 0.0006810 0.0000014 0.0013557 -0.0003670 -0.0000537 -0.0005014 -0.0004307 -0.0003489 0.0001744 -0.0007526 0.0003192 -0.0000865 -0.0000149 -0.0002391 0.0005384 0.0007850 -0.0008003 -0.0000173 0.0001006 0.0001152 -0.0001652 -0.0002653 0.0008378 0.0004158 -0.0030658 -0.0002642 0.0051416 0.0008129 0.0076583 0.0002295 -0.0002836 0.0001758 0.0001131 -0.0006003 0.0022234 0.0029946 -0.0013939 0.0000228 0.0002772 0.0001658 -0.0002159 -0.0004254 0.0009554 -0.0000182 0.0004548 0.0044224 -0.0025433 0.0015718 0.0008887 -0.0001670 0.0003391 -0.0008955 0.0009572 0.0004051 -0.0000501 -0.0002414 0.0001006 0.0000440 0.0003200 -0.0020959 0.0052157 0.0051476 -0.0028554 0.0002254 0.0009919 0.0000674 0.0004481 -0.0008322 0.0010054 0.0000439 0.0002988 0.0001059 -0.0006685 0.0000983 0.0002424 -0.0006121 0.0000637 -0.0011060 0.0008998 -0.0005737 0.0005782 0.0000221 0.0001510 0.0001414 0.0008781 -0.0050834 0.0010830 0.0000278 0.0001305 -0.0027408 0.0036347 -0.0000695 0.0006389 0.0000800 0.0001171 -0.0000224 0.0009572 0.0000920 -0.0002355 -0.0000768 0.0001985 -0.0017558 0.0013236 -0.0000403 0.0000973 -0.0000902 -0.0000127 0.0005972 0.0002692 0.0002758 0.0008839 0.0002316 0.0012092 -0.0000096 0.0004373 -0.0012157 0.0025214 -0.0003548 0.0004530 0.0000638 0.0000464 0.0001296 -0.0001247 -0.0000420 -0.0000306 -0.0080383 0.0039233 -0.0005017 0.0005159 -0.0001896 0.0000521 -0.0000359 0.0002904 -0.0009220 0.0006450 -0.0002220 0.0001300 0.0036465 -0.0068689 -0.0002912 0.0006503 0.0000260 0.0002985 0.0001275 0.0005431 0.0085555 -0.0054493 -0.0000934 0.0004695 0.0001643 0.0002174 0.0003663 -0.0001423 -0.0048563 -0.0005059 0.0000610 0.0000806 0.0006905 0.0004311 0.0000928 0.0003561 0.0001175 0.0002081 -0.0000573 0.0004755 0.0000815 0.0003222 0.0002020 -0.0011398
-0.0000343 0.0004674 -0.0000610 -0.0002314 -0.0001318 -0.0002044 0.0000383 0.0011216 -0.0002156 -0.0001293 -0.0001748 0.0002251 -0.0001466 -0.0003534 0.0001170 0.0009793 0.0000153 0.0002035 -0.0000301 0.0000647 -0.0001324 0.0002335 -0.0000230 -0.0000968 -0.0000559 -0.0001050 -0.0005450 -0.0005428 -0.0001009 0.0008982 0.0000306 -0.0000853 -0.0000633 -0.0000519 -0.0002287 -0.0005647 -0.0002907 0.0003195 0.0005195 0.0006165 -0.0000417 -0.0000704 0.0003473 0.0014010 -0.0002009 -0.0000110 0.0004717 0.0007447 0.0000704 0.0012845 -0.0003913 -0.0000333 -0.0004997 -0.0004099 -0.0003573 0.0003165 -0.0007590 0.0003267 -0.0001299 0.0000962 -0.0002551 0.0006103 0.0004485 -0.0002623 0.0000353 0.0001588 0.0000706 -0.0000286 0.0001586 0.0004567 0.0016515 -0.0034755 0.0095290 -0.0154212 0.0075757 -0.0021757 0.0002411 -0.0002424 0.0000812 0.0002840 0.0019994 -0.0019123 0.0033520 -0.0016833 -0.0000342 0.0004909 0.0002964 -0.0000315 -0.0007525 0.0015684 0.0000505 0.0006962 0.0010463 -0.0029871 -0.0051003 0.0021990 0.0000152 0.0001854 -0.0008309 0.0016444 -0.0001186 0.0004152 -0.0004195 0.0001297 -0.0000712 0.0005279 -0.0124138 0.0080483 0.0000720 0.0017642 0.0003980 0.0008340 -0.0001418 0.0007660 -0.0003819 0.0005525 0.0000379 0.0004225 -0.0001662 -0.0003110 0.0000779 0.0003924 -0.0002970 0.0004930 0.0001288 -0.0000255 -0.0001284 0.0000964 -0.0001167 0.0004460 0.0000977 0.0008893 -0.0028806 0.0033707 -0.0000719 0.0004801 -0.0002565 0.0012127 -0.0001842 0.0008556 0.0000360 0.0003567 0.0000615 0.0010669 0.0000377 0.0001950 0.0000714 0.0003168 -0.0012760 0.0014302 -0.0000157 0.0002594 0.0000369 0.0000371 0.0093758 -0.0097784 0.0002033 0.0009982 0.0001758 0.0014921 -0.0001034 0.0006843 0.0006066 0.0004272 -0.0002432 0.0005522 -0.0000662 0.0002923 -0.0002974 0.0005525 -0.0000114 0.0002618 -0.0051148 0.0047359 -0.0006115 0.0009297 -0.0003190 0.0006752 -0.0001062 0.0004488 0.0004418 -0.0006295 0.0002336 -0.0000273 -0.0011536 -0.0017647 -0.0002713 0.0006633 -0.0000345 0.0005291 0.0001554 0.0004659 0.0071634 -0.0066783 -0.0004199 0.0009140 0.0001364 0.0004182 0.0004263 -0.0004383 -0.0102173 0.0037338 -0.0000008 0.0002928 -0.0000209 0.0006756 0.0000418 0.0005162 0.0000273 0.0003626 -0.0000205 0.0005124 0.0000979 0.0003199 0.0004095 -0.0013247
-0.0000447 0.0005235 -0.0000817 -0.0002008 -0.0001514 -0.0001431 0.0000144 0.0011385 -0.0002381 -0.0001378 -0.0002639 0.0002683 -0.0001694 -0.0003750 0.0000895 0.0010131 0.0000228 0.0000791 -0.0000386 0.0000532 -0.0001286 0.0001134 -0.0000475 -0.0001278 0.0000169 -0.0001859 -0.0006045 -0.0005704 -0.0001210 0.0008391 0.0000171 -0.0001993 -0.0000900 -0.0001446 -0.0003262 -0.0004695 -0.0003094 0.0003305 -0.0006406 0.0017749 -0.0000512 -0.0001281 0.0002966 0.0013453 -0.0000306 -0.0003363 0.0004369 0.0007474 0.0000601 0.0012740 -0.0004034 -0.0000867 -0.0004978 -0.0004058 -0.0003581 0.0002541 -0.0007642 0.0002097 -0.0001603 -0.0000742 -0.0002658 0.0004376 -0.0003780 0.0006164 0.0000351 0.0001822 -0.0000434 0.0000704 -0.0005187 0.0007671 -0.0006406 -0.0023435 0.0073322 -0.0255754 -0.0025183 0.0071177 -0.0001503 -0.0002314 0.0001267 0.0000871 0.0037696 -0.0056919 0.0024427 -0.0013705 -0.0001105 0.0004964 0.0005861 -0.0005014 -0.0009388 0.0017198 0.0001743 0.0004802 -0.0016245 -0.0021352 -0.0252309 0.0163121 0.0001156 -0.0000104 -0.0008220 0.0013254 0.0003311 -0.0000310 -0.0004035 0.0000718 -0.0000388 0.0004401 -0.0054645 0.0070947 -0.0016822 0.0025296 0.0004431 0.0008081 -0.0002737 0.0007577 0.0000606 -0.0003033 0.0000021 0.0004252 -0.0002329 -0.0001827 0.0000600 0.0004199 -0.0004816 0.0007861 0.0012780 -0.0006279 -0.0007282 0.0004812 -0.0001427 0.0003639 0.0000586 0.0008440 -0.0028460 0.0010960 0.0000326 0.0005319 0.0003621 0.0011391 0.0002109 0.0005254 -0.0000236 0.0005462 0.0003690 0.0009075 -0.0002082 0.0004681 0.0000338 0.0005077 0.0004512 0.0002845 -0.0002620 0.0004490 0.0000414 0.0001788 0.0035391 -0.0043818 0.0001413 0.0010584 -0.0002492 0.0016079 -0.0001394 0.0007425 0.0007278 -0.0002302 -0.0001572 0.0005558 -0.0003598 0.0006941 0.0002102 0.0004184 -0.0001579 0.0006043 -0.0044008 0.0033025 -0.0004853 0.0011570 -0.0001504 0.0004534 -0.0002005 0.0005721 0.0007480 -0.0009376 -0.0007751 0.0002766 0.0008379 0.0030228 -0.0003334 0.0007944 -0.0000447 0.0006283 -0.0000223 0.0005549 0.0085204 -0.0129015 -0.0006534 0.0009985 0.0000971 0.0004929 0.0004136 -0.0004487 -0.0108141 0.0035411 -0.0000893 0.0005617 -0.0005186 0.0014513 0.0000022 0.0006200 -0.0000327 0.0004703 0.0000066 0.0005676 0.0001262 0.0003520 0.0004315 -0.0011158
-0.0000843 0.0007527 -0.0001141 -0.0000426 -0.0001699 0.0000499 -0.0000003 0.0012767 -0.0002563 -0.0000639 -0.0003316 0.0003465 -0.0002104 -0.0003173 0.0000807 0.0012050 -0.0000338 0.0001026 -0.0000634 0.0002089 -0.0000192 0.0001277 -0.0000512 0.0000200 -0.0000195 0.0000920 -0.0007007 -0.0005349 -0.0001853 0.0009208 -0.0000163 -0.0003348 -0.0000839 -0.0001118 -0.0003696 -0.0002410 -0.0003172 0.0005855 -0.0008273 0.0023001 -0.0000599 0.0000227 0.0002359 0.0014708 0.0000858 -0.0003145 0.0003887 0.0009296 0.0003065 0.0013657 -0.0004382 -0.0000381 -0.0005051 -0.0003126 -0.0003543 0.0005456 -0.0008067 0.0003247 -0.0002170 0.0001185 -0.0003142 0.0005792 -0.0000460 0.0003662 -0.0000516 0.0005715 -0.0000565 0.0002826 -0.0008135 0.0016903 -0.0021848 -0.0010177 0.0019765 -0.0196783 -0.0116391 0.0108476 -0.0005918 0.0002180 0.0001395 0.0001869 0.0049971 -0.0054273 0.0014013 -0.0011446 -0.0001233 0.0005537 0.0003840 -0.0004345 -0.0005702 0.0014005 0.0000639 0.0005828 -0.0034870 0.0006869 -0.0070117 0.0050601 -0.0002060 0.0002664 0.0000684 0.0003130 0.0004170 -0.0001010 -0.0003091 0.0000817 0.0000337 0.0004657 0.0028111 0.0003950 0.0068117 -0.0132485 0.0002975 0.0007903 -0.0004829 0.0007523 -0.0003441 0.0004436 -0.0000274 0.0003646 -0.0001921 -0.0002409 0.0000706 0.0003134 -0.0007061 0.0007707 0.0001788 0.0010548 -0.0009461 0.0007233 -0.0001881 0.0003599 0.0000465 0.0007354 -0.0022078 -0.0013304 0.0000827 0.0004233 -0.0000311 0.0008298 -0.0000003 0.0005399 -0.0000898 0.0006186 0.0002944 0.0007938 -0.0003034 0.0003571 -0.0001485 0.0005920 -0.0001108 0.0010742 -0.0004765 0.0006732 -0.0000075 0.0002634 -0.0088282 0.0093213 0.0001749 0.0009682 0.0002396 0.0012289 -0.0002023 0.0007617 0.0005185 0.0002813 -0.0002565 0.0006065 -0.0003464 0.0006573 0.0007068 0.0000515 -0.0000389 0.0006167 -0.0020846 0.0009624 -0.0001858 0.0011055 0.0000159 0.0001438 -0.0002154 0.0005035 0.0012300 -0.0011641 0.0009094 -0.0014960 -0.0005887 0.0062609 -0.0003807 0.0011383 -0.0000667 0.0006414 0.0000437 0.0003703 0.0053080 -0.0042886 -0.0006504 0.0009682 0.0000850 0.0003726 -0.0000181 -0.0003182 -0.0015560 0.0053145 -0.0000695 0.0004317 0.0007544 -0.0003196 0.0000175 0.0005458 0.0001117 0.0002967 -0.0000385 0.0005770 0.0001006 0.0003067 0.0003106 -0.0009069
-0.0001320 0.0008720 -0.0001310 0.0000010 -0.0001809 0.0001177 -0.0000166 0.0013526 -0.0002721 -0.0000075 -0.0003722 0.0003615 -0.0002509 -0.0002567 0.0000720 0.0012921 -0.0000901 0.0001319 -0.0000952 0.0002564 -0.0000236 0.0002479 -0.0000629 0.0000867 -0.0000584 0.0002427 -0.0007460 -0.0005778 -0.0002358 0.0009534 -0.0000723 -0.0005013 -0.0001326 0.0000079 -0.0002821 -0.0001977 -0.0003103 0.0008195 -0.0004817 0.0020099 -0.0000330 0.0000832 0.0001870 0.0015072 0.0000319 -0.0001970 0.0003555 0.0010920 0.0004272 0.0013362 -0.0004409 -0.0000392 -0.0004893 -0.0002589 -0.0003756 0.0007172 -0.0008424 0.0004005 -0.0002479 0.0002899 -0.0003517 0.0007114 0.0001214 0.0002873 -0.0001089 0.0008573 0.0000080 0.0003448 -0.0002990 0.0017115 -0.0019531 -0.0013937 -0.0029481 -0.0118657 0.0096528 -0.0273891 -0.0005460 0.0004760 -0.0000842 0.0004155 0.0041005 -0.0033212 0.0000435 0.0002210 -0.0001206 0.0006966 -0.0002340 0.0005438 -0.0001880 0.0014455 -0.0000942 0.0008560 -0.0004689 0.0008976 0.0026976 -0.0046360 -0.0001789 0.0004868 0.0002369 0.0011158 0.0001356 0.0001911 -0.0002626 0.0002474 -0.0000045 0.0006152 -0.0003576 0.0006436 0.0029852 0.0018240 0.0000944 0.0009328 -0.0005495 0.0008704 0.0007180 0.0002561 -0.0000806 0.0005304 -0.0004084 0.0001528 0.0000436 0.0005580 0.0000321 -0.0002349 -0.0005762 0.0017470 -0.0011605 0.0009379 -0.0002644 0.0005753 -0.0000237 0.0008147 0.0010422 0.0001459 -0.0000539 0.0007327 0.0018397 -0.0014743 -0.0001990 0.0009319 -0.0001468 0.0008684 0.0002218 0.0010042 -0.0002990 0.0006620 -0.0002267 0.0007488 0.0007563 -0.0001213 -0.0004105 0.0010630 0.0002178 0.0002210 -0.0003485 0.0006849 0.0001229 0.0009985 0.0005779 0.0012588 -0.0001838 0.0008897 -0.0006107 0.0021078 -0.0002289 0.0007294 -0.0003420 0.0006910 0.0001445 0.0004647 0.0000610 0.0007454 -0.0014188 0.0014165 0.0000814 0.0008962 -0.0000425 0.0004724 -0.0001231 0.0004086 0.0004314 -0.0001272 -0.0005563 0.0018073 -0.0005702 0.0029296 -0.0004268 0.0011581 -0.0000752 0.0006622 -0.0003561 0.0008765 0.0031286 -0.0000450 -0.0001537 0.0009108 0.0001178 0.0003752 -0.0000216 -0.0000294 0.0026526 0.0007658 -0.0000018 0.0003262 0.0000080 0.0005529 -0.0000202 0.0005229 -0.0000258 0.0003735 -0.0000627 0.0005698 0.0000718 0.0002178 0.0002309 -0.0008727
-0.0001552 0.0008167 -0.0001329 -0.0000680 -0.0001688 0.0000578 -0.0000476 0.0013197 -0.0002791 0.0000025 -0.0004306 0.0003587 -0.0002482 -0.0002983 0.0000585 0.0012431 -0.0001066 0.0000951 -0.0000816 0.0001553 0.0000878 0.0001136 -0.0001035 -0.0000074 -0.0000895 0.0001681 -0.0007402 -0.0007428 -0.0002164 0.0008807 -0.0001299 -0.0005995 -0.0002058 0.0001638 -0.0003626 -0.0002090 -0.0003025 0.0009750 -0.0007378 0.0018582 -0.0000195 -0.0000394 0.0001010 0.0013952 0.0002046 -0.0004521 0.0003358 0.0010581 0.0001472 0.0013197 -0.0004348 -0.0001156 -0.0004763 -0.0002969 -0.0004097 0.0005134 -0.0008592 0.0002692 -0.0002780 0.0001413 -0.0003644 0.0005404 -0.0000340 0.0003886 -0.0000559 0.0007827 0.0000033 0.0002481 -0.0004164 0.0010593 -0.0015054 -0.0012103 -0.0108737 0.0049350 0.0129385 -0.0370981 -0.0002270 0.0002435 -0.0001355 0.0003268 0.0042259 -0.0035353 0.0003544 0.0006264 -0.0001483 0.0007138 -0.0005367 0.0007640 0.0002509 0.0009568 -0.0000665 0.0007495 0.0019074 -0.0011813 0.0040148 -0.0052565 -0.0003746 0.0008113 -0.0006826 0.0024214 -0.0000784 0.0003329 -0.0002168 0.0002042 -0.0001056 0.0006392 0.0065131 -0.0104170 -0.0022928 0.0170057 0.0002288 0.0009370 -0.0004081 0.0007581 0.0010350 0.0000408 -0.0001216 0.0005656 -0.0002326 0.0002615 0.0001365 0.0006124 0.0003914 -0.0001665 -0.0011870 0.0028576 -0.0009484 0.0006611 -0.0001396 0.0004341 -0.0001047 0.0007954 -0.0028251 0.0021759 -0.0002508 0.0009802 -0.0010870 0.0024040 -0.0002605 0.0013151 -0.0002474 0.0010148 0.0003154 0.0009464 -0.0002450 0.0007596 -0.0001061 0.0007160 0.0011437 -0.0008073 -0.0007183 0.0016300 0.0000128 0.0006330 0.0065434 -0.0108571 0.0000834 0.0010069 -0.0001478 0.0016727 -0.0001497 0.0009307 -0.0008932 0.0013989 -0.0001162 0.0007229 -0.0003090 0.0007428 -0.0002734 0.0012064 -0.0000819 0.0011107 -0.0012544 0.0002467 -0.0001752 0.0008394 0.0000222 0.0006048 -0.0001950 0.0005061 -0.0004793 0.0005685 -0.0028318 0.0041588 -0.0026304 0.0057274 -0.0001796 0.0007812 -0.0000440 0.0006413 -0.0003617 0.0011270 -0.0003406 0.0015266 0.0000236 0.0008595 0.0001539 0.0004251 -0.0005319 0.0007170 0.0050577 -0.0125234 0.0000339 0.0003573 -0.0009894 0.0010463 -0.0000362 0.0005207 -0.0000649 0.0003853 -0.0001025 0.0006645 0.0001072 0.0002469 0.0001576 -0.0007480
-0.0001770 0.0009819 -0.0001218 0.0000840 -0.0001846 0.0002592 -0.0000683 0.0013761 -0.0002907 0.0000895 -0.0004652 0.0004370 -0.0002646 -0.0002073 0.0000391 0.0012987 -0.0001268 0.0001966 -0.0000866 0.0002893 -0.0000456 0.0003296 -0.0001008 0.0001262 -0.0001304 0.0003495 -0.0007773 -0.0007941 -0.0002367 0.0009225 -0.0001652 -0.0006756 -0.0002373 0.0003533 -0.0004508 -0.0000988 -0.0003092 0.0011441 -0.0009733 0.0017629 -0.0000448 -0.0000281 0.0001341 0.0013212 0.0003923 -0.0006805 0.0002939 0.0010145 0.0004201 0.0010419 -0.0004616 -0.0001567 -0.0004866 -0.0003155 -0.0004360 0.0003525 -0.0008791 0.0001589 -0.0003016 -0.0000054 -0.0003724 0.0003538 0.0001991 0.0002043 -0.0000092 0.0007724 -0.0000623 0.0003406 -0.0004083 0.0012744 -0.0026288 0.0002889 -0.0133367 0.0037960 -0.0037233 -0.0139429 0.0000718 -0.0002267 0.0001028 -0.0000345 -0.0000884 -0.0013741 -0.0003049 0.0012220 -0.0001476 0.0005197 -0.0004297 0.0002684 0.0000063 0.0010021 -0.0000978 0.0005808 0.0046388 -0.0045901 0.0039425 -0.0036989 -0.0002247 0.0006413 -0.0009522 0.0020830 -0.0000477 0.0001266 -0.0002195 0.0000493 -0.0000906 0.0004360 0.0116452 -0.0237564 -0.0031596 0.0175619 0.0003037 0.0006782 -0.0003692 0.0005666 0.0006569 -0.0004382 -0.0001051 0.0003175 -0.0000540 -0.0000642 0.0001831 0.0004248 -0.0004038 0.0004194 -0.0008378 0.0025189 -0.0002018 -0.0002584 -0.0000668 0.0002097 -0.0000078 0.0004795 0.0053258 -0.0137019 -0.0002303 0.0007497 -0.0040920 0.0050673 -0.0005548 0.0014625 -0.0002900 0.0008868 0.0001673 0.0007893 -0.0000371 0.0004026 -0.0000005 0.0004234 -0.0001302 0.0012103 -0.0008196 0.0015636 -0.0002939 0.0009356 -0.0019218 -0.0009842 0.0001003 0.0008733 -0.0005669 0.0015653 -0.0001371 0.0007612 -0.0010366 0.0007266 -0.0001921 0.0005791 -0.0002004 0.0005842 -0.0000742 0.0012121 -0.0000902 0.0011309 -0.0020207 0.0023380 -0.0002906 0.0009993 -0.0003821 0.0009657 -0.0002043 0.0004837 -0.0000295 0.0001809 -0.0007294 0.0009599 -0.0024558 0.0047567 -0.0001537 0.0008101 -0.0000470 0.0005034 -0.0000314 0.0006080 -0.0034103 0.0078312 -0.0003834 0.0010167 0.0000582 0.0004124 -0.0005883 0.0003815 0.0078971 -0.0132544 0.0000813 0.0002106 -0.0018267 0.0019143 0.0000388 0.0002797 0.0002744 0.0000030 -0.0001378 0.0006658 0.0001011 0.0001873 0.0001701 -0.0009387
-0.0001905 0.0010118 -0.0001040 0.0001044 -0.0002075 0.0003105 -0.0000904 0.0013149 -0.0003077 0.0000027 -0.0004580 0.0003747 -0.0002624 -0.0002324 0.0000082 0.0012150 -0.0001521 0.0001543 -0.0000712 0.0003124 -0.0001573 0.0005040 -0.0001003 0.0002145 -0.0000858 0.0003764 -0.0008113 -0.0008433 -0.0002816 0.0009003 -0.0001756 -0.0007417 -0.0002434 0.0003700 -0.0004761 0.0000271 -0.0003191 0.0011453 -0.0011597 0.0020369 -0.0000711 0.0000355 0.0001548 0.0013241 -0.0001424 -0.0003022 0.0002568 0.0009713 0.0005018 0.0008955 -0.0005048 -0.0001624 -0.0004989 -0.0003018 -0.0004562 0.0004401 -0.0009006 0.0001517 -0.0003048 0.0000368 -0.0003821 0.0003678 -0.0000488 0.0005233 -0.0000175 0.0008959 -0.0001344 0.0004692 -0.0007987 0.0021742 -0.0016148 -0.0008935 -0.0084512 0.0008880 0.0013200 -0.0122064 0.0001665 -0.0002607 0.0001311 -0.0000421 -0.0010514 -0.0014207 -0.0006229 0.0018796 -0.0001847 0.0006175 -0.0003684 0.0000411 -0.0004630 0.0014183 -0.0001908 0.0007398 -0.0000094 -0.0005887 0.0037133 -0.0018179 -0.0000298 0.0007337 -0.0003872 0.0010324 -0.0001484 0.0002559 -0.0001568 0.0000610 -0.0000898 0.0004240 -0.0082847 -0.0119918 0.0020066 0.0103925 0.0002627 0.0006545 -0.0005075 0.0005756 0.0005045 -0.0006849 -0.0000703 0.0002455 -0.0002609 0.0001312 0.0001183 0.0005649 -0.0006944 0.0011248 -0.0000837 0.0015049 -0.0005568 -0.0000780 -0.0001372 0.0001651 0.0000685 0.0003868 0.0033599 -0.0021725 -0.0001720 0.0006339 -0.0037371 0.0035496 -0.0004192 0.0014444 -0.0003392 0.0008542 0.0002201 0.0005983 0.0000212 0.0001803 -0.0000983 0.0003305 0.0006202 0.0002985 -0.0005188 0.0011845 -0.0000628 0.0007881 -0.0081874 0.0091232 0.0000476 0.0007574 0.0005825 0.0005635 -0.0001169 0.0006704 -0.0012116 0.0016803 -0.0002164 0.0004101 -0.0000950 0.0003835 -0.0002956 0.0014384 -0.0001093 0.0010768 -0.0016365 0.0020185 -0.0004529 0.0015118 -0.0000385 0.0005402 -0.0001231 0.0003389 -0.0004974 -0.0004111 -0.0003010 0.0004361 0.0029682 -0.0027164 -0.0003327 0.0009320 -0.0000481 0.0002979 -0.0002709 0.0005911 0.0011899 0.0006976 -0.0006036 0.0011201 -0.0000060 0.0002490 0.0003419 -0.0010696 0.0038348 0.0012164 0.0000984 -0.0000446 -0.0017587 0.0023297 0.0000708 0.0000437 0.0002290 -0.0001542 -0.0000899 0.0004883 0.0000817 -0.0000446 0.0003269 -0.0012854
-0.0002027 0.0007473 -0.0001057 -0.0001053 -0.0002064 0.0000440 -0.0001210 0.0011367 -0.0003320 -0.0002401 -0.0004958 0.0001782 -0.0002365 -0.0004556 0.0000044 0.0009542 -0.0001489 -0.0000849 -0.0000746 0.0001402 -0.0001620 0.0003668 -0.0000953 0.0000084 -0.0000616 0.0003183 -0.0008233 -0.0010197 -0.0002865 0.0007287 -0.0001726 -0.0008301 -0.0001953 0.0001567 -0.0004477 -0.0001858 -0.0003364 0.0009991 -0.0010242 0.0018835 -0.0000470 -0.0000932 0.0001109 0.0012312 -0.0003456 -0.0000750 0.0002322 0.0008707 -0.0002408 0.0012305 -0.0005244 -0.0002127 -0.0005028 -0.0003346 -0.0004798 0.0004233 -0.0009217 0.0001090 -0.0003046 -0.0000126 -0.0003834 0.0002812 -0.0001906 0.0005957 -0.0000691 0.0009138 -0.0000674 0.0002479 -0.0007011 0.0017405 0.0016085 -0.0034782 -0.0072053 0.0119926 0.0077149 -0.0157245 0.0000229 -0.0001797 -0.0000208 0.0000147 0.0040435 -0.0012645 0.0010859 0.0007346 -0.0002134 0.0006269 -0.0010409 0.0007540 -0.0000311 0.0008388 -0.0000781 0.0005550 -0.0063088 0.0055591 0.0037012 -0.0028862 -0.0000622 0.0008749 -0.0011853 0.0015642 0.0001456 0.0000247 -0.0001306 0.0000105 -0.0000294 0.0003334 -0.0164989 0.0100285 0.0026624 0.0002204 0.0002431 0.0006206 -0.0005773 0.0006324 -0.0001725 -0.0000992 -0.0001274 0.0002648 -0.0001043 0.0000628 0.0001888 0.0006883 -0.0001241 0.0009047 -0.0003087 0.0013537 -0.0007444 0.0001343 -0.0002360 0.0001508 -0.0000506 0.0003976 0.0071812 -0.0016837 -0.0001654 0.0006369 -0.0033684 0.0021639 0.0000627 0.0008931 -0.0003348 0.0008819 0.0002402 0.0005245 -0.0002726 0.0005647 -0.0000068 0.0002212 0.0009034 -0.0005000 -0.0002530 0.0010631 0.0000684 0.0007650 -0.0000630 0.0051303 -0.0000588 0.0007749 -0.0000147 0.0011807 -0.0001351 0.0006827 0.0001475 0.0006728 -0.0000854 0.0003752 -0.0001445 0.0004362 -0.0002454 0.0015973 -0.0001281 0.0011463 0.0022670 -0.0019964 -0.0006059 0.0016127 0.0002021 0.0002814 -0.0001705 0.0003902 -0.0011706 0.0001195 -0.0013632 0.0030213 0.0050447 -0.0025855 -0.0005199 0.0009376 -0.0001092 0.0003095 -0.0003538 0.0008202 0.0019454 -0.0047538 -0.0002638 0.0006183 0.0000041 0.0002304 0.0006063 -0.0007114 -0.0044299 0.0114173 0.0000302 0.0000132 -0.0005923 0.0015474 0.0000316 0.0000396 0.0000028 0.0000278 -0.0001123 0.0004482 0.0001098 -0.0001725 0.0003565 -0.0012661
-0.0002198 0.0006452 -0.0001260 -0.0001565 -0.0002328 -0.0000299 -0.0001389 0.0010296 -0.0003459 -0.0003393 -0.0005262 0.0000867 -0.0002683 -0.0005003 0.0000094 0.0007831 -0.0001218 -0.0002294 -0.0001126 0.0000787 -0.0001563 0.0002298 -0.0000785 -0.0001208 -0.0001256 0.0003482 -0.0008363 -0.0011066 -0.0003037 0.0006393 -0.0001791 -0.0009032 -0.0002582 0.0000449 -0.0004232 -0.0002699 -0.0003646 0.0009214 -0.0009024 0.0012052 -0.0000070 -0.0002605 0.0001346 0.0009211 -0.0000988 -0.0003730 0.0002229 0.0007406 -0.0002837 0.0009930 -0.0005199 -0.0003403 -0.0005006 -0.0003891 -0.0004891 0.0001911 -0.0009305 -0.0000242 -0.0002710 -0.0003035 -0.0003728 0.0000348 0.0001048 0.0000247 -0.0000813 0.0007861 0.0000117 0.0000378 -0.0008549 0.0015958 0.0010580 -0.0031070 -0.0053293 0.0059065 -0.0032244 0.0052806 0.0001461 -0.0004542 -0.0002689 -0.0000144 0.0056472 -0.0014056 0.0024097 -0.0005372 -0.0001855 0.0003534 -0.0015348 0.0010350 0.0004449 0.0003320 0.0000651 0.0001624 -0.0033089 0.0053920 -0.0033152 0.0032149 -0.0000743 0.0007189 -0.0022391 0.0025105 0.0002254 -0.0000975 -0.0003364 -0.0001340 0.0000439 0.0000973 -0.0092032 0.0080245 -0.0037766 0.0065389 0.0003318 0.0003036 -0.0005700 0.0005404 -0.0004687 0.0001143 -0.0001256 0.0000707 -0.0002217 -0.0000605 0.0001717 0.0006595 0.0001463 0.0003381 -0.0003602 0.0016285 -0.0000209 -0.0004698 -0.0002910 0.0000470 -0.0001356 0.0002557 0.0101889 -0.0114874 -0.0000278 0.0004194 -0.0021706 0.0018490 0.0001084 0.0005772 -0.0002569 0.0007036 -0.0000962 0.0007441 -0.0003351 0.0007164 0.0001207 0.0000607 -0.0006817 0.0008512 -0.0002057 0.0010670 0.0000132 0.0007209 0.0026935 0.0000219 -0.0000355 0.0006412 -0.0003264 0.0011289 -0.0001971 0.0005988 -0.0004754 0.0007031 -0.0001350 0.0002769 -0.0002816 0.0005472 -0.0001044 0.0013014 -0.0000427 0.0009361 -0.0018979 0.0021354 -0.0001496 0.0012008 -0.0000708 0.0004062 -0.0001181 0.0002894 -0.0007208 0.0002988 -0.0008918 0.0018697 0.0037860 -0.0022155 -0.0005361 0.0008309 -0.0000941 0.0001508 -0.0004033 0.0007033 -0.0098498 0.0086979 -0.0001338 0.0003771 0.0000138 0.0002100 0.0003793 -0.0001853 -0.0032446 0.0085490 -0.0000959 0.0001192 -0.0028271 0.0039742 0.0000228 -0.0000518 0.0000347 -0.0000757 -0.0001380 0.0004438 0.0001470 -0.0002408 0.0002320 -0.0011959
-0.0002341 0.0006732 -0.0001410 -0.0000921 -0.0002329 0.0000124 -0.0001654 0.0009710 -0.0003706 -0.0003822 -0.0005197 -0.0000328 -0.0002899 -0.0005027 0.0000073 0.0007846 -0.0001194 -0.0002835 -0.0001088 0.0001002 -0.0000935 0.0002796 -0.0001020 -0.0000074 -0.0001558 0.0003797 -0.0008536 -0.0010547 -0.0003161 0.0006601 -0.0001966 -0.0009088 -0.0002784 0.0000771 -0.0002933 -0.0002634 -0.0003692 0.0010072 -0.0003105 0.0006585 -0.0000306 -0.0001521 0.0000215 0.0010806 -0.0000270 -0.0004572 0.0001863 0.0008035 -0.0003076 0.0011662 -0.0005475 -0.0003171 -0.0005261 -0.0003603 -0.0004912 0.0003752 -0.0009659 0.0000552 -0.0002657 -0.0002253 -0.0003491 0.0001520 -0.0003909 0.0004273 -0.0000372 0.0007770 0.0000414 0.0001589 -0.0009229 0.0017238 -0.0018740 -0.0010503 0.0002577 0.0001805 -0.0057543 0.0023812 -0.0001308 -0.0001802 -0.0002356 -0.0000407 0.0052283 -0.0033389 0.0020490 -0.0011258 -0.0001663 0.0002730 -0.0001304 -0.0001713 -0.0002037 0.0008330 0.0000334 0.0000723 -0.0026374 0.0026230 -0.0056069 0.0049367 -0.0000245 0.0007517 -0.0021207 0.0028516 -0.0002043 0.0001647 -0.0005748 -0.0000509 -0.0000194 0.0000336 -0.0038181 0.0057945 -0.0029145 0.0118900 0.0002428 0.0002477 -0.0005584 0.0004431 -0.0001720 0.0002536 -0.0000883 -0.0000962 -0.0005231 0.0001240 0.0000350 0.0008098 0.0001901 0.0000319 -0.0006025 0.0022050 -0.0003303 -0.0003665 -0.0004058 0.0000514 -0.0001904 0.0001766 0.0009966 -0.0008037 -0.0000639 0.0002245 -0.0041848 0.0048744 -0.0001580 0.0007908 -0.0002550 0.0004933 -0.0000970 0.0005059 -0.0002590 0.0003186 0.0000265 -0.0000041 -0.0009401 0.0012636 -0.0002210 0.0010465 -0.0001366 0.0008423 0.0075870 -0.0071360 0.0000906 0.0003423 0.0002920 0.0004336 -0.0001403 0.0004140 -0.0020163 0.0013828 -0.0000922 -0.0000578 -0.0002533 0.0004255 -0.0004158 0.0014849 -0.0000318 0.0007003 -0.0054478 0.0050150 -0.0001800 0.0011200 0.0000607 0.0000453 -0.0000979 0.0001840 -0.0002176 -0.0002079 0.0006071 -0.0026505 -0.0011359 0.0018838 -0.0005375 0.0005580 -0.0000720 -0.0000878 -0.0001575 0.0001149 -0.0091504 0.0084927 -0.0004273 0.0005762 0.0001092 -0.0000299 -0.0003816 0.0001519 0.0079027 -0.0082331 -0.0001255 -0.0001139 -0.0011998 0.0021967 0.0000231 -0.0002553 0.0000744 -0.0002966 -0.0001863 0.0003961 0.0001592 -0.0004018 0.0001957 -0.0013755
-0.0002569 0.0005688 -0.0001485 -0.0001351 -0.0001910 -0.0001105 -0.0001980 0.0008907 -0.0003798 -0.0004585 -0.0005644 -0.0001444 -0.0002666 -0.0006084 0.0000089 0.0006830 -0.0001419 -0.0003376 -0.0000834 0.0000504 -0.0000976 0.0001709 -0.0001127 -0.0000155 -0.0002016 0.0004129 -0.0008574 -0.0010685 -0.0003098 0.0006261 -0.0001965 -0.0009268 -0.0000911 -0.0001620 -0.0003137 -0.0002850 -0.0003546 0.0009477 -0.0001330 0.0008339 -0.0000235 -0.0001575 -0.0000108 0.0011598 -0.0001074 -0.0003044 0.0001587 0.0007871 -0.0007435 0.0014595 -0.0005412 -0.0003212 -0.0005450 -0.0003372 -0.0005173 0.0004670 -0.0009655 0.0000836 -0.0002468 -0.0001867 -0.0003145 0.0002031 -0.0001418 0.0003004 -0.0000770 0.0007588 0.0000880 0.0000348 -0.0002102 0.0016107 0.0002105 -0.0024869 -0.0009004 0.0018291 -0.0026031 -0.0062029 -0.0001053 -0.0002033 0.0001945 -0.0004129 0.0018128 -0.0019355 0.0007443 -0.0002866 -0.0001295 0.0002689 0.0009053 -0.0008286 -0.0002158 0.0003362 -0.0000769 0.0001067 -0.0004896 -0.0010035 -0.0012946 0.0010209 -0.0001078 0.0010427 -0.0016676 0.0022212 -0.0001357 0.0000750 -0.0005924 -0.0000043 -0.0000175 -0.0000146 0.0009677 -0.0006207 0.0078808 -0.0060202 -0.0000303 0.0006229 -0.0002248 0.0001516 -0.0002352 0.0007070 -0.0000929 -0.0000728 -0.0002276 -0.0000832 0.0000726 0.0009223 -0.0007023 0.0010141 -0.0011449 0.0025286 -0.0009493 0.0001452 -0.0003795 0.0000841 -0.0000933 0.0000275 0.0032381 0.0013244 -0.0001389 0.0004350 -0.0050028 0.0044946 -0.0000670 0.0007220 -0.0002191 0.0005242 0.0002406 0.0002607 0.0000106 0.0001116 0.0000768 -0.0000772 -0.0005549 0.0007583 -0.0002381 0.0011592 -0.0002311 0.0010196 0.0086674 -0.0084152 0.0000815 0.0003470 0.0003512 0.0006004 -0.0000950 0.0003935 -0.0004533 0.0001066 -0.0000302 -0.0000253 -0.0002333 0.0004212 0.0002174 0.0011184 -0.0000750 0.0007193 -0.0065561 0.0058533 -0.0004361 0.0008149 0.0001378 -0.0001640 -0.0001240 0.0002125 0.0001317 -0.0007179 -0.0002431 -0.0013818 0.0021751 -0.0033435 -0.0001464 0.0001908 -0.0000306 -0.0001531 0.0001701 -0.0000698 -0.0075663 0.0077071 -0.0005364 0.0006691 0.0001592 -0.0001064 -0.0009310 0.0008158 0.0148206 -0.0297922 0.0000065 -0.0004153 0.0021374 -0.0018087 0.0000378 -0.0003643 0.0001521 -0.0003478 -0.0001649 0.0003068 0.0001709 -0.0005507 0.0002746 -0.0016031
-0.0002752 0.0003956 -0.0001583 -0.0002395 -0.0001987 -0.0002512 -0.0002075 0.0007711 -0.0003660 -0.0004947 -0.0005752 -0.0002536 -0.0002600 -0.0006970 0.0000094 0.0005039 -0.0001549 -0.0004148 -0.0000905 -0.0000639 -0.0001217 0.0000496 -0.0000892 -0.0002116 -0.0001291 0.0002711 -0.0008429 -0.0011594 -0.0002927 0.0005002 -0.0001886 -0.0009607 -0.0000972 -0.0003384 -0.0004481 -0.0004237 -0.0003722 0.0007903 -0.0001338 0.0002918 -0.0000278 -0.0003166 0.0001269 0.0008122 -0.0001708 -0.0002122 0.0001578 0.0006352 -0.0005310 0.0008957 -0.0005096 -0.0004285 -0.0005425 -0.0003536 -0.0005328 0.0002279 -0.0009686 -0.0000190 -0.0002185 -0.0004363 -0.0003276 0.0000498 0.0002430 -0.0001982 -0.0001000 0.0006196 0.0000766 -0.0002946 0.0001983 0.0011516 0.0004256 -0.0023240 -0.0021875 -0.0001604 -0.0027302 0.0063837 -0.0001020 -0.0005590 0.0002101 -0.0005631 -0.0026542 0.0011337 0.0001201 0.0002079 -0.0001281 0.0001603 0.0006195 -0.0012285 0.0000360 -0.0001877 -0.0000211 -0.0000836 0.0012348 -0.0012632 -0.0061023 0.0056612 -0.0002482 0.0010415 0.0004764 -0.0000131 -0.0002994 0.0002052 -0.0005273 -0.0002311 -0.0001038 -0.0000758 -0.0018664 0.0046697 0.0124802 -0.0202564 0.0002462 0.0005109 0.0000714 -0.0001349 -0.0001832 0.0002481 -0.0000655 -0.0001390 -0.0000280 -0.0003081 0.0001400 0.0008169 -0.0003327 0.0018075 -0.0006086 0.0016097 -0.0004734 -0.0002257 -0.0002086 -0.0001269 0.0000251 -0.0000855 -0.0023643 0.0007489 -0.0000548 0.0003881 -0.0007804 -0.0001706 -0.0000158 0.0006386 -0.0001242 0.0004138 0.0002396 0.0002788 -0.0001049 0.0002514 0.0001468 -0.0002617 -0.0012764 0.0006709 -0.0006714 0.0015313 -0.0000953 0.0008275 0.0070346 -0.0053179 0.0000466 0.0002521 0.0002419 0.0005919 -0.0001374 0.0003592 -0.0001076 0.0007086 -0.0001708 0.0000799 -0.0002923 0.0004736 -0.0000073 0.0013322 -0.0002132 0.0007778 -0.0050821 0.0063412 -0.0006650 0.0008970 0.0002947 -0.0003840 -0.0000968 0.0001465 0.0000638 -0.0014050 -0.0025928 0.0016007 0.0010444 -0.0076254 -0.0000907 0.0003039 0.0000657 -0.0002775 0.0000310 0.0002913 -0.0012357 0.0014127 -0.0002248 0.0003040 0.0001329 -0.0001766 -0.0005422 0.0000284 0.0021028 -0.0060098 0.0000588 -0.0004096 0.0020033 -0.0016910 0.0000636 -0.0003646 0.0001459 -0.0004128 -0.0001347 0.0003283 0.0001819 -0.0005223 0.0001235 -0.0016922
-0.0002878 0.0004537 -0.0001457 -0.0001694 -0.0002150 -0.0001479 -0.0002334 0.0007838 -0.0003941 -0.0004359 -0.0005413 -0.0002964 -0.0002324 -0.0006870 0.0000134 0.0006118 -0.0001563 -0.0004426 -0.0001436 0.0000414 -0.0002318 0.0002703 -0.0000900 -0.0001084 0.0000267 0.0001884 -0.0008639 -0.0011403 -0.0003020 0.0005122 -0.0001990 -0.0010069 -0.0001838 -0.0002095 -0.0003560 -0.0004919 -0.0003651 0.0008445 -0.0002277 0.0003633 -0.0000337 -0.0002463 0.0000747 0.0008529 -0.0004237 0.0000781 0.0001529 0.0006691 -0.0002575 0.0005630 -0.0005429 -0.0004035 -0.0005566 -0.0003488 -0.0005229 0.0002334 -0.0009999 0.0000011 -0.0002320 -0.0004442 -0.0003362 0.0000789 -0.0000233 0.0000993 -0.0000311 0.0005546 -0.0001287 -0.0001658 -0.0001926 0.0003149 -0.0012686 -0.0009851 0.0067886 -0.0054791 -0.0071419 0.0112682 -0.0003280 -0.0004088 -0.0001474 -0.0003226 -0.0009531 0.0000007 0.0004891 -0.0004009 -0.0001227 0.0000256 0.0001529 -0.0011662 -0.0004752 0.0004888 0.0000874 -0.0003898 0.0004145 -0.0015670 -0.0023677 0.0013255 -0.0001836 0.0008290 0.0012877 0.0001791 0.0000076 -0.0003372 -0.0000508 -0.0006313 -0.0000753 -0.0002469 -0.0014651 0.0018549 0.0129597 -0.0090629 -0.0000256 0.0004630 -0.0002771 0.0000913 -0.0006030 -0.0000255 -0.0000255 -0.0002724 -0.0002182 -0.0003559 0.0001705 0.0006800 0.0004671 0.0009965 0.0005944 0.0006179 -0.0003652 -0.0004098 -0.0001742 -0.0003288 -0.0001105 -0.0000677 -0.0050574 0.0045016 0.0000426 0.0000313 -0.0012915 0.0015922 -0.0004038 0.0006526 -0.0000117 0.0001613 0.0002372 -0.0000592 -0.0001898 0.0001165 0.0000314 -0.0003133 -0.0006118 0.0011265 -0.0007256 0.0015021 0.0000135 0.0005674 0.0071236 -0.0066674 0.0000651 0.0000558 -0.0005194 0.0011162 -0.0001528 0.0001930 0.0001036 0.0003722 -0.0001553 -0.0002329 -0.0001850 0.0002605 -0.0003950 0.0012825 -0.0002533 0.0006192 0.0014796 -0.0008442 -0.0009434 0.0010623 0.0004106 -0.0004908 -0.0000869 0.0000450 -0.0000290 -0.0014920 -0.0001167 -0.0012367 0.0023065 -0.0069724 -0.0000175 -0.0000181 0.0000277 -0.0004104 -0.0000805 0.0001380 0.0087802 -0.0157016 0.0000106 -0.0000643 0.0000873 -0.0002929 -0.0007800 -0.0002147 -0.0106898 0.0178925 -0.0000424 -0.0003246 0.0020131 -0.0025122 0.0000613 -0.0004770 0.0000531 -0.0004319 -0.0001244 0.0002788 0.0001534 -0.0005103 0.0001683 -0.0015478
-0.0003009 0.0004212 -0.0001501 -0.0001790 -0.0001981 -0.0001572 -0.0002511 0.0007717 -0.0004064 -0.0004673 -0.0005263 -0.0004064 -0.0002191 -0.0007298 0.0000158 0.0006155 -0.0001700 -0.0005066 -0.0000928 0.0000381 -0.0002568 0.0002829 -0.0001307 -0.0000084 0.0000050 0.0002383 -0.0009208 -0.0010910 -0.0003323 0.0005003 -0.0001859 -0.0011177 -0.0002674 -0.0000487 -0.0004150 -0.0003303 -0.0003501 0.0007791 -0.0003911 0.0008714 -0.0000197 -0.0001857 0.0000226 0.0008714 -0.0002608 0.0000330 0.0001302 0.0006539 -0.0002705 0.0004532 -0.0005618 -0.0003388 -0.0005558 -0.0003038 -0.0005104 0.0003592 -0.0010133 0.0000981 -0.0002170 -0.0003243 -0.0003088 0.0002236 -0.0003234 0.0004569 -0.0000279 0.0005514 -0.0000950 -0.0001135 -0.0009604 0.0011882 -0.0016184 -0.0010944 0.0044726 -0.0068799 -0.0370717 0.0360484 0.0001740 -0.0005576 -0.0001915 -0.0000987 0.0043379 -0.0022791 0.0011316 -0.0005122 -0.0001200 0.0001240 -0.0002109 -0.0005146 -0.0004913 0.0004054 0.0001139 -0.0003136 -0.0011254 -0.0006805 0.0024490 -0.0000860 -0.0000777 0.0008060 -0.0003470 0.0021265 0.0003507 -0.0005916 0.0001510 -0.0006905 -0.0000072 -0.0002045 0.0094334 -0.0155450 0.0076072 0.0003003 -0.0003210 0.0007018 -0.0005193 0.0004028 -0.0009082 0.0006120 -0.0000191 -0.0001454 -0.0001147 -0.0002086 0.0001496 0.0008253 -0.0013782 0.0010225 -0.0007567 0.0018356 -0.0006069 -0.0000761 -0.0001676 -0.0002236 0.0000238 -0.0001455 -0.0028788 0.0038696 0.0000936 0.0002042 -0.0016913 0.0030120 -0.0005171 0.0006771 -0.0000898 0.0003271 0.0000176 0.0001376 -0.0000630 0.0000740 -0.0000640 -0.0000381 0.0002169 0.0008441 -0.0003291 0.0013119 -0.0002659 0.0009746 0.0113500 -0.0134868 0.0000740 0.0001234 -0.0004745 0.0009057 -0.0001217 0.0001947 0.0007053 -0.0009288 0.0000417 -0.0004900 -0.0001205 0.0001750 -0.0000039 0.0009291 -0.0001629 0.0004449 0.0061841 -0.0085839 -0.0002975 0.0005604 0.0000152 -0.0001482 -0.0001490 0.0000884 0.0001979 -0.0018197 -0.0012070 0.0001123 0.0020126 -0.0021775 0.0004044 -0.0006700 0.0000100 -0.0004737 -0.0002690 0.0000915 0.0029282 -0.0073773 -0.0002820 0.0001993 0.0000992 -0.0003328 -0.0008081 -0.0001897 -0.0052099 0.0156369 -0.0000196 -0.0003800 0.0014456 -0.0022358 0.0000728 -0.0005441 0.0001588 -0.0004994 -0.0001852 0.0002344 0.0001302 -0.0005541 0.0002963 -0.0011563
-0.0003067 0.0002405 -0.0001676 -0.0003004 -0.0001996 -0.0002981 -0.0002452 0.0006959 -0.0004054 -0.0005687 -0.0005416 -0.0005429 -0.0002615 -0.0008263 0.0000195 0.0004676 -0.0001774 -0.0005842 -0.0000403 -0.0001094 -0.0002179 0.0001687 -0.0001528 -0.0001573 -0.0000665 0.0001946 -0.0009687 -0.0011312 -0.0003450 0.0004187 -0.0001350 -0.0013109 -0.0004216 0.0000100 -0.0004732 -0.0004489 -0.0003671 0.0005808 0.0000216 0.0004564 -0.0000139 -0.0003021 -0.0000135 0.0007152 0.0002385 -0.0003404 0.0000938 0.0004994 -0.0004594 0.0006117 -0.0005338 -0.0003454 -0.0005355 -0.0002532 -0.0005220 0.0003239 -0.0010101 0.0001768 -0.0002047 -0.0003797 -0.0002872 0.0002554 -0.0004766 0.0005394 -0.0000839 0.0004823 0.0000820 -0.0003201 -0.0010025 0.0023945 -0.0022893 -0.0002689 -0.0170637 0.0137779 -0.0098026 0.0083043 0.0005236 -0.0009806 -0.0001058 -0.0001165 0.0007963 0.0020947 0.0016344 -0.0016056 -0.0001124 0.0001334 -0.0004670 -0.0002341 -0.0003282 0.0002053 -0.0000351 -0.0002241 -0.0071069 0.0078501 0.0018415 0.0007277 -0.0000808 0.0008304 -0.0005004 0.0021452 -0.0000576 -0.0001765 -0.0001449 -0.0004934 0.0000101 -0.0001938 0.0143926 -0.0224923 -0.0118481 0.0091306 -0.0002415 0.0007547 -0.0002936 0.0003619 0.0000101 -0.0004046 -0.0000147 -0.0001141 -0.0001884 0.0000346 0.0001368 0.0008031 -0.0020585 0.0013782 -0.0019215 0.0026737 -0.0004022 -0.0002711 -0.0002437 -0.0001852 0.0001249 -0.0001659 -0.0054237 0.0029142 -0.0000514 0.0003907 -0.0008447 0.0018467 -0.0001075 0.0004718 -0.0001453 0.0003664 -0.0000106 0.0002126 -0.0001502 0.0002806 -0.0000559 -0.0001174 0.0000660 0.0004268 -0.0002138 0.0010671 -0.0001960 0.0009648 0.0150739 -0.0175307 0.0000595 0.0000881 -0.0005921 0.0007293 -0.0001090 0.0002263 -0.0005932 0.0000741 0.0001031 -0.0004813 -0.0001081 0.0001595 -0.0001025 0.0012867 -0.0001407 0.0004343 0.0061982 -0.0068493 0.0000876 0.0004510 -0.0002862 0.0000442 -0.0001452 0.0001113 0.0005510 -0.0020708 -0.0040235 0.0032832 -0.0029120 0.0019881 0.0003163 -0.0004338 0.0000513 -0.0003901 -0.0001905 0.0001275 -0.0002606 0.0010262 -0.0003812 0.0004214 0.0001149 -0.0002252 -0.0006561 -0.0000607 0.0072334 -0.0025360 -0.0000332 -0.0002822 -0.0006080 0.0006732 0.0000151 -0.0003330 0.0002956 -0.0004994 -0.0002648 0.0004180 0.0001298 -0.0004420 0.0001677 -0.0009962
-0.0003364 0.0003679 -0.0001629 -0.0001809 -0.0002013 -0.0001507 -0.0002622 0.0007748 -0.0004202 -0.0004889 -0.0005520 -0.0004344 -0.0003234 -0.0007243 0.0000135 0.0005071 -0.0002157 -0.0004521 -0.0000657 -0.0000034 -0.0002422 0.0002169 -0.0001053 -0.0000580 -0.0001542 0.0003397 -0.0009844 -0.0010569 -0.0003506 0.0004861 -0.0001178 -0.0013090 -0.0003670 -0.0000817 -0.0005080 -0.0003621 -0.0003846 0.0005934 0.0001272 0.0002886 -0.0000161 -0.0002472 -0.0000936 0.0008346 -0.0001177 -0.0000994 0.0000638 0.0004661 -0.0003523 0.0006275 -0.0005359 -0.0003453 -0.0005366 -0.0002010 -0.0005184 0.0002286 -0.0010118 0.0001987 -0.0002373 -0.0004392 -0.0002864 0.0001850 -0.0004290 0.0003471 -0.0001214 0.0004013 0.0000601 -0.0003630 -0.0000622 0.0009100 -0.0013515 -0.0006241 -0.0033000 -0.0005015 0.0068323 -0.0168968 0.0000058 -0.0005797 -0.0000304 -0.0003605 -0.0028276 0.0044594 0.0001730 -0.0002677 -0.0001018 0.0000277 0.0002282 -0.0005699 -0.0005413 0.0003283 -0.0001053 -0.0003634 -0.0033299 0.0057811 0.0026148 -0.0027878 -0.0000048 0.0007098 0.0010907 0.0002902 -0.0000401 -0.0003185 -0.0001440 -0.0004516 -0.0000002 -0.0003102 0.0110017 -0.0137627 -0.0083319 0.0150229 -0.0001258 0.0006475 -0.0004496 0.0004034 0.0005554 -0.0010550 -0.0000219 -0.0002581 -0.0004258 -0.0000193 0.0002027 0.0005896 -0.0006112 0.0005759 -0.0011151 0.0019432 -0.0003752 -0.0002924 -0.0003651 -0.0002884 0.0000239 -0.0001826 -0.0004671 0.0041583 -0.0000952 0.0001314 -0.0017216 0.0014969 -0.0000529 0.0002999 -0.0000316 0.0000496 0.0000085 -0.0000171 0.0000244 -0.0002019 -0.0000131 -0.0004161 0.0001398 0.0007568 -0.0002903 0.0009283 -0.0000025 0.0005860 0.0144157 -0.0201824 -0.0000086 -0.0000049 -0.0009834 0.0010816 -0.0002095 0.0002633 -0.0013916 0.0009848 0.0000309 -0.0005634 -0.0000499 0.0000557 -0.0001277 0.0012577 -0.0001724 0.0003993 0.0035310 -0.0045604 0.0001169 0.0001290 0.0002110 -0.0004112 -0.0001111 0.0000630 -0.0008606 -0.0000608 -0.0017644 0.0004004 -0.0063256 0.0036991 -0.0000797 -0.0000955 0.0000936 -0.0003394 -0.0000818 0.0000662 0.0000676 -0.0032260 -0.0003428 0.0004087 0.0000683 -0.0001537 -0.0002750 0.0002495 0.0095971 -0.0147282 -0.0000575 -0.0002127 0.0017515 -0.0014012 0.0000506 -0.0003115 0.0002628 -0.0003148 -0.0002232 0.0004522 0.0001755 -0.0004321 0.0001133 -0.0010555
-0.0003423 0.0003989 -0.0001589 -0.0001475 -0.0001979 -0.0000645 -0.0002848 0.0008386 -0.0004127 -0.0004094 -0.0005163 -0.0004186 -0.0003004 -0.0007005 0.0000094 0.0005833 -0.0002045 -0.0003803 -0.0000693 -0.0000166 -0.0001248 0.0001584 -0.0000857 -0.0000020 -0.0000592 0.0002026 -0.0009470 -0.0010790 -0.0003325 0.0004973 -0.0001857 -0.0010902 -0.0002780 -0.0001327 -0.0004878 -0.0003204 -0.0003561 0.0006711 -0.0005018 0.0007326 -0.0000338 -0.0001605 -0.0000797 0.0010579 -0.0002810 0.0000337 0.0000843 0.0005955 -0.0004960 0.0008935 -0.0005552 -0.0002888 -0.0005551 -0.0001660 -0.0005207 0.0003536 -0.0010318 0.0002919 -0.0002535 -0.0002631 -0.0002956 0.0002801 -0.0002776 0.0000835 -0.0001029 0.0003962 -0.0000618 -0.0001752 0.0008937 -0.0009454 -0.0013597 -0.0002105 -0.0016761 -0.0049870 -0.0028040 -0.0003049 -0.0001307 -0.0002089 0.0000605 -0.0003815 -0.0027072 0.0022363 -0.0009735 0.0019039 -0.0000809 0.0001877 -0.0001666 0.0000496 -0.0002639 0.0004525 0.0000287 -0.0002462 0.0018847 -0.0010749 -0.0018445 0.0008044 0.0000687 0.0006257 0.0006143 0.0005160 -0.0000421 -0.0002528 -0.0001190 -0.0003678 0.0000302 -0.0002585 0.0046192 0.0000398 -0.0076457 0.0215372 -0.0002397 0.0008240 -0.0006518 0.0005158 0.0008205 -0.0009007 -0.0000535 -0.0001280 -0.0001810 -0.0001235 0.0001640 0.0007937 0.0007138 -0.0003448 -0.0006554 0.0014942 -0.0005984 -0.0001040 -0.0003561 -0.0001686 0.0000431 -0.0002182 0.0022887 0.0027876 -0.0000486 0.0000642 0.0005788 -0.0008343 0.0001239 0.0000320 0.0000054 0.0000414 0.0001745 -0.0002209 0.0000338 -0.0003764 0.0000438 -0.0005022 0.0001595 0.0012130 -0.0002197 0.0008987 -0.0002195 0.0007063 0.0120032 -0.0217990 0.0000022 -0.0000057 -0.0000430 0.0003366 -0.0002250 0.0002976 -0.0002075 0.0002398 0.0000182 -0.0005912 -0.0000365 0.0000281 0.0002098 0.0006754 -0.0001993 0.0003369 -0.0006623 -0.0007741 0.0002697 -0.0002983 0.0003123 -0.0004222 -0.0001320 0.0000782 -0.0007843 0.0003789 0.0001669 -0.0012313 -0.0049086 0.0039162 -0.0001717 0.0000963 0.0000811 -0.0002503 -0.0000629 0.0000250 -0.0030997 -0.0034467 -0.0003817 0.0002377 0.0001610 -0.0002840 0.0000468 -0.0004181 -0.0020747 -0.0007271 0.0000465 -0.0002730 0.0020960 -0.0024060 0.0001486 -0.0003837 0.0003019 -0.0002375 -0.0002563 0.0004606 0.0001959 -0.0004823 0.0001134 -0.0010688
-0.0003194 0.0002014 -0.0001611 -0.0002794 -0.0002142 -0.0001455 -0.0002808 0.0007403 -0.0004183 -0.0004670 -0.0004998 -0.0005073 -0.0002533 -0.0007847 0.0000170 0.0005611 -0.0001897 -0.0004399 -0.0000917 -0.0001445 -0.0000352 0.0000670 -0.0001181 -0.0001727 0.0000646 -0.0000203 -0.0008913 -0.0012193 -0.0003081 0.0004932 -0.0002475 -0.0009260 -0.0003134 -0.0001235 -0.0004241 -0.0004026 -0.0003222 0.0006601 -0.0011628 0.0012247 -0.0000390 -0.0002323 0.0000481 0.0009685 0.0002004 -0.0003217 0.0001238 0.0006188 -0.0003297 0.0008646 -0.0005540 -0.0002681 -0.0005649 -0.0001836 -0.0005335 0.0003621 -0.0010433 0.0003500 -0.0002483 -0.0002061 -0.0002582 0.0003491 -0.0001263 0.0000236 -0.0000829 0.0003313 0.0000677 -0.0001844 0.0013056 -0.0004132 0.0012910 -0.0022038 -0.0005042 -0.0009378 -0.0089299 0.0136515 0.0003882 -0.0004741 -0.0000466 -0.0003509 -0.0023057 0.0017440 0.0003724 -0.0002446 -0.0000522 0.0002692 -0.0007778 0.0004169 0.0005016 -0.0001228 0.0000281 -0.0002367 -0.0043356 0.0027724 0.0029124 -0.0052716 -0.0001482 0.0008092 -0.0005351 0.0018271 0.0000371 -0.0002232 -0.0003455 -0.0001356 -0.0000334 -0.0000795 0.0105755 -0.0238211 -0.0147030 0.0235560 -0.0006662 0.0011947 -0.0006264 0.0004712 -0.0002974 0.0005260 -0.0000544 -0.0000067 -0.0000991 -0.0000230 0.0001329 0.0009002 0.0006304 0.0001955 0.0005958 0.0003535 -0.0004826 -0.0001684 -0.0003037 -0.0001081 -0.0001416 -0.0000506 -0.0013211 0.0016560 -0.0002308 0.0002865 -0.0004915 0.0024062 0.0004414 -0.0002455 -0.0000797 0.0002024 0.0003827 -0.0004122 -0.0002049 -0.0000418 0.0000157 -0.0004386 -0.0004111 0.0014215 -0.0003468 0.0011415 -0.0004006 0.0009344 0.0046493 -0.0115306 0.0000379 0.0000622 0.0000727 0.0003366 -0.0001832 0.0003878 0.0010408 -0.0001589 0.0000555 -0.0002561 -0.0001170 0.0001616 0.0000761 0.0005877 -0.0001835 0.0003681 0.0011901 -0.0018788 -0.0001345 0.0000537 0.0001572 -0.0001023 -0.0000853 0.0001290 -0.0009367 -0.0000828 0.0016234 -0.0011393 -0.0041316 -0.0024237 0.0002774 -0.0001293 0.0000287 0.0000613 -0.0000637 0.0002416 -0.0018736 -0.0002269 -0.0002856 0.0002983 0.0001910 -0.0001100 0.0003900 -0.0009062 -0.0010687 0.0097083 0.0001050 -0.0000852 -0.0018154 0.0012651 0.0001120 -0.0001504 0.0002725 0.0001007 -0.0002762 0.0006310 0.0001561 -0.0001414 0.0002499 -0.0008024
