-0.0000000 -0.0000000 -0.0000000 -0.0000000 -0.0000000 -0.0000000 -0.0000000 -0.0000000 -0.0000000 -0.0000000 -0.0000000 -0.0000000 -0.0000000 -0.0000000 -0.0000000 -0.0000000 -0.0000000 -0.0000000 -0.0000000 -0.0000000 -0.0000000 -0.0000000 -0.0000000 -0.0000000 -0.0000000 -0.0000000 -0.0000000 -0.0000000 -0.0000000 -0.0000000 -0.0000000 -0.0000000 -0.0000000 -0.0000000 -0.0000000 -0.0000000 -0.0000000 -0.0000000 -0.0000000 -0.0000000 -0.0000000 -0.0000000 -0.0000000 -0.0000000 -0.0000000 -0.0000000 -0.0000000 -0.0000000 -0.0000000 -0.0000000 -0.0000000 -0.0000000 -0.0000000 -0.0000000 -0.0000000 -0.0000000 -0.0000000 -0.0000000 -0.0000000 -0.0000000 -0.0000000 -0.0000000 -0.0000000 -0.0000000 -0.0000000 -0.0000000 -0.0000000 -0.0000000 -0.0000000 -0.0000000 -0.0000000 -0.0000000 -0.0000000 -0.0000000 -0.0000000 -0.0000000 -0.0000000 -0.0000000 -0.0000000 -0.0000000 -0.0000000 -0.0000000 -0.0000000 -0.0000000 -0.0000000 -0.0000000 -0.0000000 -0.0000000 -0.0000000 -0.0000000 -0.0000000 -0.0000000 -0.0000000 -0.0000000 -0.0000000 -0.0000000 -0.0000000 -0.0000000 -0.0000000 -0.0000000 -0.0000000 -0.0000000 -0.0000000 -0.0000000 -0.0000000 -0.0000000 -0.0000000 -0.0000000 -0.0000000 -0.0000000 -0.0000000 -0.0000000 -0.0000000 -0.0000000 -0.0000000 -0.0000000 -0.0000000 -0.0000000 -0.0000000 -0.0000000 -0.0000000 -0.0000000 -0.0000000 -0.0000000 -0.0000000 -0.0000000 -0.0000000 -0.0000000 -0.0000000 -0.0000000 -0.0000000 -0.0000000 -0.0000000 -0.0000000 -0.0000000 -0.0000000 -0.0000000 -0.0000000 -0.0000000 -0.0000000
-0.0000000 -0.0000000 -0.0000000 -0.0000000 -0.0000000 -0.0000000 -0.0000000 -0.0000000 -0.0000000 -0.0000000 -0.0000000 -0.0000000 -0.0000000 -0.0000000 -0.0000000 -0.0000000 -0.0000000 -0.0000000 -0.0000000 -0.0000000 -0.0000000 -0.0000000 -0.0000000 -0.0000000 -0.0000000 -0.0000000 -0.0000000 -0.0000000 -0.0000000 -0.0000000 -0.0000000 -0.0000000 -0.0000000 -0.0000000 -0.0000000 -0.0000000 -0.0000000 -0.0000000 -0.0000000 -0.0000000 -0.0000000 -0.0000000 -0.0000000 -0.0000000 -0.0000000 -0.0000000 -0.0000000 -0.0000000 -0.0000000 -0.0000000 -0.0000000 -0.0000000 -0.0000000 -0.0000000 -0.0000000 -0.0000000 -0.0000000 -0.0000000 -0.0000000 -0.0000000 -0.0000000 -0.0000000 -0.0000000 -0.0000000 -0.0000000 -0.0000000 -0.0000000 -0.0000000 -0.0000000 -0.0000000 -0.0000000 -0.0000000 -0.0000000 -0.0000000 -0.0000000 -0.0000000 -0.0000000 -0.0000000 -0.0000000 -0.0000000 -0.0000000 -0.0000000 -0.0000000 -0.0000000 -0.0000000 -0.0000000 -0.0000000 -0.0000000 -0.0000000 -0.0000000 -0.0000000 -0.0000000 -0.0000000 -0.0000000 -0.0000000 -0.0000000 -0.0000000 -0.0000000 -0.0000000 -0.0000000 -0.0000000 -0.0000000 -0.0000000 -0.0000000 -0.0000000 -0.0000000 -0.0000000 -0.0000000 -0.0000000 -0.0000000 -0.0000000 -0.0000000 -0.0000000 -0.0000000 -0.0000000 -0.0000000 -0.0000000 -0.0000000 -0.0000000 -0.0000000 -0.0000000 -0.0000000 -0.0000000 -0.0000000 -0.0000000 -0.0000000 -0.0000000 -0.0000000 -0.0000000 -0.0000000 -0.0000000 -0.0000000 -0.0000000 -0.0000000 -0.0000000 -0.0000000 -0.0000000 -0.0000000 -0.0000000 -0.0000000
0.0000056 0.0000832 -0.0000002 0.0000204 0.0000003 0.0000996 -0.0000010 0.0000332 -0.0000101 0.0001616 -0.0000024 0.0000704 -0.0000132 0.0000465 -0.0000102 0.0000698 -0.0000009 0.0000580 -0.0000045 0.0000636 -0.0000100 0.0000612 0.0000017 0.0000592 0.0000022 0.0000721 -0.0000075 0.0000472 0.0000009 0.0000730 -0.0000081 0.0000618 -0.0000152 0.0000407 -0.0000058 0.0000598 -0.0000019 0.0000497 -0.0000068 0.0000418 -0.0000056 0.0000445 -0.0000082 0.0000171 0.0000073 0.0000932 0.0000228 0.0000554 -0.0001546 0.0000076 -0.0000008 0.0000584 -0.0000043 0.0000729 -0.0000040 0.0000191 0.0000030 0.0000302 -0.0000145 0.0001049 -0.0000460 0.0001690 0.0001952 -0.0000791 -0.0000126 0.0000305 0.0000085 0.0001014 -0.0000105 0.0000580 -0.0023923 0.0018768 -0.0000673 0.0000603 -0.0000456 0.0001276 0.0000141 0.0000385 -0.0061521 0.0044350 -0.0006087 0.0006734 0.0000100 0.0000513 -0.0000312 0.0000913 -0.0000404 0.0001311 -0.0000158 0.0000946 0.0000091 0.0000426 0.0000601 -0.0000140 0.0000037 0.0000326 0.0000019 0.0000438 0.0000022 0.0000533 0.0000005 0.0000803 0.0000082 0.0000405 0.0000114 0.0000602 -0.0000045 0.0001467 -0.0000001 0.0000367 -0.0000078 0.0001017 0.0000017 0.0000646 -0.0000067 0.0001161 -0.0021337 0.0006163 0.0000275 -0.0000104 0.0001855 -0.0001805 0.0000358 -0.0000483 0.0022479 -0.0018382 -0.0004204 0.0001897 -0.0000579 0.0001252 0.0000190 -0.0000111 0.0000191 -0.0000032 -0.0006198 0.0007959 0.0000575 0.0000452 -0.0000499 -0.0001217
0.0000059 0.0001212 -0.0000013 0.0000346 0.0000067 0.0001350 0.0000020 0.0000840 0.0000024 0.0001576 0.0000081 0.0001328 0.0000020 0.0001541 -0.0000143 0.0000963 -0.0000092 0.0000856 -0.0000117 0.0001053 -0.0000115 0.0000531 -0.0000078 0.0000796 0.0000013 0.0001254 -0.0000106 0.0001087 -0.0000189 0.0000527 -0.0000108 0.0000662 -0.0000460 0.0000341 -0.0000031 0.0000817 -0.0000030 0.0000918 -0.0000064 0.0000709 -0.0000046 0.0000762 -0.0000137 -0.0000220 0.0000452 0.0002560 0.0000118 0.0001612 -0.0003545 0.0001672 -0.0000171 0.0000530 -0.0000043 0.0000600 -0.0000814 0.0000789 -0.0000268 0.0000433 0.0000360 0.0000802 0.0000351 0.0001738 0.0000438 -0.0001491 -0.0000159 -0.0000059 -0.0000679 0.0001548 0.0000032 0.0000644 -0.0008222 0.0006080 0.0000331 -0.0000530 -0.0000149 0.0000888 0.0000103 0.0000702 -0.0048863 0.0038721 -0.0009798 0.0008288 -0.0000095 0.0000895 -0.0001062 0.0000532 -0.0000147 0.0001334 0.0000279 0.0000436 0.0000169 0.0000319 0.0000109 0.0000594 0.0000207 0.0001122 0.0000058 0.0000372 0.0000132 0.0000802 0.0000003 0.0000479 0.0000025 0.0000356 -0.0000011 0.0000580 0.0000106 0.0000890 -0.0000083 0.0000285 -0.0000118 0.0000785 0.0000071 0.0000219 -0.0000054 0.0000989 0.0044846 -0.0197313 -0.0000151 0.0000224 0.0003281 -0.0002695 0.0000980 -0.0001796 0.0029231 -0.0023417 -0.0002201 0.0000249 -0.0000594 -0.0000988 0.0000035 -0.0000539 -0.0000071 -0.0000748 0.0000055 -0.0005048 -0.0000697 0.0000194 -0.0002467 0.0001246
0.0000090 0.0000932 0.0000006 0.0000384 0.0000085 0.0000486 0.0000002 0.0000840 0.0000132 0.0000757 0.0000211 0.0001376 0.0000211 0.0001937 -0.0000134 0.0000698 -0.0000210 0.0000584 -0.0000093 0.0001166 -0.0000155 0.0000247 -0.0000057 0.0000525 0.0000066 0.0001614 -0.0000167 0.0001484 -0.0000299 0.0000463 -0.0000111 0.0000775 -0.0000415 0.0000967 0.0000001 0.0001075 -0.0000075 0.0001383 -0.0000066 0.0000919 -0.0000101 0.0001550 -0.0000137 0.0000176 0.0000854 0.0004454 0.0000463 0.0002406 -0.0002501 0.0002065 0.0000096 0.0001583 -0.0000114 0.0002265 0.0000270 0.0002483 -0.0000186 0.0002077 0.0000915 0.0001991 0.0000958 0.0002174 -0.0000686 -0.0000833 -0.0000178 0.0001293 -0.0001218 0.0003495 0.0000072 0.0001450 0.0000366 -0.0002282 -0.0000373 -0.0000960 -0.0000971 -0.0000839 0.0000118 -0.0000213 -0.0060178 0.0040452 0.0002287 -0.0001920 0.0000251 -0.0000700 -0.0002125 0.0001693 -0.0001964 0.0000563 0.0000121 -0.0001085 0.0000188 -0.0000956 0.0000902 -0.0001372 0.0000243 -0.0000248 0.0000257 -0.0000812 0.0000175 0.0000400 0.0000062 -0.0000977 -0.0000007 -0.0000869 0.0000088 -0.0000783 0.0000159 -0.0001378 -0.0000039 -0.0001047 -0.0000053 -0.0001102 0.0000230 -0.0000802 0.0000068 -0.0000201 0.0071377 -0.0152405 -0.0001191 0.0001327 0.0004346 -0.0003160 0.0000170 -0.0001182 0.0004469 -0.0011231 0.0001874 -0.0005186 0.0000075 0.0000679 -0.0000138 0.0000076 0.0000195 -0.0000350 -0.0033364 0.0018861 -0.0001053 0.0000294 -0.0001352 0.0002212
0.0000160 0.0001403 0.0000081 0.0000850 0.0000167 0.0000611 -0.0000002 0.0001456 -0.0000021 0.0001083 0.0000121 0.0001907 0.0000173 0.0002659 -0.0000146 0.0000959 -0.0000203 0.0000765 -0.0000131 0.0001358 -0.0000245 0.0000495 -0.0000033 0.0000636 0.0000087 0.0002242 -0.0000173 0.0001980 -0.0000433 0.0000552 -0.0000174 0.0000962 -0.0000446 0.0001177 -0.0000047 0.0001333 -0.0000164 0.0001616 -0.0000111 0.0001093 -0.0000139 0.0001843 -0.0000089 0.0000386 0.0001014 0.0005116 0.0000788 0.0002811 0.0002058 0.0000022 0.0000745 0.0001009 -0.0000164 0.0002304 0.0001006 0.0002261 0.0000232 0.0002143 0.0000489 0.0002592 0.0001063 0.0002660 0.0000788 -0.0000423 -0.0000233 0.0001315 -0.0001146 0.0002541 -0.0000104 0.0001748 -0.0002835 0.0004569 0.0001745 -0.0001566 -0.0000705 0.0000491 0.0000232 0.0001235 0.0021646 -0.0024254 -0.0001598 0.0001248 0.0000104 0.0001296 -0.0000001 0.0001662 -0.0001654 0.0001604 -0.0000371 0.0001106 0.0000262 0.0000493 0.0001114 -0.0000230 0.0000258 0.0001567 0.0000250 -0.0000015 0.0000224 0.0001606 -0.0000070 0.0000566 0.0000024 0.0000211 0.0000100 0.0000124 -0.0000059 0.0001361 -0.0000055 0.0000067 -0.0000131 0.0000444 0.0000121 0.0000113 0.0000033 0.0001165 -0.0022203 -0.0073922 0.0002204 -0.0000395 0.0002381 -0.0001376 -0.0003205 0.0004713 -0.0011478 0.0012801 -0.0003360 -0.0003499 0.0000341 0.0000710 -0.0000708 0.0000488 0.0001417 -0.0001198 -0.0026684 0.0027276 0.0001022 -0.0001368 0.0002558 -0.0003163
0.0000176 0.0000736 0.0000042 0.0000944 0.0000234 0.0000041 0.0000010 0.0001909 -0.0000001 0.0000174 0.0000067 0.0001876 0.0000284 0.0002698 -0.0000141 0.0000626 -0.0000166 0.0000428 -0.0000183 0.0001244 -0.0000291 0.0000302 -0.0000099 0.0000635 0.0000148 0.0002510 -0.0000107 0.0002589 -0.0000602 0.0000292 -0.0000194 0.0000741 -0.0000459 0.0001216 -0.0000026 0.0001014 -0.0000143 0.0001495 -0.0000177 0.0001036 -0.0000147 0.0001776 -0.0000055 0.0000398 0.0000808 0.0004144 0.0000872 0.0002667 0.0000876 0.0002369 0.0000927 0.0000432 -0.0000437 0.0001662 0.0000052 0.0002521 0.0000179 0.0001666 0.0000578 0.0001950 0.0000726 0.0003173 0.0000985 0.0002252 -0.0000450 0.0002062 -0.0000683 0.0000904 -0.0000146 0.0002140 -0.0011771 0.0007226 -0.0004258 0.0002065 -0.0002463 -0.0001911 0.0000606 0.0002495 0.0022782 -0.0027743 -0.0013871 0.0009675 0.0000089 0.0001699 -0.0001772 0.0002911 -0.0001666 0.0002493 -0.0000304 0.0000966 0.0000326 0.0000547 0.0000174 0.0000680 0.0000617 0.0002804 0.0000190 -0.0000270 0.0000312 0.0002239 -0.0000044 0.0000075 0.0000104 0.0000032 -0.0000057 -0.0000468 -0.0000175 0.0001077 -0.0000129 0.0000041 -0.0000123 -0.0000195 0.0000029 -0.0000349 0.0000063 0.0000560 0.0004949 -0.0098747 0.0002481 -0.0001873 0.0003513 -0.0000307 -0.0001073 0.0004528 0.0008800 0.0003073 -0.0005832 0.0000038 0.0000692 -0.0001785 -0.0000421 -0.0000574 0.0001767 -0.0002338 0.0008317 0.0003249 0.0002630 -0.0002719 0.0000258 -0.0002206
0.0000117 0.0002470 0.0000016 0.0001388 0.0000192 0.0002062 0.0000068 0.0002783 -0.0000025 0.0002569 0.0000018 0.0002642 0.0000230 0.0003551 -0.0000174 0.0002095 -0.0000315 0.0001739 -0.0000316 0.0002515 -0.0000441 0.0001544 -0.0000285 0.0001753 0.0000223 0.0003751 -0.0000097 0.0003905 -0.0000736 0.0001226 -0.0000275 0.0001909 -0.0000884 0.0002025 -0.0000067 0.0002157 -0.0000160 0.0002882 -0.0000245 0.0001798 -0.0000069 0.0002689 -0.0000043 0.0001533 0.0000622 0.0004634 0.0000771 0.0003816 0.0002547 0.0001727 0.0000443 0.0001641 -0.0000492 0.0002410 -0.0000140 0.0003253 0.0000059 0.0002148 0.0000490 0.0002282 0.0000685 0.0003281 -0.0002240 0.0004549 -0.0000194 0.0001821 -0.0001352 0.0001278 0.0000017 0.0001910 0.0014553 -0.0018038 -0.0001770 -0.0000814 -0.0004701 -0.0006302 0.0000991 0.0002774 0.0008168 -0.0008684 -0.0008271 0.0007236 0.0000344 0.0000575 -0.0001166 0.0002448 -0.0001616 0.0001208 0.0000212 -0.0001025 0.0000538 -0.0000716 -0.0000440 0.0000163 0.0000736 0.0001614 0.0000343 -0.0001304 0.0000291 0.0002067 -0.0000051 -0.0001021 0.0000147 -0.0001049 0.0000003 -0.0001590 0.0000024 -0.0000992 -0.0000058 -0.0000937 -0.0000060 -0.0001476 0.0000127 -0.0000733 0.0000144 0.0000207 0.0073157 -0.0127232 0.0001080 -0.0001814 0.0002623 0.0004419 0.0002021 0.0001327 0.0021514 -0.0010208 -0.0002531 0.0002170 0.0000728 0.0001760 -0.0000172 0.0000196 0.0001095 -0.0000803 0.0024851 -0.0015240 0.0004424 -0.0002313 -0.0003159 0.0001360
0.0000134 0.0001902 0.0000006 0.0001394 0.0000144 0.0001266 0.0000128 0.0003059 0.0000060 0.0001832 0.0000061 0.0002534 0.0000202 0.0003877 -0.0000129 0.0002001 -0.0000392 0.0001619 -0.0000281 0.0002561 -0.0000486 0.0001232 -0.0000478 0.0001778 0.0000201 0.0003804 -0.0000142 0.0004524 -0.0000848 0.0001199 -0.0000200 0.0001783 -0.0000768 0.0002092 -0.0000032 0.0002167 -0.0000107 0.0002766 -0.0000267 0.0001772 -0.0000214 0.0002531 -0.0000061 0.0001313 0.0000658 0.0004370 0.0000984 0.0003483 -0.0001232 0.0004812 0.0000039 0.0000992 -0.0000172 0.0001391 -0.0000128 0.0002123 -0.0000008 0.0001554 0.0000334 0.0001971 0.0001241 0.0001657 -0.0002759 0.0001126 0.0000096 0.0000585 0.0000198 -0.0000051 0.0000058 0.0000903 0.0003017 -0.0005634 0.0000587 -0.0000952 -0.0005601 -0.0005150 0.0001054 0.0005103 0.0002486 0.0003810 0.0001707 0.0002217 0.0000932 0.0001375 0.0003677 0.0000340 -0.0000427 0.0002401 0.0000232 0.0000442 0.0000441 0.0000990 0.0000537 0.0001025 0.0000733 0.0002904 0.0000396 -0.0000649 0.0000320 0.0003028 -0.0000015 -0.0000105 0.0000075 -0.0000005 0.0000093 -0.0000819 0.0000047 0.0000191 -0.0000060 -0.0000259 -0.0000085 -0.0000928 0.0000043 -0.0000201 0.0000050 0.0000728 0.0039435 -0.0066566 0.0000935 -0.0000789 -0.0000903 0.0011575 0.0001763 0.0001842 0.0042423 -0.0012284 0.0000461 0.0000267 0.0000295 0.0001981 0.0000339 -0.0000243 0.0000554 -0.0000904 0.0012204 -0.0007081 0.0003047 -0.0002035 -0.0000797 -0.0001275
0.0000181 0.0000439 -0.0000021 0.0000919 0.0000251 -0.0000147 0.0000114 0.0002295 0.0000301 -0.0000146 0.0000074 0.0001788 0.0000335 0.0003366 -0.0000087 0.0001107 -0.0000455 0.0000801 -0.0000279 0.0002077 -0.0000406 0.0000434 -0.0000374 0.0001045 0.0000171 0.0003218 -0.0000119 0.0004463 -0.0000877 0.0000671 -0.0000084 0.0001149 -0.0000513 0.0001875 0.0000157 0.0001478 -0.0000004 0.0002032 -0.0000253 0.0001286 -0.0000112 0.0001995 -0.0000100 0.0000765 0.0000654 0.0003795 0.0001519 0.0002773 -0.0002841 0.0005689 0.0000451 0.0000786 -0.0000206 0.0002012 0.0000351 0.0002580 -0.0000034 0.0002401 0.0000892 0.0001933 0.0000886 0.0001699 -0.0001609 0.0000609 -0.0000272 0.0002730 0.0001178 0.0001091 -0.0000283 0.0002064 -0.0019916 0.0005891 0.0001102 -0.0002033 -0.0006729 -0.0007681 0.0001163 0.0005992 0.0014406 -0.0025651 0.0002382 0.0000635 0.0000611 0.0001231 0.0000671 0.0001973 0.0001676 0.0000908 -0.0000052 0.0000844 0.0000293 0.0001171 0.0001234 0.0000076 0.0000768 0.0002680 0.0000395 -0.0001110 0.0000296 0.0003167 0.0000073 -0.0000736 0.0000117 -0.0000235 -0.0000001 -0.0001054 -0.0000005 -0.0000257 -0.0000054 -0.0000435 0.0000026 -0.0001479 -0.0000066 -0.0000388 0.0000001 0.0000036 0.0030282 -0.0126566 0.0000455 -0.0000688 -0.0000245 0.0011145 -0.0002272 0.0006192 0.0020767 -0.0003596 -0.0003492 0.0000953 0.0000232 -0.0000828 0.0001131 -0.0001776 -0.0000355 -0.0001067 0.0004743 -0.0001072 0.0001040 -0.0002161 0.0000331 -0.0003987
0.0000116 0.0002817 -0.0000083 0.0001523 0.0000458 0.0003012 -0.0000007 0.0002562 0.0000063 0.0002947 -0.0000057 0.0002714 0.0000388 0.0004087 -0.0000089 0.0002782 -0.0000539 0.0002228 -0.0000484 0.0003469 -0.0000617 0.0002015 -0.0000463 0.0002212 0.0000122 0.0004200 -0.0000163 0.0005274 -0.0000938 0.0001825 -0.0000129 0.0002315 -0.0000803 0.0002298 0.0000233 0.0002531 -0.0000035 0.0003093 -0.0000240 0.0001826 0.0000006 0.0002707 -0.0000174 0.0001175 0.0000574 0.0004249 0.0001347 0.0003273 -0.0001535 0.0003840 0.0000207 0.0001303 0.0000029 0.0002075 0.0000715 0.0002553 0.0000054 0.0002305 0.0001241 0.0001678 0.0000588 0.0001701 0.0001503 -0.0001272 -0.0000465 0.0002660 0.0000334 0.0001232 -0.0000564 0.0002280 0.0024151 -0.0030908 0.0003243 -0.0006199 -0.0007369 -0.0010435 0.0001271 0.0005215 -0.0021280 0.0003076 -0.0000089 0.0001687 -0.0000030 0.0001149 -0.0004017 0.0004426 0.0001310 -0.0000078 -0.0000281 -0.0000112 0.0000531 -0.0000119 0.0000821 -0.0000486 0.0000470 0.0001169 0.0000300 -0.0001542 0.0000170 0.0002760 0.0000064 -0.0000937 0.0000167 -0.0000546 -0.0000047 -0.0000632 0.0000113 0.0000004 -0.0000097 -0.0000298 -0.0000028 -0.0000429 -0.0000058 0.0000438 0.0000001 0.0001219 -0.0027453 0.0033155 0.0001969 -0.0003229 0.0001739 0.0007751 -0.0001211 0.0006584 -0.0004368 0.0010818 0.0001186 -0.0002369 0.0000199 0.0003567 0.0000423 0.0000111 0.0000284 0.0000251 0.0017900 -0.0010844 0.0001041 -0.0001652 0.0005044 -0.0009611
0.0000117 0.0002013 -0.0000125 0.0001462 0.0000543 0.0002017 -0.0000039 0.0002312 0.0000180 0.0001712 -0.0000056 0.0002297 0.0000458 0.0003704 -0.0000011 0.0002282 -0.0000471 0.0001874 -0.0000400 0.0003225 -0.0000594 0.0001737 -0.0000499 0.0002116 0.0000069 0.0003878 -0.0000180 0.0005359 -0.0001034 0.0001701 -0.0000082 0.0002078 -0.0000701 0.0002387 0.0000317 0.0002077 0.0000009 0.0002473 -0.0000243 0.0001592 -0.0000067 0.0002258 -0.0000186 0.0000839 0.0000535 0.0003507 0.0000999 0.0002868 -0.0002234 0.0003972 -0.0000089 0.0000503 0.0000346 0.0000945 0.0000121 0.0001595 0.0000057 0.0001460 0.0000988 0.0000814 -0.0000368 0.0002419 -0.0002230 0.0001834 -0.0000218 0.0000978 -0.0000154 0.0000436 -0.0000311 0.0001248 0.0011385 -0.0017244 0.0003607 -0.0005029 -0.0007094 -0.0008979 0.0001231 0.0005804 -0.0022752 0.0005253 0.0003056 -0.0002186 0.0000872 0.0001216 -0.0000790 0.0002375 0.0000534 0.0001045 -0.0000257 -0.0000274 0.0000567 -0.0000026 0.0000974 -0.0000029 0.0000268 0.0001161 0.0000089 -0.0001293 0.0000103 0.0002697 -0.0000009 -0.0000982 0.0000122 -0.0000388 -0.0000098 -0.0000566 0.0000094 -0.0000145 -0.0000090 -0.0000270 -0.0000032 -0.0000396 -0.0000088 0.0000245 0.0000003 0.0001084 -0.0012509 0.0142107 0.0001923 -0.0002645 0.0002289 0.0005064 0.0000333 0.0003676 -0.0040386 0.0040554 0.0008359 -0.0010368 -0.0000010 0.0002987 0.0000364 -0.0000032 0.0000015 0.0000145 0.0016397 -0.0007600 0.0000687 -0.0000812 0.0001478 -0.0006022
0.0000171 0.0000228 -0.0000142 0.0000799 0.0000571 -0.0000178 -0.0000080 0.0001449 0.0000486 -0.0000761 0.0000129 0.0001068 0.0000550 0.0002746 0.0000181 0.0000883 -0.0000461 0.0000967 -0.0000281 0.0002552 -0.0000429 0.0001146 -0.0000523 0.0001285 0.0000025 0.0003018 -0.0000184 0.0004990 -0.0001061 0.0001067 0.0000091 0.0001506 -0.0000480 0.0002228 0.0000387 0.0001247 0.0000116 0.0001498 -0.0000271 0.0001240 -0.0000089 0.0001899 -0.0000233 0.0000879 0.0000462 0.0003158 0.0001274 0.0002876 -0.0000981 0.0002722 0.0000055 0.0001195 0.0000323 0.0002033 0.0000498 0.0001980 0.0000197 0.0002615 0.0001152 0.0000998 0.0000103 0.0002562 -0.0004613 0.0005293 -0.0000062 0.0002971 -0.0000923 0.0002115 -0.0000147 0.0002329 -0.0020330 0.0002322 0.0006670 -0.0005175 -0.0007228 -0.0008922 0.0001110 0.0005333 0.0033013 -0.0043405 0.0007027 -0.0007137 0.0001379 0.0000019 0.0001937 -0.0000438 0.0001105 0.0000146 0.0000171 -0.0001187 0.0000421 -0.0000519 0.0000831 -0.0000282 0.0000056 -0.0000107 -0.0000008 -0.0001736 0.0000062 0.0002431 -0.0000010 -0.0001810 0.0000073 -0.0001031 -0.0000073 -0.0001466 0.0000246 -0.0001741 -0.0000190 -0.0000937 0.0000135 -0.0001639 -0.0000093 -0.0000803 0.0000010 -0.0000329 -0.0016509 0.0166189 0.0001570 -0.0001795 0.0002666 0.0003198 0.0000051 0.0002120 -0.0024406 0.0018568 0.0000701 -0.0002717 -0.0000153 0.0000470 0.0000788 -0.0001345 -0.0000831 -0.0000265 0.0015034 -0.0008126 -0.0001322 -0.0000371 -0.0006931 0.0002966
0.0000167 0.0002809 -0.0000118 0.0001355 0.0000635 0.0002702 -0.0000133 0.0001801 0.0000522 0.0002540 0.0000083 0.0001979 0.0000502 0.0003377 0.0000188 0.0002726 -0.0000669 0.0002758 -0.0000406 0.0003896 -0.0000615 0.0003186 -0.0000792 0.0002621 -0.0000037 0.0003845 -0.0000287 0.0005650 -0.0001118 0.0001989 0.0000056 0.0002531 -0.0000823 0.0002447 0.0000321 0.0002364 0.0000113 0.0002464 -0.0000336 0.0001869 -0.0000141 0.0002755 -0.0000303 0.0001087 0.0000539 0.0004127 0.0001487 0.0002988 -0.0000641 0.0002045 0.0000446 0.0001095 0.0000167 0.0002159 0.0000970 0.0001814 0.0000135 0.0002591 0.0000890 0.0001345 0.0001340 0.0001196 0.0000769 -0.0000858 -0.0000050 0.0002961 -0.0001693 0.0002046 0.0000090 0.0001956 -0.0008351 -0.0010461 0.0006346 -0.0006459 -0.0007530 -0.0007367 0.0001107 0.0005404 0.0058119 -0.0045025 0.0002482 -0.0004252 0.0000114 0.0001317 -0.0001074 0.0001658 0.0000291 0.0001030 0.0000419 -0.0000018 0.0000420 0.0000244 0.0000644 0.0000687 -0.0000243 -0.0000313 0.0000062 -0.0001163 0.0000044 0.0002970 -0.0000003 -0.0000544 -0.0000044 0.0000083 -0.0000039 -0.0000330 0.0000277 0.0000353 -0.0000221 -0.0000020 0.0000113 0.0000323 -0.0000214 0.0000315 -0.0000060 0.0001543 -0.0019755 0.0123227 -0.0000094 0.0000289 0.0001883 0.0004253 -0.0001137 0.0005067 -0.0000187 0.0003109 -0.0000525 -0.0001089 0.0000158 0.0000153 0.0001041 -0.0001720 -0.0000128 -0.0001015 0.0011234 -0.0015043 -0.0001906 -0.0000027 -0.0005081 0.0000109
0.0000131 0.0001930 -0.0000150 0.0001129 0.0000706 0.0001283 -0.0000093 0.0001113 0.0000591 0.0001358 0.0000020 0.0001454 0.0000535 0.0002743 0.0000240 0.0002138 -0.0000741 0.0002412 -0.0000435 0.0003630 -0.0000537 0.0003006 -0.0000449 0.0002164 -0.0000108 0.0003047 -0.0000240 0.0005005 -0.0001208 0.0001461 0.0000083 0.0002030 -0.0000732 0.0002167 0.0000333 0.0001701 0.0000220 0.0001703 -0.0000345 0.0001554 -0.0000049 0.0002022 -0.0000293 0.0000295 0.0000523 0.0003311 0.0001235 0.0001901 -0.0000729 0.0002051 0.0000590 -0.0000581 -0.0000145 0.0001434 0.0000166 0.0001619 -0.0000055 0.0001553 0.0001086 0.0000197 0.0001070 0.0000281 0.0001973 -0.0003876 0.0000242 0.0001270 0.0000012 -0.0000039 0.0000094 0.0000937 -0.0003513 0.0000195 0.0003903 -0.0005745 -0.0007538 -0.0007796 0.0000993 0.0005008 0.0047520 -0.0041351 -0.0002879 0.0002807 -0.0000556 0.0001038 0.0000154 0.0000863 0.0000350 0.0000427 0.0000503 -0.0000556 0.0000355 0.0000081 0.0000938 0.0000119 -0.0000301 -0.0000747 -0.0000042 -0.0001382 -0.0000012 0.0002829 -0.0000050 -0.0000993 0.0000016 -0.0000329 -0.0000228 -0.0000967 0.0000041 -0.0000051 -0.0000172 -0.0000549 0.0000096 -0.0000295 -0.0000205 -0.0000352 -0.0000062 0.0000651 0.0066192 -0.0137442 -0.0000348 0.0001199 0.0001680 0.0002059 -0.0002221 0.0005974 0.0016622 0.0005534 0.0003876 -0.0009620 0.0000371 -0.0002566 0.0000674 -0.0001805 -0.0000890 -0.0001560 -0.0008858 -0.0005483 -0.0000246 -0.0001679 -0.0004571 -0.0002591
0.0000100 0.0000004 -0.0000140 0.0000210 0.0000796 -0.0001044 -0.0000116 -0.0000116 0.0000685 -0.0001007 0.0000075 0.0000021 0.0000681 0.0001286 0.0000386 0.0000519 -0.0000739 0.0001214 -0.0000333 0.0002683 -0.0000403 0.0002254 -0.0000371 0.0001401 -0.0000192 0.0001586 -0.0000174 0.0003825 -0.0001233 0.0000355 0.0000184 0.0001116 -0.0000512 0.0001574 0.0000443 0.0000364 0.0000343 0.0000436 -0.0000319 0.0000968 0.0000189 0.0001086 -0.0000314 -0.0000110 0.0000429 0.0002191 0.0000924 0.0001650 0.0000745 0.0001698 0.0000765 -0.0000255 0.0000259 0.0002215 0.0000747 0.0002080 0.0000183 0.0002295 0.0001469 0.0000281 0.0000710 0.0000748 0.0001658 -0.0001245 0.0000491 0.0002903 0.0000242 0.0001203 -0.0000147 0.0002363 -0.0002845 -0.0004885 -0.0000112 -0.0002440 -0.0006966 -0.0010190 0.0000949 0.0003742 0.0030526 -0.0034647 -0.0001976 0.0006108 -0.0000279 -0.0000652 -0.0001362 0.0002392 0.0000588 -0.0001010 0.0000520 -0.0002480 0.0000327 -0.0001074 0.0001083 -0.0001052 -0.0000309 -0.0002751 -0.0000152 -0.0002120 -0.0000030 0.0001869 -0.0000031 -0.0002221 0.0000302 -0.0002052 -0.0000177 -0.0002127 0.0000056 -0.0002059 -0.0000276 -0.0001862 0.0000139 -0.0002307 -0.0000064 -0.0001533 0.0000029 -0.0001266 0.0026361 -0.0316881 0.0002081 0.0000373 0.0002333 0.0001270 -0.0000440 0.0003921 0.0018113 0.0005341 -0.0004203 -0.0003715 0.0000376 0.0000148 0.0000657 -0.0000935 -0.0000423 -0.0001370 -0.0024047 0.0007347 0.0000572 -0.0001489 -0.0004734 -0.0002123
0.0000019 0.0002345 -0.0000182 0.0000680 0.0000771 0.0001508 -0.0000214 0.0000283 0.0000613 0.0001978 0.0000024 0.0000931 0.0000647 0.0001716 0.0000386 0.0002071 -0.0000899 0.0002732 -0.0000340 0.0003747 -0.0000432 0.0004038 -0.0000924 0.0002831 -0.0000293 0.0002200 -0.0000256 0.0004062 -0.0001289 0.0001142 0.0000072 0.0002240 -0.0000853 0.0001697 0.0000389 0.0001108 0.0000346 0.0001314 -0.0000370 0.0001668 0.0000099 0.0001999 -0.0000486 0.0000611 0.0000342 0.0002948 0.0000846 0.0002346 -0.0003366 0.0005201 0.0000849 0.0000392 0.0000356 0.0002538 0.0001004 0.0002336 0.0000348 0.0002542 0.0001803 -0.0000172 0.0000572 0.0000808 0.0001166 -0.0000024 0.0000361 0.0002875 -0.0001450 0.0002043 -0.0000053 0.0002289 -0.0016551 0.0002399 0.0000438 -0.0002714 -0.0005942 -0.0007990 0.0000935 0.0004747 -0.0012901 0.0001129 -0.0002023 0.0006389 0.0000303 0.0000456 -0.0001592 0.0003941 0.0000366 0.0000995 0.0000564 -0.0001159 0.0000297 0.0000303 0.0000408 0.0000435 -0.0000269 -0.0001509 0.0000068 -0.0001289 0.0000096 0.0001877 -0.0000134 -0.0001292 0.0000242 -0.0001528 0.0000076 -0.0001346 0.0000255 -0.0001290 -0.0000289 -0.0001597 0.0000091 -0.0001927 -0.0000049 -0.0001341 0.0000000 -0.0000910 0.0012645 -0.0128665 0.0003219 -0.0000039 0.0000192 0.0004784 -0.0000709 0.0003695 -0.0037132 0.0036799 -0.0005933 -0.0001414 0.0000358 -0.0000835 0.0001176 -0.0001755 -0.0000841 -0.0001794 -0.0008277 -0.0003707 0.0000105 -0.0001463 -0.0005164 0.0001394
-0.0000048 0.0001580 -0.0000263 0.0000533 0.0000778 0.0000288 -0.0000207 0.0000103 0.0000726 0.0000643 0.0000099 0.0000480 0.0000762 0.0001087 0.0000493 0.0001272 -0.0000768 0.0002228 -0.0000365 0.0003322 -0.0000214 0.0003764 -0.0000606 0.0002277 -0.0000375 0.0001238 -0.0000311 0.0003507 -0.0001424 0.0000399 0.0000184 0.0001412 -0.0000757 0.0000977 0.0000356 0.0000306 0.0000410 0.0000345 -0.0000336 0.0001254 0.0000094 0.0001274 -0.0000484 -0.0000271 0.0000224 0.0002256 0.0000785 0.0001239 -0.0002556 0.0003599 0.0000316 0.0000096 -0.0000269 0.0001979 0.0000363 0.0001279 0.0000185 0.0001488 0.0002007 -0.0001432 0.0000782 -0.0000571 0.0001790 -0.0001749 0.0000087 0.0001858 0.0000788 -0.0003010 0.0000067 0.0000917 -0.0011070 0.0001170 0.0004403 -0.0006492 -0.0005876 -0.0008534 0.0000777 0.0004053 -0.0027785 0.0008145 0.0014723 -0.0010745 0.0000459 -0.0000092 0.0002094 0.0000274 0.0000467 0.0000424 0.0000478 -0.0001755 0.0000353 -0.0000661 0.0000151 -0.0000177 -0.0000165 -0.0001461 0.0000244 -0.0001816 0.0000151 0.0001052 -0.0000044 -0.0002370 0.0000139 -0.0002154 0.0000102 -0.0002046 0.0000557 -0.0002903 -0.0000202 -0.0002618 0.0000094 -0.0003009 0.0000117 -0.0002271 0.0000113 -0.0001953 0.0022839 -0.0155097 0.0002867 0.0001215 -0.0001749 0.0006232 -0.0000681 0.0003566 -0.0045953 0.0038389 0.0003111 -0.0013901 0.0000721 -0.0005081 0.0001377 -0.0002940 0.0000255 -0.0004544 0.0010779 -0.0015954 0.0000244 -0.0004211 -0.0003286 0.0000343
-0.0000090 -0.0000425 -0.0000270 -0.0000421 0.0000825 -0.0002113 -0.0000075 -0.0000792 0.0000905 -0.0001879 0.0000204 -0.0001012 0.0000956 -0.0000290 0.0000584 -0.0000538 -0.0000677 0.0000932 -0.0000326 0.0002100 -0.0000203 0.0003048 -0.0000337 0.0001379 -0.0000460 -0.0000511 -0.0000366 0.0002278 -0.0001472 -0.0001129 0.0000294 0.0000028 -0.0000479 0.0000026 0.0000469 -0.0001387 0.0000489 -0.0001237 -0.0000294 0.0000344 0.0000217 0.0000058 -0.0000444 -0.0001500 0.0000156 0.0000737 0.0000525 0.0000178 0.0000935 0.0000593 0.0000065 0.0000026 -0.0000181 0.0002187 0.0000720 0.0000837 -0.0000004 0.0001817 0.0001558 -0.0000466 0.0000227 -0.0000246 0.0000649 0.0000761 0.0000108 0.0003327 0.0001585 -0.0002340 -0.0000050 0.0001746 0.0004926 -0.0021373 -0.0004419 -0.0000405 -0.0005435 -0.0010745 0.0000804 0.0002544 -0.0025678 0.0014693 0.0011711 -0.0012201 0.0000280 -0.0000885 0.0000941 0.0000514 0.0000757 -0.0001053 0.0000189 -0.0002932 0.0000438 -0.0002298 0.0000334 -0.0001273 -0.0000027 -0.0002863 0.0000220 -0.0002531 0.0000115 0.0000287 0.0000184 -0.0002975 0.0000330 -0.0002831 0.0000191 -0.0002162 0.0000601 -0.0003066 -0.0000144 -0.0003115 0.0000101 -0.0002706 0.0000219 -0.0001964 0.0000226 -0.0001056 -0.0136281 0.0105394 0.0000787 0.0003571 -0.0001871 0.0007092 0.0000542 0.0003400 0.0010357 0.0002632 0.0005873 -0.0015030 0.0001260 -0.0001126 0.0000765 -0.0000638 0.0001649 -0.0003881 0.0026799 -0.0025482 0.0000549 -0.0003356 0.0001085 -0.0003304
-0.0000233 0.0001413 -0.0000333 -0.0000150 0.0000824 0.0000065 -0.0000163 -0.0000412 0.0000747 0.0000816 0.0000079 -0.0000422 0.0000786 -0.0000039 0.0000486 0.0000601 -0.0000766 0.0002160 -0.0000433 0.0002919 -0.0000385 0.0004495 -0.0000868 0.0002512 -0.0000575 -0.0000046 -0.0000429 0.0002139 -0.0001476 -0.0000631 0.0000189 0.0000861 -0.0000772 0.0000202 0.0000384 -0.0000862 0.0000400 -0.0000316 -0.0000415 0.0001003 -0.0000029 0.0000990 -0.0000612 -0.0000728 0.0000027 0.0001494 0.0000649 0.0001385 0.0000998 0.0001573 0.0000597 0.0000644 -0.0000038 0.0003539 0.0001684 0.0001929 0.0000003 0.0003242 0.0001720 -0.0000447 0.0000409 0.0000403 0.0001322 0.0000472 0.0000295 0.0003541 -0.0001056 0.0001117 -0.0000245 0.0002309 0.0009630 -0.0023814 -0.0005987 0.0004174 -0.0005428 -0.0009612 0.0000810 0.0002954 0.0014213 -0.0017143 0.0002013 -0.0003552 0.0000586 -0.0000933 -0.0000866 0.0001133 0.0001247 -0.0001566 -0.0000108 -0.0002464 0.0000605 -0.0002116 0.0000773 -0.0001737 0.0000249 -0.0001761 0.0000360 -0.0002804 0.0000165 0.0000244 0.0000139 -0.0003274 0.0000481 -0.0002975 0.0000388 -0.0002453 0.0000443 -0.0003213 -0.0000063 -0.0003371 0.0000111 -0.0002915 0.0000216 -0.0002317 0.0000156 -0.0001329 -0.0042576 0.0186472 0.0001466 0.0002841 -0.0000674 0.0005103 0.0000374 0.0001867 0.0026816 -0.0003576 -0.0000067 -0.0003967 0.0000666 -0.0001218 0.0001104 -0.0002129 0.0000745 -0.0003365 0.0023818 -0.0026262 0.0001869 -0.0004274 -0.0004222 0.0000185
-0.0000376 0.0001004 -0.0000415 -0.0000094 0.0000881 -0.0000395 -0.0000320 -0.0000444 0.0000769 0.0000024 0.0000079 -0.0000614 0.0000674 -0.0000302 0.0000416 0.0000121 -0.0000739 0.0001943 -0.0000463 0.0002604 -0.0000164 0.0004122 -0.0000924 0.0002269 -0.0000688 -0.0000509 -0.0000585 0.0001536 -0.0001517 -0.0001087 0.0000099 0.0000387 -0.0000929 -0.0000264 0.0000375 -0.0001517 0.0000433 -0.0000912 -0.0000383 0.0000697 0.0000016 0.0000409 -0.0000616 -0.0001407 0.0000021 0.0001095 0.0001059 0.0000693 0.0000989 0.0002191 0.0000531 0.0000225 -0.0000336 0.0002818 0.0001527 0.0001364 0.0000004 0.0002395 0.0001679 -0.0001522 0.0000451 -0.0000118 0.0001038 -0.0001214 0.0000615 0.0002027 0.0000304 -0.0002008 -0.0000012 0.0001223 0.0000526 -0.0014624 -0.0001842 0.0000935 -0.0005357 -0.0010507 0.0000780 0.0002167 0.0069944 -0.0067606 -0.0003471 -0.0000526 0.0000386 -0.0001902 0.0001100 -0.0000443 0.0001203 -0.0003124 0.0000336 -0.0003583 0.0000446 -0.0003023 0.0001198 -0.0003184 0.0000511 -0.0002026 0.0000661 -0.0003975 0.0000306 -0.0000293 0.0000332 -0.0004613 0.0000617 -0.0004090 0.0000550 -0.0003664 0.0000209 -0.0004396 -0.0000053 -0.0004415 0.0000140 -0.0004381 0.0000344 -0.0003362 0.0000250 -0.0002984 -0.0048006 0.0181682 0.0001957 0.0002726 0.0003414 0.0000911 0.0002621 -0.0002734 -0.0016769 0.0032858 -0.0006751 0.0004197 0.0000953 -0.0004474 0.0001444 -0.0004107 0.0001238 -0.0004985 0.0008632 -0.0014263 0.0003417 -0.0006720 -0.0003818 -0.0000677
-0.0000452 -0.0000782 -0.0000476 -0.0000826 0.0000793 -0.0002716 -0.0000214 -0.0000686 0.0000961 -0.0002284 0.0000165 -0.0001885 0.0000791 -0.0001436 0.0000470 -0.0001596 -0.0000674 0.0000710 -0.0000428 0.0001427 -0.0000103 0.0003174 -0.0000733 0.0001335 -0.0000669 -0.0001858 -0.0000698 0.0000110 -0.0001484 -0.0002238 0.0000069 -0.0000776 -0.0000798 -0.0001098 0.0000447 -0.0002950 0.0000484 -0.0002149 -0.0000326 -0.0000165 0.0000089 -0.0000645 -0.0000537 -0.0002470 0.0000077 -0.0000319 0.0001370 -0.0001222 -0.0001350 0.0002080 0.0000661 -0.0001273 -0.0000313 0.0001440 0.0000478 0.0001431 0.0000052 0.0001433 0.0001650 -0.0001726 -0.0000887 0.0000825 0.0002861 -0.0001502 0.0000519 0.0002647 -0.0000271 -0.0001124 0.0000021 0.0001611 -0.0010057 -0.0005508 -0.0005447 0.0002541 -0.0004141 -0.0010317 0.0000802 0.0002303 0.0021983 -0.0033642 -0.0005042 0.0000346 0.0001137 -0.0002214 -0.0001119 0.0001838 0.0000498 -0.0001606 0.0000311 -0.0002675 0.0000491 -0.0002553 0.0001107 -0.0002228 0.0000696 -0.0001484 0.0000808 -0.0003744 0.0000500 0.0000200 0.0000439 -0.0003351 0.0000664 -0.0003414 0.0000819 -0.0002867 0.0000213 -0.0002362 -0.0000082 -0.0003641 0.0000045 -0.0002915 0.0000389 -0.0002218 0.0000239 -0.0000944 -0.0078868 0.0123423 0.0002143 0.0002248 0.0001417 0.0004266 0.0004535 -0.0003032 -0.0044537 0.0059824 0.0004147 -0.0006239 0.0001946 -0.0002751 0.0000870 -0.0002669 0.0001598 -0.0005187 -0.0009069 0.0002577 0.0002421 -0.0005989 0.0001936 -0.0007054
-0.0000579 0.0000718 -0.0000588 -0.0000830 0.0000565 -0.0001423 -0.0000147 0.0000441 0.0000858 0.0000184 0.0000034 -0.0001617 0.0000692 -0.0001328 0.0000370 -0.0000706 -0.0000740 0.0001460 -0.0000524 0.0001926 -0.0000318 0.0004114 -0.0000621 0.0001767 -0.0000621 -0.0001541 -0.0000742 -0.0000189 -0.0001478 -0.0001916 -0.0000056 -0.0000180 -0.0000990 -0.0001190 0.0000273 -0.0002207 0.0000417 -0.0001363 -0.0000389 0.0000269 -0.0000018 0.0000160 -0.0000646 -0.0001792 -0.0000029 0.0000665 0.0001156 0.0000066 -0.0000360 0.0001619 0.0000153 0.0000717 -0.0000569 0.0003692 0.0000343 0.0003657 -0.0000213 0.0003402 0.0001490 -0.0000018 -0.0001485 0.0002987 0.0000204 0.0000974 0.0000190 0.0005119 -0.0002647 0.0003114 -0.0000194 0.0003059 -0.0009473 -0.0005406 -0.0004665 0.0001852 -0.0004398 -0.0009686 0.0000797 0.0002461 0.0000750 -0.0019255 0.0013158 -0.0014147 0.0000786 -0.0002023 -0.0003455 0.0001348 0.0000831 -0.0002098 0.0000413 -0.0002742 0.0000564 -0.0002390 0.0000340 -0.0001536 0.0000927 -0.0000167 0.0000902 -0.0004121 0.0000575 0.0000320 0.0000475 -0.0003619 0.0000593 -0.0003195 0.0000729 -0.0002976 0.0000524 -0.0003001 -0.0000143 -0.0003609 0.0000053 -0.0003141 0.0000374 -0.0002664 0.0000222 -0.0001186 0.0008007 0.0018270 0.0002464 0.0003112 0.0000451 0.0006012 0.0002603 -0.0000453 -0.0013896 0.0022975 0.0010732 -0.0014195 0.0002192 -0.0004428 0.0001464 -0.0003456 0.0002784 -0.0007161 0.0001354 -0.0007049 0.0000585 -0.0005091 0.0002783 -0.0008686
-0.0000687 0.0001435 -0.0000697 -0.0000442 0.0000591 -0.0001173 -0.0000212 0.0001189 0.0000483 0.0000641 -0.0000040 -0.0001038 0.0000532 -0.0000793 0.0000125 -0.0000227 -0.0000787 0.0001606 -0.0000676 0.0002189 -0.0000407 0.0004008 -0.0000656 0.0001727 -0.0000637 -0.0001535 -0.0000783 -0.0000208 -0.0001545 -0.0002304 -0.0000266 -0.0000171 -0.0001214 -0.0001531 0.0000202 -0.0001902 0.0000346 -0.0001276 -0.0000424 0.0000139 -0.0000066 0.0000199 -0.0000740 -0.0002326 0.0000043 0.0001340 0.0000465 0.0000565 0.0001723 0.0000575 -0.0000646 0.0001124 -0.0000718 0.0003277 0.0000585 0.0002804 -0.0000067 0.0002544 0.0001451 -0.0000212 -0.0000269 0.0001451 -0.0001030 0.0000744 0.0000148 0.0004338 -0.0001934 0.0002008 -0.0000166 0.0002350 -0.0002894 -0.0006295 0.0000072 -0.0002427 -0.0005296 -0.0010333 0.0000862 0.0001484 0.0013033 -0.0016109 0.0013695 -0.0014548 -0.0000326 -0.0001956 0.0000195 -0.0000786 0.0000576 -0.0002643 0.0000810 -0.0004467 0.0000627 -0.0003496 -0.0000214 -0.0002542 0.0001223 -0.0000801 0.0001213 -0.0005324 0.0000620 -0.0000247 0.0000617 -0.0004844 0.0000609 -0.0004048 0.0000666 -0.0003874 0.0000679 -0.0004680 -0.0000076 -0.0004550 0.0000204 -0.0004685 0.0000492 -0.0003714 0.0000333 -0.0002860 0.0095151 -0.0120319 0.0001459 0.0004137 0.0003017 0.0003590 0.0001451 -0.0001008 0.0011264 -0.0009861 -0.0001143 -0.0005710 0.0002409 -0.0004729 0.0001103 -0.0002553 0.0003399 -0.0006236 0.0024103 -0.0028005 0.0000592 -0.0003128 0.0004842 -0.0005167
-0.0000767 0.0000119 -0.0000730 -0.0001042 0.0000617 -0.0002323 -0.0000179 0.0000739 0.0000340 -0.0000964 0.0000059 -0.0001736 0.0000546 -0.0001332 0.0000055 -0.0001369 -0.0000788 0.0000645 -0.0000753 0.0001448 -0.0000377 0.0002997 -0.0000732 0.0000854 -0.0000617 -0.0002299 -0.0000874 -0.0001091 -0.0001586 -0.0003446 -0.0000427 -0.0000912 -0.0001156 -0.0002285 0.0000218 -0.0002733 0.0000231 -0.0001834 -0.0000460 -0.0000510 -0.0000119 -0.0000380 -0.0000741 -0.0003259 0.0000140 0.0001065 0.0000325 -0.0000530 0.0000651 0.0000893 0.0000242 -0.0001263 -0.0000757 0.0001688 -0.0000065 0.0001337 0.0000065 0.0000726 0.0000673 -0.0000603 0.0000681 -0.0000444 0.0002132 -0.0003732 0.0000243 0.0002600 -0.0000735 -0.0000480 -0.0000146 0.0001372 -0.0011047 -0.0000172 0.0003703 -0.0003684 -0.0005232 -0.0008053 0.0000865 0.0002306 0.0010447 -0.0013799 0.0004547 -0.0003825 0.0000892 -0.0001858 0.0001673 -0.0000074 0.0000081 -0.0000137 0.0001124 -0.0003143 0.0000341 -0.0001823 0.0000693 -0.0002061 0.0001526 0.0000576 0.0001379 -0.0004403 0.0000687 0.0000608 0.0000632 -0.0002977 0.0000559 -0.0002635 0.0000594 -0.0002155 0.0000700 -0.0001897 0.0000084 -0.0003114 0.0000184 -0.0002488 0.0000456 -0.0002103 0.0000321 -0.0000277 0.0098598 -0.0183112 0.0001568 0.0003874 0.0000825 0.0005811 0.0001326 0.0002277 0.0001715 0.0006594 0.0003606 -0.0007494 0.0002245 -0.0003214 0.0001258 -0.0002614 0.0001723 -0.0004317 0.0017980 -0.0024818 0.0003525 -0.0004661 0.0003706 -0.0004957
-0.0000929 0.0000547 -0.0000819 -0.0001418 0.0000479 -0.0000671 -0.0000266 0.0000845 0.0000202 0.0000779 -0.0000174 -0.0001782 0.0000374 -0.0001385 -0.0000025 -0.0001026 -0.0000822 0.0001049 -0.0000839 0.0001749 -0.0000435 0.0003420 -0.0000420 0.0000790 -0.0000584 -0.0001913 -0.0001050 -0.0001563 -0.0001547 -0.0003430 -0.0000666 -0.0000283 -0.0001372 -0.0002133 0.0000063 -0.0002489 -0.0000050 -0.0000913 -0.0000531 -0.0000198 -0.0000103 0.0000235 -0.0000814 -0.0002529 -0.0000017 0.0001867 0.0000509 0.0000643 -0.0002425 0.0004087 -0.0000145 0.0000440 -0.0000823 0.0003444 -0.0000826 0.0003554 -0.0000249 0.0002476 0.0000320 0.0001267 -0.0000309 0.0001966 0.0000497 -0.0002604 0.0000096 0.0005123 0.0000399 -0.0000681 -0.0000205 0.0002679 -0.0013145 -0.0003611 0.0004314 -0.0003835 -0.0005284 -0.0007674 0.0000752 0.0002442 0.0009824 -0.0023926 0.0009699 -0.0008071 0.0001320 -0.0002357 0.0003219 -0.0003003 -0.0001365 0.0000722 0.0000813 -0.0003026 0.0000308 -0.0001538 0.0001278 -0.0002077 0.0001785 0.0001909 0.0001402 -0.0004563 0.0000749 0.0000782 0.0000649 -0.0003058 0.0000524 -0.0002416 0.0000482 -0.0002263 0.0000712 -0.0002246 0.0000103 -0.0002942 0.0000184 -0.0002671 0.0000422 -0.0002293 0.0000401 -0.0000661 -0.0057687 0.0131676 0.0001854 0.0003268 0.0001123 0.0006032 0.0000338 0.0004823 -0.0038005 0.0035412 0.0006176 -0.0002710 0.0001599 -0.0003827 0.0001694 -0.0003346 0.0000307 -0.0004238 0.0007785 -0.0024020 0.0002856 -0.0005408 -0.0002231 -0.0002232
-0.0001217 0.0002993 -0.0000981 -0.0000487 0.0000481 0.0001994 -0.0000473 0.0001855 -0.0000235 0.0003205 -0.0000401 -0.0000781 0.0000103 -0.0000492 -0.0000359 0.0000845 -0.0000988 0.0002106 -0.0001114 0.0002709 -0.0000680 0.0004358 -0.0000706 0.0001887 -0.0000646 -0.0001203 -0.0001222 -0.0001485 -0.0001625 -0.0003271 -0.0000970 0.0000331 -0.0001709 -0.0002077 -0.0000065 -0.0001897 -0.0000325 -0.0000129 -0.0000563 -0.0000108 -0.0000761 0.0000970 -0.0000771 -0.0002506 0.0000005 0.0002836 0.0000518 0.0001275 -0.0002583 0.0004411 -0.0000309 0.0001039 -0.0001153 0.0003509 -0.0001774 0.0003824 -0.0000420 0.0002303 0.0000645 0.0000729 -0.0000731 0.0001258 0.0001299 -0.0001540 -0.0000414 0.0005352 0.0000905 -0.0002266 -0.0000634 0.0001913 -0.0004813 -0.0010916 0.0002661 -0.0002647 -0.0004873 -0.0009257 0.0000651 0.0001822 0.0011301 -0.0024968 0.0009463 -0.0008628 0.0001134 -0.0003008 0.0004263 -0.0005208 -0.0000550 -0.0000525 0.0000496 -0.0003977 0.0000532 -0.0002821 0.0000942 -0.0002647 0.0001993 0.0001371 0.0001592 -0.0005530 0.0000829 0.0000376 0.0000706 -0.0003877 0.0000521 -0.0003055 0.0000479 -0.0003101 0.0000825 -0.0003828 0.0000162 -0.0003640 0.0000252 -0.0003996 0.0000494 -0.0002979 0.0000487 -0.0002122 -0.0034359 0.0107988 0.0002180 0.0000753 0.0001340 0.0005778 0.0003320 -0.0000189 -0.0053169 0.0039471 -0.0002485 0.0005606 0.0001180 -0.0001404 0.0001554 -0.0001549 -0.0000366 -0.0002191 -0.0008911 -0.0001055 -0.0000745 -0.0001823 0.0002591 -0.0006062
-0.0001369 0.0002069 -0.0001102 -0.0001005 0.0000496 0.0001423 -0.0000503 0.0001384 -0.0000560 0.0002348 -0.0000458 -0.0001262 -0.0000013 -0.0000653 -0.0000589 0.0000275 -0.0001037 0.0001200 -0.0001355 0.0002232 -0.0000822 0.0003718 -0.0001251 0.0001770 -0.0000626 -0.0001708 -0.0001231 -0.0002183 -0.0001749 -0.0004308 -0.0001159 -0.0000114 -0.0001786 -0.0002604 -0.0000090 -0.0002196 -0.0000435 -0.0000345 -0.0000578 -0.0000680 -0.0001368 0.0000858 -0.0000703 -0.0003201 0.0000152 0.0003183 0.0000614 0.0000723 -0.0000361 0.0002427 -0.0000038 0.0000165 -0.0001561 0.0002143 -0.0002104 0.0002124 -0.0000213 0.0000591 0.0000772 -0.0000564 -0.0000249 -0.0001228 -0.0001415 -0.0000018 -0.0000318 0.0003195 0.0000734 -0.0003603 -0.0000911 0.0000253 -0.0009698 -0.0005091 -0.0003347 0.0001961 -0.0004516 -0.0006396 0.0000577 0.0003267 0.0021499 -0.0024787 0.0007969 -0.0006925 0.0000406 -0.0000631 0.0004692 -0.0004598 0.0000319 0.0000551 0.0000959 -0.0001464 0.0000078 -0.0000775 0.0001086 -0.0000991 0.0002012 0.0003149 0.0001474 -0.0004161 0.0000841 0.0001386 0.0000541 -0.0001670 0.0000372 -0.0001100 0.0000579 -0.0001401 0.0000654 -0.0000709 0.0000183 -0.0001979 0.0000282 -0.0002120 0.0000468 -0.0001799 0.0000368 -0.0000736 -0.0033038 0.0032788 0.0001623 0.0000627 0.0000814 0.0005567 0.0003661 0.0001055 -0.0006924 0.0017130 0.0002129 0.0001220 0.0001352 -0.0001574 0.0001062 0.0000113 0.0000595 -0.0002897 -0.0011165 0.0012061 0.0001161 -0.0001660 0.0002595 -0.0005555
-0.0001442 0.0000519 -0.0001132 -0.0002005 0.0000467 0.0000855 -0.0000467 0.0000664 -0.0000686 0.0001949 -0.0000638 -0.0002130 -0.0000104 -0.0001033 -0.0000777 -0.0000662 -0.0000994 0.0000521 -0.0001542 0.0001805 -0.0000883 0.0003096 -0.0001020 0.0000946 -0.0000484 -0.0001898 -0.0001256 -0.0002674 -0.0001666 -0.0004715 -0.0001275 0.0000042 -0.0002043 -0.0002295 -0.0000319 -0.0001952 -0.0000688 0.0000159 -0.0000673 -0.0000572 -0.0001369 0.0001432 -0.0000790 -0.0002577 -0.0000019 0.0003583 0.0000556 0.0001901 -0.0000915 0.0003109 -0.0000164 0.0001434 -0.0001268 0.0002724 -0.0001160 0.0003018 -0.0000228 0.0001687 0.0001042 0.0000535 0.0000333 -0.0000424 -0.0000267 -0.0000542 -0.0000075 0.0004596 0.0000904 -0.0001316 -0.0000875 0.0001518 -0.0019903 0.0007769 -0.0002811 0.0001722 -0.0004259 -0.0006735 0.0000461 0.0003283 -0.0028815 0.0008438 0.0008101 -0.0006655 0.0000630 -0.0000983 0.0002950 -0.0003253 0.0000992 -0.0000467 0.0001095 -0.0001579 0.0000214 -0.0000803 0.0001103 -0.0000710 0.0001957 0.0003557 0.0001375 -0.0004211 0.0000770 0.0001486 0.0000394 -0.0001544 0.0000568 -0.0001091 0.0000938 -0.0001949 0.0000632 -0.0000999 0.0000254 -0.0001767 0.0000340 -0.0002209 0.0000510 -0.0001957 0.0000303 -0.0001177 -0.0107206 0.0138901 0.0002606 0.0000516 0.0003040 0.0003776 0.0000366 0.0006441 0.0025094 0.0004085 0.0002824 0.0000465 0.0001239 -0.0002760 0.0000678 -0.0000096 0.0001004 -0.0004083 0.0008317 -0.0010033 0.0001008 -0.0001143 -0.0005017 0.0002456
-0.0001660 0.0002737 -0.0001222 -0.0001137 0.0000489 0.0003884 -0.0000537 0.0001594 -0.0001069 0.0005047 -0.0000842 -0.0000817 -0.0000382 0.0000357 -0.0001096 0.0001368 -0.0001207 0.0002127 -0.0001650 0.0003090 -0.0001137 0.0004395 -0.0001087 0.0002127 -0.0000449 -0.0000680 -0.0001469 -0.0001635 -0.0001616 -0.0003731 -0.0001699 0.0001363 -0.0002575 -0.0001471 -0.0000634 -0.0000547 -0.0001054 0.0001665 -0.0000719 0.0000010 -0.0001438 0.0002463 -0.0000827 -0.0001944 -0.0000099 0.0004214 0.0000420 0.0002802 -0.0000471 0.0003696 0.0000100 0.0001182 -0.0001408 0.0002833 -0.0001421 0.0003195 -0.0000634 0.0001923 0.0000765 0.0000934 0.0000384 0.0000167 0.0003477 -0.0003298 -0.0000371 0.0004205 -0.0000849 -0.0000063 -0.0000844 0.0001483 -0.0046400 0.0031688 -0.0002636 0.0001750 -0.0004008 -0.0008673 0.0000423 0.0002626 -0.0043768 0.0013507 -0.0000841 -0.0000596 0.0001610 -0.0002737 -0.0000111 -0.0002067 0.0001070 -0.0001391 0.0000987 -0.0002683 0.0000371 -0.0001566 0.0000312 -0.0000909 0.0001963 0.0002549 0.0001422 -0.0004668 0.0000750 0.0001183 0.0000504 -0.0002037 0.0000730 -0.0001731 0.0001003 -0.0002729 0.0000854 -0.0002405 0.0000299 -0.0001883 0.0000341 -0.0002240 0.0000506 -0.0001810 0.0000325 -0.0000795 -0.0005830 -0.0066323 0.0001620 0.0002205 0.0003516 0.0003934 0.0000867 0.0006983 0.0015073 0.0012670 0.0004603 -0.0003726 0.0000926 0.0001489 0.0000409 0.0001923 0.0001033 -0.0001371 0.0007094 -0.0005331 0.0002626 -0.0001243 -0.0002878 -0.0000744
-0.0001824 0.0001884 -0.0001395 -0.0001214 0.0000502 0.0003138 -0.0000539 0.0001837 -0.0001486 0.0004146 -0.0000963 -0.0000768 -0.0000641 0.0000832 -0.0001428 0.0001138 -0.0001130 0.0001376 -0.0001720 0.0002715 -0.0001325 0.0003948 -0.0001292 0.0001690 -0.0000404 -0.0000782 -0.0001473 -0.0001768 -0.0001594 -0.0004040 -0.0001980 0.0001097 -0.0002790 -0.0001555 -0.0000761 -0.0000664 -0.0001312 0.0001827 -0.0000673 -0.0000383 -0.0001376 0.0002043 -0.0000762 -0.0002116 -0.0000167 0.0003894 0.0000532 0.0002279 0.0002077 0.0001550 -0.0000514 0.0000733 -0.0001881 0.0002074 -0.0002319 0.0002752 -0.0000819 0.0000925 0.0000885 -0.0000329 -0.0000388 0.0000391 0.0000661 -0.0001647 -0.0000938 0.0002685 -0.0002589 -0.0000367 -0.0000819 0.0000518 -0.0042644 0.0035061 -0.0005850 0.0004207 -0.0004540 -0.0005800 0.0000445 0.0004042 -0.0056867 0.0026758 0.0001818 -0.0002562 0.0001319 -0.0001497 0.0003781 -0.0004321 0.0000025 0.0000764 0.0001197 -0.0001606 0.0000388 -0.0000491 -0.0000165 0.0000490 0.0001949 0.0003485 0.0001394 -0.0003642 0.0000773 0.0001640 0.0000474 -0.0001432 0.0000444 -0.0000841 0.0000665 -0.0002259 0.0001057 -0.0002364 0.0000358 -0.0001314 0.0000503 -0.0002103 0.0000472 -0.0001933 0.0000330 -0.0000904 0.0105613 -0.0263097 0.0002004 0.0002743 0.0003126 0.0003649 0.0003915 0.0005015 0.0035984 -0.0008151 0.0002684 -0.0003339 0.0001391 0.0000024 -0.0000200 0.0002899 0.0001296 -0.0001222 0.0002178 -0.0001988 0.0003709 -0.0001789 -0.0004713 0.0000712
-0.0001900 0.0000168 -0.0001492 -0.0001935 0.0000371 0.0001375 -0.0000543 0.0001682 -0.0001784 0.0002316 -0.0001158 -0.0001693 -0.0000803 0.0000450 -0.0001742 -0.0000188 -0.0001055 -0.0000086 -0.0001877 0.0001645 -0.0001189 0.0002710 -0.0000884 0.0000192 -0.0000341 -0.0001375 -0.0001448 -0.0002587 -0.0001487 -0.0004579 -0.0002048 0.0000406 -0.0002928 -0.0001828 -0.0000910 -0.0001245 -0.0001687 0.0001810 -0.0000680 -0.0000842 -0.0001664 0.0001996 -0.0000691 -0.0001807 -0.0000387 0.0003666 0.0000608 0.0003009 0.0004771 -0.0001548 -0.0000856 0.0001789 -0.0001868 0.0002728 -0.0001979 0.0003956 -0.0001095 0.0002137 0.0000817 0.0000467 -0.0001271 0.0002687 -0.0002309 0.0003959 -0.0001431 0.0004856 -0.0002875 0.0001881 -0.0000853 0.0001640 -0.0009632 0.0000897 -0.0003487 0.0001283 -0.0004999 -0.0006221 0.0000442 0.0003878 -0.0037349 0.0013107 0.0001600 -0.0005800 0.0001733 -0.0002509 0.0007532 -0.0005732 -0.0000169 0.0000332 0.0000670 -0.0001731 0.0000725 -0.0001048 0.0000106 0.0000203 0.0001988 0.0003083 0.0001356 -0.0003564 0.0000784 0.0001448 0.0000424 -0.0001619 0.0000438 -0.0001048 0.0000505 -0.0002714 0.0001113 -0.0003253 0.0000402 -0.0001524 0.0000677 -0.0003003 0.0000473 -0.0002761 0.0000379 -0.0002198 0.0256208 -0.0532228 0.0004937 -0.0000709 0.0003584 0.0004002 0.0003767 0.0005518 0.0027297 -0.0007165 0.0005149 -0.0000260 0.0002345 -0.0002879 0.0000059 0.0001551 0.0000428 -0.0001937 0.0020290 -0.0022325 0.0001295 -0.0000669 -0.0009398 0.0007150
-0.0002035 0.0002127 -0.0001604 -0.0001285 0.0000349 0.0004243 -0.0000665 0.0002398 -0.0002270 0.0005429 -0.0001422 -0.0000688 -0.0001160 0.0001553 -0.0002242 0.0001643 -0.0001186 0.0001292 -0.0002112 0.0002783 -0.0001255 0.0003790 -0.0001160 0.0001306 -0.0000351 -0.0000198 -0.0001679 -0.0002038 -0.0001373 -0.0003361 -0.0002378 0.0001683 -0.0003416 -0.0001097 -0.0001295 0.0000034 -0.0002168 0.0003308 -0.0000728 -0.0000219 -0.0002348 0.0003440 -0.0000666 -0.0000816 -0.0000580 0.0004211 0.0000865 0.0004423 0.0001054 0.0000065 -0.0000571 0.0001663 -0.0001951 0.0002942 -0.0002181 0.0004403 -0.0000747 0.0001930 0.0000943 0.0000874 -0.0001295 0.0003214 -0.0006057 0.0008129 -0.0001631 0.0004641 -0.0002577 0.0001167 -0.0000869 0.0001957 -0.0004718 -0.0009959 0.0000631 -0.0003457 -0.0004937 -0.0007177 0.0000448 0.0003622 0.0002017 -0.0022554 -0.0007338 -0.0000671 0.0001980 -0.0002884 0.0003163 -0.0002220 -0.0001149 0.0001865 0.0000180 -0.0000695 0.0000892 -0.0000623 0.0000483 0.0000272 0.0001919 0.0003363 0.0001228 -0.0002718 0.0000816 0.0001882 0.0000525 -0.0000261 0.0000361 0.0000081 0.0000560 -0.0001888 0.0000960 -0.0001133 0.0000284 -0.0000251 0.0000590 -0.0000969 0.0000367 -0.0001639 0.0000372 -0.0000247 0.0188815 -0.0436942 0.0005049 -0.0001656 0.0003583 0.0004640 -0.0002832 0.0012970 -0.0016217 0.0028946 0.0004977 0.0001000 0.0001283 0.0002757 -0.0000578 0.0003898 0.0000249 -0.0000266 0.0028839 -0.0030735 -0.0000182 0.0001344 -0.0004166 0.0001395
-0.0002155 0.0001280 -0.0001723 -0.0001378 0.0000494 0.0004354 -0.0000755 0.0002167 -0.0002595 0.0004545 -0.0001546 -0.0000845 -0.0001427 0.0001695 -0.0002735 0.0001472 -0.0001026 0.0000749 -0.0002167 0.0002338 -0.0001393 0.0003284 -0.0001369 0.0000971 -0.0000322 -0.0000191 -0.0001789 -0.0001995 -0.0001271 -0.0003258 -0.0002679 0.0001565 -0.0003573 -0.0001428 -0.0001581 0.0000189 -0.0002519 0.0003376 -0.0000720 -0.0000476 -0.0002520 0.0003317 -0.0000635 -0.0000857 -0.0000695 0.0003963 0.0001233 0.0004651 -0.0000998 0.0002275 -0.0000469 0.0000944 -0.0002336 0.0002358 -0.0002706 0.0004103 -0.0000369 0.0000701 0.0001199 0.0000150 -0.0001079 0.0002239 -0.0005753 0.0004492 -0.0001757 0.0002906 -0.0000711 0.0000099 -0.0000953 0.0001636 -0.0013033 -0.0002528 0.0004074 -0.0004686 -0.0004535 -0.0007571 0.0000441 0.0003871 -0.0026398 -0.0005246 -0.0011012 0.0006847 0.0001001 -0.0002092 0.0000260 -0.0000846 -0.0000243 0.0001619 0.0000885 -0.0001238 0.0000831 -0.0000258 0.0000782 0.0000017 0.0001907 0.0004041 0.0001107 -0.0002106 0.0000836 0.0002107 0.0000441 0.0000014 0.0000183 0.0000432 0.0000576 -0.0002416 0.0000900 -0.0001281 0.0000285 0.0000019 0.0000571 -0.0000987 0.0000269 -0.0002116 0.0000386 -0.0000734 -0.0220211 0.0207940 0.0002006 0.0000348 0.0000912 0.0005860 -0.0003495 0.0012744 -0.0032790 0.0039063 -0.0004021 0.0008459 0.0000317 0.0002824 0.0000174 0.0003327 0.0001378 -0.0001066 0.0019542 -0.0015144 -0.0000832 0.0002729 -0.0003609 0.0000963
-0.0002240 -0.0000351 -0.0001819 -0.0001955 0.0000543 0.0003178 -0.0000825 0.0001694 -0.0002846 0.0002750 -0.0001785 -0.0001677 -0.0001682 0.0001254 -0.0003016 0.0000012 -0.0000972 -0.0000525 -0.0002169 0.0001225 -0.0001391 0.0002135 -0.0001169 -0.0000101 -0.0000308 -0.0000754 -0.0001834 -0.0002335 -0.0001176 -0.0003761 -0.0002768 0.0000721 -0.0003724 -0.0001825 -0.0001726 -0.0000263 -0.0002836 0.0003063 -0.0000710 -0.0001080 -0.0002502 0.0002804 -0.0000637 -0.0000911 -0.0000739 0.0003767 0.0001371 0.0005426 0.0000399 0.0002651 -0.0001074 0.0002211 -0.0002625 0.0003335 -0.0002575 0.0005121 -0.0000758 0.0001939 0.0000957 0.0001314 -0.0001842 0.0003470 -0.0000167 -0.0000949 -0.0002226 0.0004784 -0.0002566 0.0004344 -0.0000971 0.0002811 -0.0013065 -0.0010384 -0.0000778 -0.0001346 -0.0004161 -0.0009937 0.0000505 0.0002929 -0.0019591 0.0006911 -0.0009006 0.0002889 0.0000817 -0.0003173 0.0001175 -0.0002713 0.0001679 -0.0000627 0.0000635 -0.0002241 0.0000733 -0.0000976 0.0000712 -0.0000503 0.0002001 0.0003172 0.0000929 -0.0002227 0.0000906 0.0001531 0.0000367 -0.0000647 0.0000343 -0.0000517 0.0000750 -0.0003896 0.0000930 -0.0003033 0.0000413 -0.0000949 0.0000799 -0.0002756 0.0000342 -0.0003431 0.0000457 -0.0002650 -0.0159046 0.0237170 -0.0001599 0.0002356 0.0002738 0.0004315 0.0001303 0.0007790 -0.0023431 0.0027849 -0.0000148 0.0004735 0.0000610 0.0000896 0.0001063 0.0002306 0.0001827 -0.0001288 0.0009024 -0.0004508 0.0001643 0.0001864 -0.0004302 0.0002418
-0.0002385 0.0001507 -0.0001925 -0.0001328 0.0000492 0.0005105 -0.0000842 0.0002788 -0.0003239 0.0005899 -0.0002100 -0.0000851 -0.0002083 0.0002319 -0.0003379 0.0001647 -0.0001099 0.0000775 -0.0002446 0.0002280 -0.0001638 0.0003467 -0.0001539 0.0001096 -0.0000376 0.0000542 -0.0001996 -0.0001769 -0.0001098 -0.0002561 -0.0003001 0.0001928 -0.0004234 -0.0000933 -0.0002085 0.0000831 -0.0003249 0.0004286 -0.0000820 -0.0000349 -0.0002839 0.0003942 -0.0000710 0.0000300 -0.0000925 0.0004646 0.0001648 0.0006914 -0.0000564 0.0003127 -0.0000948 0.0002952 -0.0003565 0.0005222 -0.0003708 0.0006664 -0.0001148 0.0002492 0.0001108 0.0001318 -0.0002172 0.0004207 -0.0000306 -0.0000238 -0.0002192 0.0004867 -0.0001915 0.0003478 -0.0001038 0.0003073 0.0010636 -0.0020989 -0.0012727 0.0007412 -0.0004376 -0.0008128 0.0000664 0.0003642 0.0039680 -0.0036272 -0.0002974 -0.0001600 -0.0000089 -0.0001307 0.0004417 -0.0004107 0.0001318 0.0001470 0.0000264 -0.0000503 0.0000818 0.0000400 0.0000737 0.0000856 0.0002044 0.0004295 0.0000744 -0.0000924 0.0000957 0.0002134 0.0000322 0.0001240 0.0000471 0.0000759 0.0000857 -0.0002313 0.0000909 -0.0000410 0.0000472 0.0000438 0.0000742 -0.0000322 0.0000455 -0.0001987 0.0000438 -0.0000091 -0.0028055 0.0146526 0.0001237 -0.0000598 0.0004593 0.0004261 0.0003915 0.0007683 0.0002677 0.0011194 0.0003269 0.0000527 0.0000951 0.0001975 0.0001400 0.0002731 0.0001525 -0.0000682 0.0001619 -0.0000256 0.0002624 0.0001416 -0.0000206 -0.0001761
-0.0002436 0.0000833 -0.0001993 -0.0001329 0.0000350 0.0004034 -0.0000751 0.0003310 -0.0003527 0.0005583 -0.0002246 -0.0001077 -0.0002476 0.0002421 -0.0003669 0.0001625 -0.0001037 0.0000661 -0.0002558 0.0001904 -0.0001785 0.0003261 -0.0001695 0.0001033 -0.0000381 0.0000884 -0.0002038 -0.0001759 -0.0001030 -0.0002306 -0.0003325 0.0002016 -0.0004448 -0.0001142 -0.0002365 0.0000927 -0.0003640 0.0004355 -0.0000857 -0.0000508 -0.0002816 0.0003596 -0.0000709 0.0000306 -0.0000998 0.0004598 0.0001846 0.0006851 0.0001485 0.0002059 -0.0001151 0.0002713 -0.0003557 0.0004513 -0.0003440 0.0005461 -0.0000855 0.0001457 0.0001024 0.0000567 -0.0001158 0.0003746 -0.0001346 0.0001093 -0.0001987 0.0003494 0.0000228 -0.0000010 -0.0001275 0.0002687 -0.0008268 -0.0003586 -0.0007001 0.0002608 -0.0004808 -0.0008088 0.0000527 0.0004033 0.0002568 -0.0024114 -0.0011378 0.0007908 -0.0000185 -0.0001362 0.0006360 -0.0005874 -0.0000040 0.0002092 0.0000630 -0.0000872 0.0000723 0.0000769 0.0001117 0.0000311 0.0002135 0.0004935 0.0000696 -0.0000955 0.0000923 0.0002184 0.0000321 0.0000995 0.0000475 0.0000801 0.0000634 -0.0002377 0.0000987 -0.0001067 0.0000442 0.0000592 0.0000651 -0.0000553 0.0000455 -0.0002576 0.0000488 -0.0001017 -0.0023808 0.0035483 0.0002856 -0.0001812 0.0002780 0.0007807 0.0001651 0.0008250 0.0003853 0.0006124 -0.0001143 0.0004786 0.0001486 -0.0000339 0.0001920 0.0001124 0.0002496 -0.0001950 -0.0001009 0.0013050 0.0002082 0.0000571 0.0000726 -0.0001770
-0.0002502 -0.0000650 -0.0002013 -0.0001933 0.0000258 0.0002326 -0.0000695 0.0003058 -0.0003815 0.0004092 -0.0002416 -0.0001925 -0.0002842 0.0001852 -0.0003834 0.0000277 -0.0001021 -0.0000301 -0.0002560 0.0000935 -0.0001830 0.0002206 -0.0001699 0.0000211 -0.0000333 0.0000510 -0.0002057 -0.0002001 -0.0000952 -0.0002706 -0.0003450 0.0001228 -0.0004619 -0.0001593 -0.0002488 0.0000595 -0.0003907 0.0003987 -0.0000790 -0.0001199 -0.0002854 0.0003175 -0.0000698 -0.0000264 -0.0000749 0.0005275 0.0001816 0.0006524 0.0003369 0.0000575 -0.0001073 0.0002653 -0.0002997 0.0003667 -0.0002452 0.0004833 -0.0001128 0.0002185 0.0000601 0.0001530 0.0000041 0.0003138 -0.0005428 0.0004878 -0.0002503 0.0004746 -0.0001073 0.0001745 -0.0001327 0.0003456 -0.0008692 -0.0013597 0.0006175 -0.0008071 -0.0004717 -0.0010790 0.0000522 0.0003092 -0.0005788 -0.0009802 -0.0014248 0.0008181 0.0001417 -0.0004217 -0.0000728 -0.0001618 0.0000531 0.0000312 0.0000461 -0.0001794 0.0000732 -0.0000045 0.0002310 -0.0001942 0.0002074 0.0003943 0.0000862 -0.0001977 0.0000938 0.0001534 0.0000436 -0.0000154 0.0000577 -0.0000157 0.0000777 -0.0003712 0.0001131 -0.0003155 0.0000375 -0.0000387 0.0000752 -0.0002326 0.0000536 -0.0003883 0.0000567 -0.0003323 -0.0092125 0.0062506 0.0003130 -0.0001888 0.0001697 0.0008271 -0.0001953 0.0009747 -0.0022320 0.0028076 -0.0001410 0.0004300 0.0001109 0.0001540 0.0001056 0.0002313 0.0002853 -0.0000886 0.0001902 0.0011844 0.0000072 0.0002478 0.0000500 -0.0001752
-0.0002685 0.0001052 -0.0002119 -0.0001461 0.0000174 0.0004341 -0.0000721 0.0003812 -0.0004274 0.0006680 -0.0002714 -0.0000966 -0.0003187 0.0003080 -0.0004174 0.0001533 -0.0001014 0.0000533 -0.0002888 0.0002114 -0.0001986 0.0003025 -0.0001741 0.0000818 -0.0000332 0.0001556 -0.0002141 -0.0001094 -0.0000901 -0.0001645 -0.0003654 0.0002167 -0.0005017 -0.0000880 -0.0002744 0.0001795 -0.0004186 0.0005237 -0.0000877 -0.0000579 -0.0003213 0.0004632 -0.0000757 0.0000696 -0.0000564 0.0007185 0.0001927 0.0007426 0.0002870 0.0001092 -0.0000747 0.0003080 -0.0003099 0.0004714 -0.0002657 0.0005750 -0.0001353 0.0002819 0.0001004 0.0001837 -0.0000166 0.0003613 -0.0003093 0.0002194 -0.0003288 0.0005143 -0.0002295 0.0003497 -0.0001366 0.0003688 0.0002790 -0.0022447 0.0006558 -0.0008429 -0.0005395 -0.0007927 0.0000692 0.0004214 -0.0003868 -0.0008798 -0.0008449 0.0006184 0.0001082 -0.0002294 -0.0003347 0.0001888 0.0000194 0.0002640 -0.0000012 0.0000639 0.0000908 0.0001693 0.0001294 0.0000988 0.0002022 0.0005364 0.0000820 -0.0000786 0.0000991 0.0002268 0.0000371 0.0001994 0.0000525 0.0001467 0.0000833 -0.0001724 0.0001055 0.0000056 0.0000356 0.0001304 0.0000753 0.0000468 0.0000512 -0.0002029 0.0000429 -0.0000397 -0.0146958 0.0193040 0.0003801 -0.0002555 0.0003216 0.0005874 -0.0000906 0.0009656 0.0027993 -0.0002472 0.0002219 0.0001393 0.0001131 0.0002498 0.0000940 0.0004009 0.0001734 0.0000443 0.0018962 -0.0014383 0.0000823 0.0002907 -0.0001894 0.0001436
-0.0002744 0.0000476 -0.0002242 -0.0001401 0.0000141 0.0003869 -0.0000687 0.0003969 -0.0004475 0.0006032 -0.0002900 -0.0000801 -0.0003495 0.0003638 -0.0004333 0.0001196 -0.0001074 0.0000239 -0.0003036 0.0001952 -0.0001950 0.0002402 -0.0001675 0.0000418 -0.0000331 0.0001736 -0.0002127 -0.0000823 -0.0000941 -0.0001460 -0.0003797 0.0001902 -0.0005163 -0.0001194 -0.0002777 0.0001716 -0.0004343 0.0005327 -0.0000856 -0.0000849 -0.0003155 0.0004535 -0.0000721 0.0000833 -0.0000537 0.0007246 0.0001756 0.0007310 0.0001731 0.0001741 -0.0001320 0.0002849 -0.0002848 0.0003927 -0.0001570 0.0003907 -0.0000851 0.0001564 0.0001462 0.0001156 -0.0000501 0.0004167 0.0005632 -0.0004481 -0.0003836 0.0004396 -0.0001433 0.0001381 -0.0001479 0.0003188 0.0007653 -0.0026161 0.0001716 -0.0006415 -0.0006027 -0.0007747 0.0000624 0.0004492 -0.0061553 0.0016620 0.0001928 -0.0002054 0.0000508 -0.0001934 -0.0001158 0.0001103 -0.0000179 0.0002848 0.0000062 0.0000296 0.0000673 0.0002099 0.0000304 0.0002090 0.0002109 0.0005762 0.0000638 -0.0000734 0.0000941 0.0002215 0.0000289 0.0001647 0.0000493 0.0001328 0.0000785 -0.0002156 0.0001090 -0.0000663 0.0000427 0.0001276 0.0000779 -0.0000069 0.0000516 -0.0002478 0.0000439 -0.0001127 -0.0028671 0.0000864 0.0001503 -0.0000525 0.0003875 0.0004054 0.0000344 0.0009441 0.0062710 -0.0039749 -0.0004269 0.0004458 0.0001534 -0.0000078 0.0000480 0.0003932 0.0000428 0.0000875 0.0032386 -0.0028218 0.0003934 -0.0000051 -0.0000417 -0.0001859
-0.0002726 -0.0001119 -0.0002261 -0.0001971 0.0000154 0.0002228 -0.0000603 0.0003543 -0.0004690 0.0004442 -0.0002967 -0.0001460 -0.0003688 0.0003083 -0.0004344 -0.0000388 -0.0001090 -0.0000772 -0.0002938 0.0000838 -0.0002027 0.0001248 -0.0001599 -0.0000533 -0.0000299 0.0001349 -0.0001976 -0.0001078 -0.0000972 -0.0001772 -0.0003777 0.0000902 -0.0005201 -0.0001963 -0.0002663 0.0001221 -0.0004419 0.0004874 -0.0000801 -0.0001582 -0.0003148 0.0004097 -0.0000641 0.0000565 -0.0000388 0.0006966 0.0001728 0.0006685 0.0004172 -0.0000937 -0.0001540 0.0002809 -0.0002652 0.0003273 -0.0001400 0.0003587 -0.0001183 0.0001796 0.0001289 0.0001910 -0.0000818 0.0005661 0.0002703 -0.0001035 -0.0003804 0.0005071 -0.0000058 0.0000433 -0.0001634 0.0003896 -0.0008535 -0.0007140 -0.0006710 0.0000629 -0.0006010 -0.0009761 0.0000570 0.0003444 0.0012881 -0.0031986 -0.0002462 -0.0005003 0.0000990 -0.0003162 -0.0004275 0.0002929 -0.0000451 0.0001797 0.0000669 -0.0001861 0.0000673 0.0001032 0.0001684 -0.0000236 0.0002017 0.0004296 0.0000566 -0.0001590 0.0000911 0.0001588 0.0000205 0.0000529 0.0000500 0.0000336 0.0000955 -0.0003658 0.0001198 -0.0002777 0.0000327 0.0000361 0.0000876 -0.0001852 0.0000697 -0.0003662 0.0000633 -0.0003124 0.0074771 -0.0181494 0.0001747 -0.0000521 0.0002531 0.0004400 0.0000507 0.0009482 0.0014220 -0.0001056 -0.0001109 0.0003351 0.0001583 0.0002640 0.0001326 0.0003488 -0.0000416 0.0002967 0.0016103 -0.0008880 0.0003327 0.0002081 -0.0000285 -0.0000377
-0.0002780 0.0000354 -0.0002307 -0.0001611 0.0000009 0.0003436 -0.0000557 0.0004317 -0.0005072 0.0006839 -0.0003092 -0.0000839 -0.0003920 0.0003819 -0.0004547 0.0000577 -0.0001061 0.0000099 -0.0002904 0.0001454 -0.0002284 0.0002040 -0.0001862 0.0000356 -0.0000304 0.0002317 -0.0002041 -0.0000414 -0.0000878 -0.0000842 -0.0003890 0.0001707 -0.0005507 -0.0001565 -0.0002698 0.0002258 -0.0004587 0.0005920 -0.0000870 -0.0001018 -0.0003527 0.0005365 -0.0000687 0.0001707 -0.0000457 0.0007627 0.0001805 0.0007951 -0.0000083 0.0002849 -0.0001799 0.0004027 -0.0002799 0.0004376 -0.0001332 0.0004593 -0.0001764 0.0003087 0.0001445 0.0002458 -0.0000451 0.0006346 -0.0000220 0.0001280 -0.0004135 0.0005152 -0.0000863 0.0002408 -0.0001607 0.0004044 -0.0012567 0.0000792 -0.0002408 -0.0001666 -0.0005484 -0.0006978 0.0000554 0.0004850 0.0019453 -0.0016869 0.0005748 -0.0010297 0.0000183 0.0000298 -0.0002028 0.0001860 0.0000414 0.0002433 0.0000838 0.0000441 0.0000839 0.0002678 0.0001604 0.0001785 0.0001727 0.0005636 0.0000418 -0.0000261 0.0000980 0.0002553 0.0000148 0.0002576 0.0000383 0.0002178 0.0000701 -0.0001269 0.0001048 0.0000852 0.0000228 0.0002214 0.0000815 0.0001293 0.0000562 -0.0001821 0.0000481 0.0000050 0.0110534 -0.0298160 0.0002650 -0.0000732 0.0004037 0.0001805 0.0000805 0.0009294 0.0003532 0.0017053 0.0010597 -0.0006794 0.0001603 0.0003885 0.0001182 0.0004276 -0.0000705 0.0002988 -0.0004681 0.0005098 -0.0000326 0.0005668 -0.0006147 0.0006166
-0.0002827 -0.0000277 -0.0002377 -0.0001487 -0.0000056 0.0002887 -0.0000547 0.0004496 -0.0005185 0.0006153 -0.0003136 -0.0000954 -0.0004132 0.0004050 -0.0004662 0.0000273 -0.0000959 -0.0000244 -0.0002898 0.0001088 -0.0002384 0.0001679 -0.0001981 0.0000040 -0.0000294 0.0002436 -0.0002101 -0.0000412 -0.0000740 -0.0000806 -0.0003907 0.0001463 -0.0005764 -0.0001723 -0.0002553 0.0001953 -0.0004614 0.0005779 -0.0000916 -0.0001167 -0.0003657 0.0005130 -0.0000672 0.0001805 -0.0000664 0.0006817 0.0001996 0.0007365 -0.0003588 0.0005525 -0.0001109 0.0002844 -0.0002800 0.0003784 -0.0000939 0.0003776 -0.0001559 0.0002166 0.0001864 0.0001526 -0.0000135 0.0005645 -0.0000087 0.0001412 -0.0004130 0.0003766 0.0000472 0.0000410 -0.0001324 0.0003036 0.0006432 -0.0023565 0.0004751 -0.0007036 -0.0004776 -0.0007590 0.0000530 0.0005097 -0.0085980 0.0057600 0.0014065 -0.0012124 -0.0000417 0.0000517 0.0002984 -0.0001608 0.0000540 0.0002088 0.0001138 0.0000184 0.0000509 0.0003054 0.0001224 0.0002042 0.0001558 0.0006162 0.0000312 -0.0000370 0.0000969 0.0002887 0.0000232 0.0002051 0.0000507 0.0002000 0.0000572 -0.0001671 0.0000899 0.0000399 0.0000314 0.0002178 0.0000810 0.0000911 0.0000477 -0.0002310 0.0000460 -0.0000478 0.0092743 -0.0148956 0.0003742 -0.0000553 0.0004433 0.0001391 0.0002336 0.0006479 0.0017115 0.0013470 0.0005228 -0.0005305 0.0000931 0.0002305 -0.0000370 0.0005453 -0.0000400 0.0001856 -0.0017887 0.0013417 -0.0000999 0.0004667 -0.0003436 0.0003651
-0.0002780 -0.0002035 -0.0002312 -0.0002029 -0.0000027 0.0002027 -0.0000554 0.0003977 -0.0005321 0.0004344 -0.0003053 -0.0001796 -0.0004165 0.0003309 -0.0004508 -0.0001485 -0.0000889 -0.0001341 -0.0002856 -0.0000012 -0.0002377 0.0000684 -0.0001803 -0.0001145 -0.0000278 0.0001984 -0.0001998 -0.0000897 -0.0000716 -0.0001159 -0.0003801 0.0000489 -0.0005813 -0.0002375 -0.0002437 0.0001212 -0.0004594 0.0005125 -0.0000892 -0.0001831 -0.0003486 0.0004085 -0.0000666 0.0001385 -0.0000720 0.0005717 0.0001957 0.0006366 -0.0000316 0.0001530 -0.0000630 0.0001992 -0.0002596 0.0003002 -0.0001044 0.0003631 -0.0001234 0.0001547 0.0002604 0.0001106 -0.0000806 0.0006500 -0.0003615 0.0005095 -0.0004013 0.0004424 0.0003412 -0.0002152 -0.0001252 0.0003279 -0.0007532 -0.0024636 -0.0002009 -0.0000921 -0.0005041 -0.0009420 0.0000514 0.0004152 -0.0145597 0.0087039 0.0005353 -0.0002512 0.0000677 -0.0001823 0.0000558 -0.0001213 0.0001390 0.0000696 0.0001271 -0.0001334 0.0000257 0.0002285 0.0001596 0.0000534 0.0001519 0.0004854 0.0000208 -0.0001198 0.0000866 0.0002589 0.0000198 0.0000897 0.0000437 0.0001179 0.0000898 -0.0003404 0.0001038 -0.0001669 0.0000399 0.0001230 0.0000865 -0.0000776 0.0000515 -0.0003411 0.0000531 -0.0002020 0.0092675 -0.0204052 0.0002105 0.0000888 0.0003702 0.0004775 0.0002595 0.0005417 0.0020049 0.0004247 0.0000244 0.0001706 -0.0000580 0.0006603 -0.0000794 0.0006292 0.0000060 0.0003563 -0.0019493 0.0019008 -0.0001616 0.0005643 0.0000662 0.0001377
-0.0002746 -0.0000670 -0.0002209 -0.0001867 -0.0000019 0.0004168 -0.0000562 0.0004434 -0.0005495 0.0006356 -0.0003107 -0.0001264 -0.0004333 0.0004049 -0.0004448 -0.0000868 -0.0000983 -0.0000384 -0.0002991 0.0000800 -0.0002548 0.0001422 -0.0002047 -0.0000351 -0.0000282 0.0002766 -0.0002043 -0.0000346 -0.0000758 -0.0000318 -0.0003846 0.0001161 -0.0006069 -0.0002033 -0.0002523 0.0002083 -0.0004779 0.0005982 -0.0000897 -0.0001416 -0.0003375 0.0004504 -0.0000779 0.0002226 -0.0000702 0.0006647 0.0001668 0.0007831 -0.0000936 0.0001901 -0.0000612 0.0003354 -0.0002469 0.0003935 -0.0001299 0.0004738 -0.0001264 0.0002699 0.0002819 0.0001880 -0.0000614 0.0006793 -0.0001836 0.0004175 -0.0004063 0.0004794 0.0002128 -0.0000905 -0.0001334 0.0003631 -0.0004683 -0.0020351 -0.0003954 0.0001728 -0.0004609 -0.0006884 0.0000426 0.0005692 -0.0021554 0.0012748 0.0004358 -0.0002592 0.0000690 0.0000313 -0.0002881 0.0002947 0.0002338 0.0001828 0.0000624 0.0002013 0.0000562 0.0004006 0.0001480 0.0002414 0.0001385 0.0006599 0.0000210 0.0000112 0.0000872 0.0003458 -0.0000026 0.0003086 0.0000203 0.0003114 0.0000851 -0.0001184 0.0000920 0.0001902 0.0000497 0.0003019 0.0000588 0.0002589 0.0000320 -0.0001398 0.0000389 0.0001219 0.0057038 -0.0088822 -0.0001368 0.0003721 0.0002672 0.0007332 -0.0001405 0.0009865 0.0008623 0.0002982 0.0006663 -0.0002596 -0.0001292 0.0007789 -0.0000458 0.0006051 -0.0000014 0.0003291 -0.0004048 0.0010611 -0.0002754 0.0006967 0.0004265 -0.0004191
-0.0002740 -0.0001138 -0.0002227 -0.0001810 0.0000022 0.0003721 -0.0000551 0.0004665 -0.0005344 0.0005540 -0.0003028 -0.0001384 -0.0004488 0.0004401 -0.0004432 -0.0001117 -0.0001061 -0.0000523 -0.0002969 0.0000503 -0.0002601 0.0000926 -0.0002047 -0.0000468 -0.0000248 0.0002824 -0.0002111 -0.0000207 -0.0000691 -0.0000307 -0.0003788 0.0000831 -0.0006233 -0.0002360 -0.0002406 0.0001910 -0.0004844 0.0005808 -0.0000937 -0.0001603 -0.0003364 0.0004182 -0.0000768 0.0002111 -0.0000604 0.0006524 0.0001943 0.0007153 0.0000709 0.0001529 -0.0000549 0.0002721 -0.0002666 0.0003619 -0.0001817 0.0004051 -0.0001091 0.0001741 0.0002287 0.0002206 -0.0000024 0.0006259 0.0001897 0.0000454 -0.0003848 0.0003185 -0.0000760 0.0000482 -0.0001383 0.0002870 -0.0000489 -0.0019352 0.0001113 -0.0002236 -0.0004602 -0.0006714 0.0000396 0.0005989 -0.0017423 0.0003500 0.0007976 -0.0009658 0.0000058 0.0000808 -0.0001271 0.0003020 0.0001133 0.0002636 0.0000483 0.0001777 0.0000367 0.0004248 0.0001330 0.0002385 0.0001402 0.0007382 0.0000066 0.0000257 0.0000862 0.0003524 -0.0000159 0.0002906 -0.0000112 0.0003346 0.0000584 -0.0001176 0.0000768 0.0001372 0.0000512 0.0003140 0.0000627 0.0002326 0.0000234 -0.0001366 0.0000422 0.0000879 -0.0060982 0.0173193 0.0000657 0.0002796 0.0001435 0.0007249 -0.0003657 0.0012685 0.0004575 0.0012135 0.0005852 -0.0002656 -0.0000330 0.0004698 0.0000778 0.0004681 -0.0000668 0.0002915 0.0020999 -0.0006842 -0.0001715 0.0005526 0.0006639 -0.0005684
-0.0002652 -0.0002933 -0.0002216 -0.0002389 -0.0000024 0.0001936 -0.0000433 0.0004306 -0.0004892 0.0003113 -0.0002811 -0.0002392 -0.0004455 0.0003573 -0.0004302 -0.0002684 -0.0000967 -0.0001682 -0.0002820 -0.0000837 -0.0002508 -0.0000329 -0.0001723 -0.0001539 -0.0000195 0.0002253 -0.0002026 -0.0000783 -0.0000658 -0.0000759 -0.0003584 -0.0000362 -0.0006139 -0.0003444 -0.0002216 0.0001118 -0.0004660 0.0004819 -0.0000928 -0.0002309 -0.0003478 0.0003313 -0.0000689 0.0001479 -0.0000539 0.0005811 0.0002357 0.0005751 0.0001114 -0.0000056 -0.0001462 0.0002267 -0.0002473 0.0002284 -0.0001246 0.0002332 -0.0000963 0.0000539 0.0002543 0.0001763 0.0000230 0.0006208 0.0002173 -0.0000439 -0.0003213 0.0002697 -0.0000796 0.0001580 -0.0001123 0.0002448 -0.0022828 -0.0006963 0.0001673 -0.0003554 -0.0005261 -0.0007547 0.0000280 0.0005468 -0.0037335 0.0014049 0.0022695 -0.0018858 -0.0000242 0.0000346 0.0002073 -0.0000724 0.0001262 0.0001457 0.0000484 -0.0000352 0.0000633 0.0002941 0.0000743 0.0002096 0.0001468 0.0006417 -0.0000197 -0.0000226 0.0000750 0.0003239 -0.0000056 0.0001708 -0.0000118 0.0002511 0.0000501 -0.0002091 0.0000854 -0.0000521 0.0000482 0.0002368 0.0000671 0.0000825 0.0000272 -0.0001974 0.0000458 -0.0000432 -0.0124785 0.0175437 0.0002983 0.0000421 -0.0001679 0.0010306 -0.0000077 0.0010944 0.0020446 0.0000999 -0.0001080 0.0004853 -0.0000106 0.0008159 0.0001030 0.0005090 -0.0000477 0.0005390 0.0006891 -0.0000540 -0.0000624 0.0005717 0.0004810 -0.0003663
-0.0002576 -0.0001888 -0.0002230 -0.0002279 -0.0000167 0.0003566 -0.0000462 0.0004698 -0.0004713 0.0004336 -0.0002804 -0.0002087 -0.0004375 0.0003684 -0.0004240 -0.0002199 -0.0000901 -0.0001050 -0.0002788 -0.0000387 -0.0002711 0.0000317 -0.0001808 -0.0001148 -0.0000138 0.0002760 -0.0002045 -0.0000519 -0.0000619 -0.0000381 -0.0003479 -0.0000151 -0.0006322 -0.0003293 -0.0002199 0.0001777 -0.0004583 0.0005176 -0.0000975 -0.0001966 -0.0003264 0.0003363 -0.0000732 0.0002090 -0.0000512 0.0006803 0.0002362 0.0006857 0.0001566 -0.0001026 -0.0001394 0.0003425 -0.0002240 0.0003121 -0.0001147 0.0003067 -0.0001317 0.0001928 0.0002118 0.0003056 -0.0001189 0.0007402 -0.0000484 0.0001993 -0.0002904 0.0002477 -0.0000904 0.0001456 -0.0001108 0.0002351 -0.0031857 0.0006875 -0.0001677 -0.0001809 -0.0005558 -0.0003714 0.0000063 0.0007417 0.0006210 -0.0006620 0.0020055 -0.0011955 -0.0000945 0.0003277 0.0002541 0.0000073 0.0001182 0.0004168 0.0000023 0.0002428 0.0000661 0.0004609 0.0000698 0.0004126 0.0001329 0.0008269 -0.0000238 0.0001144 0.0000643 0.0004227 -0.0000171 0.0003713 0.0000160 0.0003921 0.0000287 0.0000325 0.0000596 0.0003359 0.0000355 0.0004155 0.0000512 0.0003425 0.0000156 -0.0000288 0.0000276 0.0001395 0.0033652 -0.0193482 0.0004115 0.0000388 -0.0002157 0.0011809 0.0001448 0.0010516 0.0004799 0.0017065 -0.0005371 0.0010694 -0.0000629 0.0009248 0.0000653 0.0005552 -0.0000185 0.0005829 -0.0012519 0.0005718 -0.0000227 0.0005968 0.0002628 -0.0000458
-0.0002525 -0.0002514 -0.0002218 -0.0002376 -0.0000125 0.0003605 -0.0000581 0.0004702 -0.0004844 0.0003547 -0.0002716 -0.0002306 -0.0004238 0.0003640 -0.0004027 -0.0002615 -0.0000751 -0.0001399 -0.0002586 -0.0000751 -0.0002818 -0.0000141 -0.0002091 -0.0001153 -0.0000069 0.0002546 -0.0002004 -0.0000631 -0.0000592 -0.0000743 -0.0003393 -0.0000674 -0.0006335 -0.0003902 -0.0002100 0.0001442 -0.0004359 0.0004566 -0.0000951 -0.0002253 -0.0002858 0.0002436 -0.0000695 0.0001750 -0.0000425 0.0006561 0.0002052 0.0006792 0.0000027 0.0000435 -0.0000762 0.0002419 -0.0002154 0.0002135 -0.0000389 0.0001970 -0.0001316 0.0001084 0.0002044 0.0002739 -0.0001423 0.0006831 -0.0002068 0.0001684 -0.0003479 0.0001520 -0.0000727 0.0001095 -0.0001109 0.0001370 -0.0028022 0.0007285 0.0001191 -0.0002996 -0.0006260 -0.0003299 0.0000010 0.0007782 0.0016833 -0.0020177 0.0009823 -0.0004875 -0.0000448 0.0002396 0.0002678 -0.0000182 0.0000191 0.0004914 -0.0000196 0.0002584 0.0000393 0.0004737 -0.0000023 0.0003953 0.0001144 0.0008873 -0.0000503 0.0001469 0.0000552 0.0004233 -0.0000373 0.0003645 0.0000120 0.0003857 0.0000133 0.0000451 0.0000364 0.0003111 0.0000309 0.0004285 0.0000600 0.0003106 0.0000088 -0.0000277 0.0000207 0.0001020 0.0250335 -0.0689356 0.0003777 0.0001069 -0.0000564 0.0009104 -0.0001719 0.0011476 -0.0016899 0.0032291 0.0005248 0.0001176 -0.0000198 0.0006679 -0.0000043 0.0005499 -0.0000710 0.0004948 -0.0005419 -0.0000837 -0.0000515 0.0005886 -0.0002038 0.0003956
-0.0002393 -0.0004488 -0.0002163 -0.0003080 0.0000046 0.0002351 -0.0000504 0.0004135 -0.0004504 0.0001174 -0.0002439 -0.0003540 -0.0004112 0.0002929 -0.0003566 -0.0004503 -0.0000531 -0.0002771 -0.0002446 -0.0002052 -0.0002763 -0.0001595 -0.0002104 -0.0001989 -0.0000073 0.0001849 -0.0001902 -0.0001291 -0.0000577 -0.0001392 -0.0003242 -0.0001851 -0.0006221 -0.0005252 -0.0001923 0.0000387 -0.0003967 0.0003252 -0.0000860 -0.0003101 -0.0002860 0.0001372 -0.0000604 0.0000977 -0.0000399 0.0005063 0.0001890 0.0005980 -0.0002788 0.0002302 -0.0001008 0.0001456 -0.0002450 0.0001009 0.0000351 0.0000282 -0.0001252 -0.0000296 0.0002822 0.0001334 -0.0000773 0.0005760 0.0002385 -0.0002261 -0.0002817 0.0000822 0.0000648 0.0000333 -0.0000920 0.0000880 -0.0000252 -0.0013432 0.0002805 -0.0004107 -0.0005741 -0.0005720 0.0000021 0.0007224 0.0010436 -0.0011991 -0.0008232 0.0007674 0.0000143 0.0000229 0.0002180 -0.0001279 -0.0000047 0.0002951 -0.0000026 0.0001546 0.0000414 0.0003823 0.0000094 0.0003012 0.0001117 0.0007683 -0.0000821 0.0001174 0.0000491 0.0004057 -0.0000515 0.0002839 -0.0000057 0.0003250 0.0000061 -0.0000515 0.0000476 0.0001270 0.0000348 0.0003652 0.0000609 0.0002417 0.0000038 -0.0000503 0.0000258 0.0001238 0.0128404 -0.0234383 0.0002819 0.0001088 -0.0002547 0.0011472 -0.0001053 0.0011517 -0.0040549 0.0052606 0.0004229 -0.0002365 -0.0000426 0.0010358 -0.0000985 0.0007347 -0.0000495 0.0006395 -0.0005334 0.0002539 0.0000088 0.0007781 -0.0006939 0.0008766
-0.0002332 -0.0003519 -0.0002137 -0.0003077 0.0000152 0.0004117 -0.0000533 0.0004294 -0.0004212 0.0002218 -0.0002381 -0.0003512 -0.0004076 0.0003065 -0.0003345 -0.0004457 -0.0000458 -0.0002444 -0.0002376 -0.0001904 -0.0002785 -0.0001193 -0.0001906 -0.0001735 -0.0000097 0.0002395 -0.0001975 -0.0001106 -0.0000515 -0.0000920 -0.0003114 -0.0001603 -0.0006347 -0.0005196 -0.0001899 0.0000862 -0.0003817 0.0003562 -0.0000901 -0.0002775 -0.0002846 0.0001708 -0.0000605 0.0001572 -0.0000454 0.0005007 0.0001828 0.0006893 -0.0002664 0.0003245 -0.0000892 0.0002863 -0.0002582 0.0002338 -0.0000972 0.0001902 -0.0001136 0.0000812 0.0002556 0.0002360 -0.0000642 0.0006541 0.0000779 -0.0000927 -0.0001817 0.0000176 0.0003570 -0.0002546 -0.0000796 0.0000709 0.0001628 -0.0009887 0.0000021 -0.0001200 -0.0004945 -0.0002853 -0.0000107 0.0009175 0.0012667 -0.0017251 -0.0005232 0.0006768 -0.0001214 0.0002853 0.0002719 0.0000638 0.0001487 0.0003730 0.0000029 0.0003868 0.0000285 0.0005555 0.0000051 0.0004887 0.0001209 0.0008326 -0.0000850 0.0002121 0.0000446 0.0004784 -0.0000571 0.0003570 -0.0000247 0.0003987 -0.0000064 0.0000030 0.0000367 0.0002045 0.0000202 0.0004068 0.0000496 0.0002692 -0.0000185 -0.0000188 0.0000206 0.0001336 0.0035698 -0.0088148 0.0002366 0.0002515 0.0001190 0.0007465 -0.0000545 0.0012503 -0.0028697 0.0043502 -0.0006265 0.0007172 -0.0002261 0.0010895 -0.0001063 0.0007307 0.0000254 0.0005786 -0.0005195 0.0003124 0.0000228 0.0007397 -0.0005088 0.0008860
-0.0002331 -0.0003925 -0.0002074 -0.0003070 0.0000265 0.0004105 -0.0000585 0.0004234 -0.0004241 0.0001493 -0.0002448 -0.0003501 -0.0004001 0.0002956 -0.0003316 -0.0004666 -0.0000232 -0.0002799 -0.0002139 -0.0002428 -0.0002678 -0.0001637 -0.0001834 -0.0001966 -0.0000019 0.0002242 -0.0001961 -0.0001254 -0.0000489 -0.0000963 -0.0002973 -0.0002017 -0.0006242 -0.0005680 -0.0001806 0.0000657 -0.0003622 0.0003158 -0.0000911 -0.0002942 -0.0002680 0.0001201 -0.0000504 0.0001356 -0.0000384 0.0004291 0.0001962 0.0006164 -0.0001895 0.0002168 -0.0000574 0.0001983 -0.0001960 0.0000944 -0.0001462 0.0001539 -0.0000612 -0.0000573 0.0002097 0.0002460 -0.0000419 0.0006062 -0.0000907 -0.0001817 -0.0001764 -0.0001249 0.0003794 -0.0003028 -0.0000635 -0.0000353 -0.0017804 0.0005230 -0.0002903 0.0001601 -0.0005401 -0.0003141 -0.0000224 0.0009207 0.0035035 -0.0037093 0.0001785 -0.0001557 -0.0001567 0.0002533 0.0001528 0.0001915 0.0001545 0.0003660 0.0000051 0.0002788 0.0000405 0.0004887 -0.0000525 0.0004577 0.0001093 0.0008060 -0.0000977 0.0002037 0.0000367 0.0004620 -0.0000701 0.0002953 -0.0000098 0.0003218 -0.0000296 -0.0000404 0.0000262 0.0001000 0.0000143 0.0003393 0.0000546 0.0001541 -0.0000294 -0.0000922 0.0000193 0.0000087 -0.0054897 0.0073583 0.0002866 0.0004369 0.0003767 0.0004130 -0.0003887 0.0014850 -0.0003236 0.0018334 -0.0008643 0.0009821 -0.0002724 0.0008278 -0.0000221 0.0006017 -0.0000089 0.0004969 0.0003849 -0.0007482 0.0000689 0.0005482 -0.0000460 0.0004939
-0.0002249 -0.0005711 -0.0001970 -0.0003684 0.0000339 0.0002428 -0.0000483 0.0003925 -0.0003919 -0.0000797 -0.0002184 -0.0004510 -0.0003813 0.0002134 -0.0002998 -0.0006179 -0.0000095 -0.0003927 -0.0001872 -0.0003872 -0.0002509 -0.0003051 -0.0001766 -0.0002884 0.0000094 0.0001436 -0.0001781 -0.0002123 -0.0000417 -0.0001461 -0.0002708 -0.0003252 -0.0005992 -0.0006777 -0.0001607 -0.0000247 -0.0003294 0.0002088 -0.0000864 -0.0003639 -0.0002610 0.0000306 -0.0000402 0.0000830 -0.0000214 0.0002974 0.0002489 0.0004600 0.0000025 0.0000062 -0.0000368 0.0000385 -0.0001780 -0.0000762 -0.0000776 -0.0000303 -0.0000599 -0.0001839 0.0002336 0.0001592 -0.0000577 0.0006257 0.0002398 -0.0004032 -0.0002086 -0.0001329 0.0001335 -0.0000119 -0.0000573 -0.0000694 -0.0020340 0.0006674 -0.0002247 -0.0001243 -0.0006448 -0.0004570 -0.0000201 0.0008345 -0.0036828 0.0022840 -0.0000013 -0.0003051 -0.0001383 0.0001623 -0.0003643 0.0004258 0.0001116 0.0003464 -0.0000011 0.0001756 0.0000309 0.0004159 0.0000589 0.0003002 0.0000921 0.0007350 -0.0001216 0.0001981 0.0000315 0.0004477 -0.0000832 0.0003196 -0.0000025 0.0003204 -0.0000435 -0.0000020 0.0000085 0.0002177 0.0000090 0.0003699 0.0000667 0.0002706 -0.0000346 -0.0000250 0.0000114 0.0001924 0.0005614 0.0075551 0.0002650 0.0005452 0.0004026 0.0004339 -0.0000493 0.0013333 -0.0008303 0.0029015 -0.0001237 0.0004853 -0.0001300 0.0011962 -0.0000114 0.0007522 -0.0000513 0.0007799 0.0007809 0.0002300 0.0000376 0.0006795 -0.0005204 0.0008434
-0.0002178 -0.0004750 -0.0001922 -0.0003694 0.0000281 0.0003426 -0.0000407 0.0004314 -0.0003695 0.0000402 -0.0001968 -0.0004515 -0.0003627 0.0002150 -0.0002743 -0.0006130 -0.0000136 -0.0003352 -0.0001846 -0.0003615 -0.0002426 -0.0002650 -0.0001417 -0.0002839 0.0000140 0.0001861 -0.0001564 -0.0002199 -0.0000339 -0.0000891 -0.0002533 -0.0003095 -0.0005846 -0.0006706 -0.0001571 0.0000252 -0.0003140 0.0002493 -0.0000897 -0.0003314 -0.0002444 0.0000523 -0.0000378 0.0001589 -0.0000111 0.0003258 0.0002574 0.0005499 0.0002523 -0.0000846 -0.0000391 0.0001893 -0.0001696 0.0000347 0.0000150 0.0000121 -0.0000888 -0.0000205 0.0002893 0.0001933 0.0001091 0.0005643 0.0000561 -0.0000329 -0.0002303 0.0000112 -0.0000217 0.0001563 -0.0000465 -0.0000344 -0.0035145 0.0020266 0.0001408 -0.0002866 -0.0006212 -0.0003874 -0.0000283 0.0009011 -0.0089029 0.0058766 0.0008105 -0.0008162 -0.0000998 0.0001933 -0.0002288 0.0002732 -0.0000891 0.0005730 0.0000350 0.0001606 0.0000490 0.0004186 0.0000717 0.0003506 0.0000851 0.0007582 -0.0001333 0.0002066 0.0000324 0.0004288 -0.0000814 0.0002883 -0.0000231 0.0003165 -0.0000382 -0.0000383 -0.0000057 0.0001813 0.0000067 0.0003426 0.0000625 0.0002311 -0.0000470 -0.0000472 0.0000061 0.0001568 0.0001877 0.0002721 0.0002112 0.0005394 0.0007000 0.0001360 0.0002766 0.0009872 0.0005774 0.0010071 0.0010732 -0.0004247 -0.0000409 0.0009984 -0.0000489 0.0006710 0.0000200 0.0006554 -0.0008173 0.0019284 0.0000776 0.0005041 -0.0001933 0.0003160
-0.0002114 -0.0004861 -0.0001923 -0.0003432 0.0000376 0.0003052 -0.0000355 0.0004454 -0.0003362 -0.0000400 -0.0001857 -0.0004474 -0.0003481 0.0002150 -0.0002641 -0.0006209 0.0000107 -0.0003519 -0.0001684 -0.0003844 -0.0002283 -0.0002895 -0.0001407 -0.0003028 0.0000104 0.0001975 -0.0001590 -0.0001893 -0.0000311 -0.0000709 -0.0002448 -0.0003180 -0.0005671 -0.0006899 -0.0001590 0.0000302 -0.0002919 0.0002206 -0.0000837 -0.0003400 -0.0002268 -0.0000024 -0.0000289 0.0001591 -0.0000109 0.0002924 0.0002626 0.0005410 0.0003709 -0.0002749 0.0000086 0.0000824 -0.0001581 -0.0000663 0.0000606 -0.0000933 -0.0000387 -0.0001345 0.0002509 0.0001948 0.0002314 0.0003569 -0.0001612 0.0001843 -0.0002058 -0.0001036 0.0000915 -0.0000228 -0.0000329 -0.0001025 -0.0026906 0.0013493 0.0001652 -0.0003173 -0.0005677 -0.0006137 -0.0000337 0.0007957 0.0002773 -0.0017726 0.0009948 -0.0009795 -0.0000878 0.0000414 -0.0002738 0.0002197 -0.0001999 0.0004816 0.0000564 0.0000002 0.0000462 0.0002840 0.0000432 0.0002317 0.0000777 0.0006260 -0.0001434 0.0001039 0.0000285 0.0003422 -0.0000934 0.0001417 -0.0000247 0.0001664 -0.0000378 -0.0001827 0.0000169 -0.0000495 0.0000177 0.0001804 0.0000517 0.0000307 -0.0000406 -0.0001908 0.0000116 -0.0000488 -0.0119033 0.0108151 0.0002814 0.0005936 0.0003535 0.0004708 0.0000994 0.0009172 0.0001452 0.0002234 0.0012083 -0.0007800 -0.0000459 0.0006643 0.0000045 0.0004357 0.0000873 0.0004249 -0.0011913 0.0017034 0.0002309 0.0002037 -0.0002823 0.0000984
-0.0002045 -0.0006390 -0.0001897 -0.0003833 0.0000413 0.0001552 -0.0000253 0.0004187 -0.0002916 -0.0002575 -0.0001597 -0.0005289 -0.0003316 0.0001501 -0.0002346 -0.0007484 0.0000277 -0.0004494 -0.0001431 -0.0004996 -0.0002159 -0.0003992 -0.0001336 -0.0003940 0.0000187 0.0001405 -0.0001572 -0.0002304 -0.0000235 -0.0001024 -0.0002244 -0.0003979 -0.0005378 -0.0007747 -0.0001494 -0.0000367 -0.0002591 0.0001243 -0.0000720 -0.0003966 -0.0002136 -0.0000977 -0.0000160 0.0001252 -0.0000072 0.0001853 0.0002569 0.0004691 0.0000233 -0.0001146 -0.0000111 -0.0000176 -0.0001539 -0.0002145 0.0000831 -0.0002506 0.0000030 -0.0002856 0.0002507 0.0001332 0.0001817 0.0003447 0.0000527 0.0000527 -0.0001618 -0.0002035 0.0003874 -0.0002973 -0.0000181 -0.0001385 -0.0020283 0.0004034 -0.0003676 -0.0001660 -0.0006144 -0.0005682 -0.0000223 0.0007402 -0.0002213 -0.0018978 -0.0000067 -0.0000982 -0.0002023 0.0001008 -0.0004807 0.0004312 -0.0000434 0.0004062 -0.0000185 0.0001488 0.0000010 0.0003420 0.0000597 0.0002413 0.0000629 0.0005735 -0.0001664 0.0001255 0.0000198 0.0003542 -0.0000905 0.0001984 -0.0000353 0.0002077 -0.0000340 -0.0001029 0.0000004 0.0001634 0.0000107 0.0002178 0.0000425 0.0001825 -0.0000447 -0.0000936 0.0000066 0.0001625 -0.0167835 0.0145214 0.0003131 0.0007664 0.0002905 0.0005777 -0.0000535 0.0010526 -0.0005581 0.0016812 0.0007085 -0.0005466 -0.0001332 0.0008710 0.0000463 0.0004075 -0.0000452 0.0005304 0.0016678 -0.0001209 0.0001104 0.0002112 -0.0007067 0.0004772
-0.0002039 -0.0005497 -0.0001829 -0.0003930 0.0000234 0.0002446 -0.0000152 0.0004460 -0.0002670 -0.0001170 -0.0001376 -0.0005256 -0.0003162 0.0001424 -0.0002067 -0.0007445 0.0000289 -0.0003825 -0.0001334 -0.0004691 -0.0002278 -0.0003369 -0.0000982 -0.0003750 0.0000262 0.0001882 -0.0001384 -0.0002357 -0.0000155 -0.0000312 -0.0002057 -0.0003680 -0.0005144 -0.0007606 -0.0001469 0.0000163 -0.0002476 0.0001694 -0.0000740 -0.0003540 -0.0001868 -0.0000603 -0.0000156 0.0002073 -0.0000075 0.0001916 0.0002284 0.0005952 0.0000377 -0.0000856 -0.0000588 0.0001872 -0.0001627 -0.0000464 0.0001183 -0.0000913 -0.0000119 -0.0001242 0.0002218 0.0003412 0.0001021 0.0005324 -0.0002000 0.0005627 -0.0001523 0.0000155 0.0003961 -0.0002674 -0.0000270 -0.0000008 -0.0000787 -0.0011184 -0.0000385 -0.0002515 -0.0005644 -0.0005933 -0.0000250 0.0007251 -0.0008589 -0.0014456 -0.0025654 0.0018300 -0.0001874 0.0000735 -0.0003206 0.0002464 -0.0000480 0.0003681 -0.0000132 0.0000885 -0.0000010 0.0003009 0.0000000 0.0002708 0.0000595 0.0005160 -0.0001739 0.0000636 0.0000122 0.0003142 -0.0000775 0.0000961 -0.0000139 0.0001290 -0.0000407 -0.0001407 0.0000165 0.0000672 -0.0000105 0.0001686 0.0000351 0.0001165 -0.0000532 -0.0001461 0.0000064 0.0000879 0.0077614 -0.0062276 0.0002154 0.0008409 0.0001458 0.0005758 -0.0000201 0.0008365 0.0000760 0.0008657 0.0004095 -0.0005656 -0.0000481 0.0004921 -0.0000197 0.0003206 -0.0000850 0.0003888 0.0026850 -0.0015270 0.0000520 0.0001602 -0.0001084 -0.0003744
-0.0002013 -0.0004406 -0.0001763 -0.0003353 0.0000348 0.0002999 -0.0000117 0.0004471 -0.0002594 -0.0000978 -0.0001263 -0.0004755 -0.0002970 0.0001646 -0.0001953 -0.0006984 0.0000449 -0.0003459 -0.0001150 -0.0004464 -0.0002188 -0.0003144 -0.0001166 -0.0003181 0.0000213 0.0002111 -0.0001280 -0.0002016 -0.0000164 0.0000081 -0.0001916 -0.0003583 -0.0005045 -0.0007472 -0.0001466 0.0000480 -0.0002338 0.0001665 -0.0000668 -0.0003421 -0.0001611 -0.0000867 -0.0000126 0.0002198 -0.0000108 0.0001653 0.0002301 0.0005942 0.0001312 -0.0000647 -0.0000522 0.0001283 -0.0001242 -0.0001584 0.0000425 -0.0001051 -0.0000155 -0.0001746 0.0001492 0.0003785 0.0000827 0.0005270 -0.0003331 0.0005123 -0.0001153 -0.0000791 0.0002132 -0.0001018 -0.0000233 -0.0000174 -0.0006396 -0.0006431 0.0000238 -0.0004600 -0.0005100 -0.0008393 -0.0000290 0.0005921 0.0019729 -0.0031040 -0.0027708 0.0018604 -0.0001332 -0.0000680 -0.0003571 0.0001515 0.0000242 0.0000683 -0.0000082 -0.0001216 0.0000128 0.0001233 -0.0000261 0.0000845 0.0000663 0.0002709 -0.0001671 -0.0001311 0.0000117 0.0001974 -0.0000622 -0.0001147 0.0000193 -0.0000758 -0.0000420 -0.0002927 0.0000422 -0.0002027 -0.0000137 -0.0000155 0.0000396 -0.0001183 -0.0000360 -0.0003175 0.0000152 -0.0001324 0.0075173 0.0007334 -0.0000388 0.0010490 -0.0002173 0.0006729 -0.0000163 0.0004817 -0.0009642 0.0013838 0.0002325 -0.0005900 -0.0000111 0.0003953 0.0000103 0.0002225 -0.0000122 0.0003833 0.0005834 -0.0006740 0.0003076 0.0001301 -0.0001336 -0.0002398
-0.0001921 -0.0005793 -0.0001771 -0.0003541 0.0000547 0.0002522 -0.0000133 0.0003760 -0.0002354 -0.0002822 -0.0001169 -0.0005237 -0.0002653 0.0001076 -0.0001694 -0.0007918 0.0000449 -0.0004072 -0.0000918 -0.0005327 -0.0001888 -0.0004146 -0.0001335 -0.0003633 0.0000270 0.0001541 -0.0001276 -0.0002173 -0.0000144 -0.0000190 -0.0001714 -0.0004287 -0.0004861 -0.0008091 -0.0001352 -0.0000132 -0.0002069 0.0000821 -0.0000564 -0.0003863 -0.0001483 -0.0001779 -0.0000036 0.0001822 -0.0000126 0.0000603 0.0002815 0.0004837 -0.0001202 0.0001637 -0.0000510 0.0000125 -0.0001047 -0.0003165 0.0000580 -0.0002686 -0.0000338 -0.0002807 0.0001558 0.0002512 0.0000897 0.0004259 -0.0001323 0.0000134 -0.0000284 -0.0003285 0.0002549 -0.0001427 0.0000098 -0.0001247 -0.0007478 -0.0003419 -0.0002439 -0.0004075 -0.0005286 -0.0006795 -0.0000217 0.0006293 -0.0011297 0.0007182 -0.0021974 0.0010709 -0.0001629 0.0000374 -0.0000125 -0.0000007 0.0000327 0.0001677 -0.0000696 0.0000489 0.0000549 0.0001573 -0.0000152 0.0001220 0.0000636 0.0002531 -0.0001689 -0.0001187 0.0000194 0.0002235 -0.0000692 0.0000059 0.0000150 -0.0000019 -0.0000251 -0.0002017 0.0000023 0.0000730 -0.0000121 0.0000467 0.0000309 0.0000421 -0.0000341 -0.0002044 0.0000066 0.0001141 -0.0041505 0.0111986 -0.0000557 0.0010711 -0.0001865 0.0006078 0.0000435 0.0003111 -0.0021365 0.0019771 0.0003496 -0.0008034 -0.0001195 0.0004902 0.0000205 0.0002189 -0.0000661 0.0004258 0.0002969 -0.0000163 0.0004791 -0.0000341 -0.0004584 0.0003787
-0.0001816 -0.0006181 -0.0001705 -0.0003929 0.0000659 0.0003419 -0.0000123 0.0003467 -0.0002199 -0.0002135 -0.0001090 -0.0005323 -0.0002370 0.0000864 -0.0001408 -0.0008212 0.0000511 -0.0003859 -0.0000828 -0.0005320 -0.0001849 -0.0003950 -0.0000996 -0.0003730 0.0000386 0.0001737 -0.0001111 -0.0002266 -0.0000073 0.0000374 -0.0001505 -0.0004155 -0.0004728 -0.0007937 -0.0001347 0.0000108 -0.0001893 0.0001022 -0.0000605 -0.0003490 -0.0001398 -0.0001558 -0.0000070 0.0002509 -0.0000246 0.0000462 0.0003051 0.0005324 -0.0001914 0.0003632 0.0000043 0.0001337 -0.0000928 -0.0001517 0.0001023 -0.0000699 -0.0000424 -0.0001246 0.0002048 0.0003629 0.0000237 0.0005948 -0.0000031 -0.0000703 -0.0000645 -0.0001204 0.0001521 0.0001914 0.0000112 0.0000013 0.0005948 -0.0024052 0.0001243 -0.0005329 -0.0005642 -0.0006637 -0.0000262 0.0006137 -0.0083396 0.0061847 -0.0026076 0.0010536 -0.0002523 0.0000294 -0.0000120 0.0000202 -0.0000061 0.0001741 -0.0000700 -0.0000111 0.0000786 0.0000835 -0.0000075 0.0000455 0.0000612 0.0001984 -0.0001688 -0.0002107 0.0000194 0.0001786 -0.0000536 -0.0001142 0.0000134 -0.0000817 -0.0000362 -0.0002524 0.0000162 -0.0000420 -0.0000171 -0.0000346 0.0000294 -0.0000654 -0.0000373 -0.0002620 0.0000106 0.0000271 -0.0041177 0.0117423 0.0000967 0.0007407 0.0000184 0.0003433 0.0002583 0.0001110 -0.0047119 0.0035974 0.0003186 -0.0009986 -0.0000229 0.0001785 0.0000069 0.0000510 -0.0000054 0.0001690 0.0007881 0.0004723 0.0005478 -0.0003822 0.0000135 -0.0003387
-0.0001804 -0.0004001 -0.0001637 -0.0003151 0.0000742 0.0004995 -0.0000109 0.0004055 -0.0002322 -0.0000702 -0.0001098 -0.0004347 -0.0002178 0.0001393 -0.0001276 -0.0007109 0.0000580 -0.0003042 -0.0000666 -0.0004660 -0.0001704 -0.0003291 -0.0000621 -0.0003294 0.0000336 0.0002224 -0.0001024 -0.0001763 -0.0000078 0.0000875 -0.0001448 -0.0003770 -0.0004542 -0.0007701 -0.0001345 0.0000503 -0.0001786 0.0001120 -0.0000601 -0.0003163 -0.0001309 -0.0001543 -0.0000046 0.0002667 -0.0000331 0.0000131 0.0002528 0.0005828 -0.0002257 0.0004308 0.0000511 0.0001256 -0.0000778 -0.0001786 -0.0000273 0.0000813 -0.0000270 -0.0001572 0.0002443 0.0003807 0.0000259 0.0006099 -0.0000452 -0.0000388 -0.0000670 -0.0001764 -0.0001572 0.0004572 0.0000057 -0.0000143 -0.0011575 -0.0017926 -0.0003870 -0.0001037 -0.0005460 -0.0008622 -0.0000260 0.0004952 -0.0178391 0.0112048 -0.0017681 0.0004508 -0.0002966 -0.0001206 -0.0003905 0.0000750 0.0000125 -0.0000655 -0.0000280 -0.0002399 0.0000857 -0.0000827 -0.0000296 -0.0000728 0.0000595 -0.0000425 -0.0001553 -0.0004191 0.0000169 0.0000708 -0.0000177 -0.0003409 0.0000158 -0.0002541 -0.0000301 -0.0003986 0.0000478 -0.0003047 -0.0000178 -0.0002287 0.0000214 -0.0002860 -0.0000278 -0.0003869 0.0000242 -0.0001697 -0.0027579 0.0049738 0.0002756 0.0006146 -0.0001364 0.0002512 0.0003781 -0.0000431 -0.0009838 0.0016759 -0.0000408 -0.0008451 0.0000372 0.0003076 0.0000768 0.0000365 0.0000695 0.0001819 0.0000283 0.0009187 0.0000634 -0.0000289 0.0006191 -0.0008937
-0.0001788 -0.0005096 -0.0001666 -0.0003227 0.0000680 0.0004183 -0.0000053 0.0003912 -0.0002326 -0.0001742 -0.0000988 -0.0004700 -0.0001992 0.0000884 -0.0001074 -0.0007656 0.0000672 -0.0003489 -0.0000400 -0.0005291 -0.0001411 -0.0004128 -0.0000374 -0.0003867 0.0000340 0.0001834 -0.0001013 -0.0001880 -0.0000082 0.0000455 -0.0001322 -0.0004213 -0.0004215 -0.0008276 -0.0001234 -0.0000152 -0.0001661 0.0000292 -0.0000483 -0.0003490 -0.0001256 -0.0002224 0.0000091 0.0002032 -0.0000312 -0.0001096 0.0002560 0.0005431 0.0000465 0.0000975 0.0000543 0.0000462 -0.0000793 -0.0002897 0.0000330 -0.0000669 -0.0000369 -0.0002501 0.0002691 0.0003213 0.0000708 0.0004874 0.0001421 -0.0001657 0.0000045 -0.0003743 0.0002602 -0.0000793 0.0000153 -0.0000967 -0.0040061 0.0013506 -0.0003739 -0.0000977 -0.0004916 -0.0006721 -0.0000176 0.0006015 -0.0080715 0.0042451 0.0010915 -0.0014133 -0.0001613 -0.0001240 -0.0002251 -0.0000292 0.0000029 -0.0000124 0.0000674 -0.0001533 0.0000957 0.0000301 -0.0000649 0.0000695 0.0000543 -0.0000014 -0.0001322 -0.0003998 0.0000242 0.0001362 -0.0000422 -0.0001498 0.0000086 -0.0001384 -0.0000114 -0.0002576 0.0000134 0.0000195 -0.0000168 -0.0001223 -0.0000025 -0.0000827 -0.0000328 -0.0002557 0.0000121 0.0000572 -0.0043888 0.0061106 0.0002723 0.0008126 -0.0004470 0.0005609 0.0000825 0.0000820 0.0014002 -0.0004755 0.0001932 -0.0009696 0.0001058 0.0001517 0.0001167 0.0000332 0.0001212 0.0001687 0.0003201 0.0003590 -0.0002841 0.0002793 -0.0000730 -0.0001770
-0.0001677 -0.0006679 -0.0001555 -0.0003808 0.0000585 0.0003216 0.0000095 0.0003510 -0.0002043 -0.0002247 -0.0000775 -0.0005352 -0.0001786 0.0000152 -0.0000820 -0.0008364 0.0000778 -0.0003731 -0.0000247 -0.0005631 -0.0001270 -0.0004426 -0.0000293 -0.0004205 0.0000409 0.0001733 -0.0000899 -0.0002246 -0.0000032 0.0000527 -0.0001128 -0.0004062 -0.0004039 -0.0008185 -0.0001202 -0.0000433 -0.0001495 -0.0000011 -0.0000480 -0.0003279 -0.0001073 -0.0002454 0.0000130 0.0002206 -0.0000343 -0.0001500 0.0002663 0.0006285 0.0003873 -0.0000394 0.0000919 0.0001294 -0.0000580 -0.0001578 0.0000818 0.0000294 -0.0000296 -0.0001212 0.0002617 0.0004463 0.0000475 0.0006269 0.0006178 -0.0002432 0.0000013 -0.0001489 0.0004274 0.0000623 0.0000149 0.0000464 -0.0020668 0.0001671 -0.0000485 -0.0004223 -0.0004488 -0.0007266 -0.0000146 0.0006035 -0.0019112 0.0003289 0.0015002 -0.0012823 -0.0000967 -0.0001844 0.0000320 -0.0001492 0.0000457 -0.0000488 0.0000892 -0.0002392 0.0000604 0.0000173 -0.0001130 0.0000828 0.0000634 -0.0000315 -0.0001182 -0.0004758 0.0000280 0.0001215 -0.0000341 -0.0002091 0.0000063 -0.0001810 -0.0000039 -0.0003079 0.0000061 -0.0000506 -0.0000088 -0.0001905 0.0000043 -0.0001787 -0.0000296 -0.0003096 0.0000213 -0.0000169 0.0012023 -0.0020291 -0.0000324 0.0011093 -0.0003735 0.0005409 0.0000313 0.0001726 -0.0004952 0.0012843 0.0001298 -0.0008769 0.0000786 -0.0001560 0.0000090 -0.0000152 0.0001497 -0.0000189 -0.0004795 0.0001771 0.0000544 -0.0000706 -0.0002597 0.0000804
-0.0001639 -0.0004513 -0.0001436 -0.0003151 0.0000553 0.0004122 0.0000179 0.0004163 -0.0001643 -0.0001346 -0.0000670 -0.0004683 -0.0001636 0.0000470 -0.0000720 -0.0007125 0.0000744 -0.0002739 -0.0000234 -0.0004861 -0.0001313 -0.0003422 -0.0000743 -0.0003094 0.0000352 0.0002092 -0.0000812 -0.0001802 -0.0000026 0.0000959 -0.0001110 -0.0003573 -0.0003918 -0.0007884 -0.0001243 -0.0000346 -0.0001399 -0.0000185 -0.0000473 -0.0002990 -0.0000991 -0.0002550 0.0000192 0.0002072 -0.0000434 -0.0001925 0.0002888 0.0006532 0.0007238 -0.0002184 0.0000903 0.0001933 -0.0000425 -0.0001740 -0.0000231 0.0001369 -0.0000184 -0.0001218 0.0002845 0.0004640 0.0000027 0.0006599 0.0003238 0.0002228 -0.0000196 -0.0001526 0.0003998 0.0001101 0.0000380 0.0000081 0.0007386 -0.0024066 -0.0000735 -0.0004896 -0.0004963 -0.0008621 -0.0000150 0.0005132 -0.0044517 0.0019814 0.0005079 -0.0004592 -0.0001332 -0.0002693 -0.0000725 -0.0002254 -0.0000153 -0.0000822 0.0000613 -0.0003425 0.0000269 -0.0001204 -0.0000036 -0.0001544 0.0000644 -0.0002129 -0.0001128 -0.0006171 0.0000300 0.0000454 -0.0000027 -0.0003770 0.0000224 -0.0003220 0.0000008 -0.0004352 0.0000188 -0.0002674 -0.0000113 -0.0003396 0.0000078 -0.0003695 -0.0000123 -0.0003918 0.0000405 -0.0001381 0.0053202 -0.0180107 -0.0000626 0.0011403 -0.0001805 0.0003918 -0.0001416 0.0003645 -0.0028454 0.0042788 0.0000557 -0.0008208 -0.0000593 0.0002388 -0.0000583 0.0000731 0.0000470 0.0001200 0.0007200 -0.0007850 0.0000277 -0.0000508 0.0006285 -0.0006321
-0.0001579 -0.0005414 -0.0001416 -0.0003362 0.0000620 0.0003320 0.0000214 0.0003705 -0.0001625 -0.0002625 -0.0000640 -0.0005011 -0.0001409 -0.0000031 -0.0000552 -0.0007422 0.0000855 -0.0003025 -0.0000066 -0.0005403 -0.0001092 -0.0003947 -0.0000696 -0.0003221 0.0000278 0.0001651 -0.0000699 -0.0001828 0.0000042 0.0000682 -0.0001023 -0.0003944 -0.0003661 -0.0008419 -0.0001190 -0.0001117 -0.0001222 -0.0001271 -0.0000350 -0.0003268 -0.0000731 -0.0003581 0.0000266 0.0001370 -0.0000447 -0.0003096 0.0003012 0.0006006 0.0004259 -0.0000758 0.0000339 0.0002122 -0.0000109 -0.0002792 -0.0000039 0.0000226 -0.0000193 -0.0001911 0.0003335 0.0003766 0.0000066 0.0005936 0.0003901 -0.0001671 -0.0000302 -0.0002566 0.0004649 -0.0000442 0.0000611 -0.0000828 0.0003784 -0.0018778 0.0000627 -0.0006290 -0.0005347 -0.0005485 -0.0000102 0.0006569 0.0050357 -0.0056189 0.0010510 -0.0007927 0.0000092 -0.0002386 -0.0001105 -0.0000860 -0.0000206 0.0001196 0.0000372 -0.0000759 0.0000185 0.0000385 0.0000807 -0.0000813 0.0000496 -0.0000726 -0.0001069 -0.0005296 0.0000351 0.0001422 -0.0000155 -0.0001720 0.0000172 -0.0001670 -0.0000056 -0.0002436 0.0000008 0.0000564 -0.0000107 -0.0001990 -0.0000162 -0.0001354 -0.0000073 -0.0002509 0.0000287 0.0000626 -0.0097958 0.0070559 0.0001964 0.0008456 -0.0001349 0.0003946 -0.0003101 0.0004917 -0.0042971 0.0039259 0.0005623 -0.0010145 -0.0000594 0.0002611 -0.0000385 0.0000559 -0.0000080 0.0001592 0.0026398 -0.0018076 -0.0000979 0.0000807 0.0005202 -0.0005338
-0.0001460 -0.0006760 -0.0001369 -0.0003886 0.0000721 0.0002970 0.0000235 0.0002808 -0.0001698 -0.0003202 -0.0000596 -0.0005559 -0.0001241 -0.0000609 -0.0000444 -0.0007904 0.0001037 -0.0003331 0.0000113 -0.0005768 -0.0000853 -0.0004285 -0.0000213 -0.0003895 0.0000268 0.0001502 -0.0000665 -0.0001961 0.0000095 0.0000761 -0.0000881 -0.0003851 -0.0003465 -0.0008445 -0.0001113 -0.0001448 -0.0000951 -0.0001805 -0.0000325 -0.0003078 -0.0000501 -0.0003692 0.0000222 0.0001285 -0.0000411 -0.0003192 0.0002846 0.0006822 -0.0002300 0.0004265 0.0000736 0.0002978 0.0000054 -0.0001455 0.0000418 0.0000906 -0.0000227 -0.0000487 0.0002708 0.0005159 -0.0000004 0.0007216 0.0002674 -0.0000488 0.0000033 -0.0000679 0.0004070 0.0001580 0.0000464 0.0000455 0.0000055 -0.0016167 0.0003815 -0.0008424 -0.0004879 -0.0005931 -0.0000123 0.0006735 0.0033773 -0.0041696 0.0008667 -0.0006929 0.0000171 -0.0002413 -0.0001705 0.0000353 0.0000620 0.0000175 0.0000452 -0.0001778 0.0000293 0.0000125 0.0000511 -0.0000911 0.0000661 -0.0000455 -0.0000901 -0.0005756 0.0000386 0.0001518 -0.0000209 -0.0001929 -0.0000000 -0.0001782 0.0000083 -0.0002684 0.0000209 -0.0000237 -0.0000035 -0.0002329 -0.0000157 -0.0002077 -0.0000055 -0.0002734 0.0000289 -0.0000060 -0.0095461 0.0031371 0.0002295 0.0006768 -0.0001532 0.0004814 0.0001613 -0.0000609 0.0026256 -0.0009579 0.0003359 -0.0008340 -0.0000077 -0.0000075 -0.0000172 -0.0000083 0.0001159 -0.0000753 0.0002267 -0.0001833 0.0000735 -0.0001099 0.0003895 -0.0006695
-0.0001424 -0.0004190 -0.0001317 -0.0003140 0.0000791 0.0005239 0.0000194 0.0003195 -0.0001654 -0.0001111 -0.0000649 -0.0004335 -0.0001181 0.0000281 -0.0000454 -0.0006329 0.0000990 -0.0002300 0.0000023 -0.0004514 -0.0001022 -0.0002934 -0.0000111 -0.0003074 0.0000274 0.0002121 -0.0000571 -0.0001266 -0.0000015 0.0001013 -0.0000868 -0.0003459 -0.0003499 -0.0007949 -0.0001062 -0.0000989 -0.0000793 -0.0001703 -0.0000301 -0.0002789 -0.0000544 -0.0003279 0.0000167 0.0000669 -0.0000141 -0.0002694 0.0002868 0.0007103 -0.0001959 0.0005125 0.0000717 0.0003209 -0.0000267 -0.0001162 0.0000907 0.0000623 -0.0000229 -0.0000395 0.0002079 0.0005712 0.0000221 0.0006749 0.0002674 0.0000920 0.0000438 -0.0001584 0.0004265 -0.0000336 0.0000495 0.0000039 -0.0007409 -0.0013708 0.0004464 -0.0007288 -0.0004833 -0.0007568 -0.0000073 0.0005913 -0.0139060 0.0088278 -0.0007066 0.0004187 -0.0000509 -0.0002797 -0.0001256 -0.0001319 0.0002298 -0.0002942 0.0000860 -0.0003873 0.0000293 -0.0001289 0.0000480 -0.0002602 0.0000984 -0.0001983 -0.0000743 -0.0006792 0.0000405 0.0001036 -0.0000112 -0.0003037 0.0000076 -0.0002911 0.0000096 -0.0003435 0.0000414 -0.0002069 0.0000045 -0.0003483 0.0000033 -0.0003835 -0.0000005 -0.0003102 0.0000374 -0.0000829 -0.0048469 -0.0065065 0.0002610 0.0005165 0.0000750 0.0004398 0.0001774 -0.0001577 0.0032597 -0.0004783 -0.0002639 -0.0002179 0.0000872 0.0001489 -0.0000159 0.0000515 0.0001281 0.0000342 -0.0023793 0.0022068 0.0000232 0.0000267 -0.0000604 -0.0001682
-0.0001323 -0.0005489 -0.0001189 -0.0003593 0.0000888 0.0004173 0.0000261 0.0002767 -0.0001464 -0.0002701 -0.0000601 -0.0004538 -0.0000947 -0.0000134 -0.0000244 -0.0006906 0.0000936 -0.0002873 0.0000075 -0.0004919 -0.0000985 -0.0003612 -0.0000188 -0.0003200 0.0000330 0.0001613 -0.0000518 -0.0001371 -0.0000129 0.0000253 -0.0000708 -0.0004390 -0.0003319 -0.0008682 -0.0000909 -0.0001740 -0.0000576 -0.0002713 -0.0000203 -0.0003298 -0.0000422 -0.0004090 0.0000187 -0.0000622 0.0000215 -0.0003105 0.0002877 0.0006482 0.0001831 0.0002290 0.0000689 0.0002691 -0.0000205 -0.0002363 0.0000801 -0.0000144 -0.0000049 -0.0001652 0.0003082 0.0004494 0.0000326 0.0005521 0.0005738 -0.0001562 0.0000433 -0.0002987 0.0003415 -0.0001297 0.0000736 -0.0001397 -0.0001426 -0.0016145 0.0002479 -0.0006716 -0.0004926 -0.0004800 -0.0000038 0.0007588 -0.0039376 0.0008679 -0.0020360 0.0012260 0.0000537 -0.0001772 0.0001009 -0.0002534 0.0001781 0.0000327 0.0000151 -0.0000486 -0.0000101 0.0000683 -0.0000262 0.0000138 0.0001130 -0.0000321 -0.0000686 -0.0005517 0.0000455 0.0002095 -0.0000124 -0.0001018 0.0000225 -0.0001328 -0.0000127 -0.0001369 0.0000257 0.0000955 0.0000072 -0.0002099 -0.0000072 -0.0002046 -0.0000056 -0.0001808 0.0000249 0.0000457 0.0019659 -0.0056160 0.0002290 0.0004813 -0.0001737 0.0008199 -0.0001341 0.0002062 -0.0028202 0.0029041 0.0005937 -0.0008335 0.0001038 0.0000585 0.0000035 0.0000376 -0.0000490 0.0001836 -0.0004539 0.0010532 0.0001694 -0.0001156 -0.0007361 0.0008611
-0.0001174 -0.0007399 -0.0001051 -0.0004441 0.0000933 0.0002323 0.0000408 0.0001933 -0.0001065 -0.0004704 -0.0000399 -0.0005413 -0.0000747 -0.0000996 -0.0000023 -0.0008040 0.0000926 -0.0003626 0.0000235 -0.0005626 -0.0000849 -0.0004708 -0.0000186 -0.0003982 0.0000386 0.0001005 -0.0000542 -0.0001837 -0.0000226 -0.0000347 -0.0000560 -0.0004976 -0.0003070 -0.0009260 -0.0000778 -0.0002451 -0.0000268 -0.0003447 -0.0000155 -0.0003522 -0.0000028 -0.0004422 0.0000189 -0.0001093 0.0000416 -0.0002882 0.0002652 0.0007158 0.0003155 0.0001061 0.0001284 0.0003036 0.0000072 -0.0001752 0.0000778 0.0001058 -0.0000018 -0.0000726 0.0003312 0.0004617 0.0000311 0.0005628 0.0000961 0.0004412 0.0000329 -0.0001021 0.0002393 0.0000210 0.0000654 -0.0000471 0.0021993 -0.0031196 -0.0000330 -0.0006455 -0.0004876 -0.0004944 -0.0000140 0.0007995 -0.0003364 -0.0033047 -0.0013559 0.0006927 0.0000355 -0.0001398 -0.0001941 0.0000030 0.0000458 0.0000658 -0.0000272 -0.0000276 -0.0000190 0.0000479 0.0000002 -0.0000165 0.0001103 0.0000343 -0.0000685 -0.0005455 0.0000457 0.0002329 -0.0000169 -0.0000942 0.0000167 -0.0001068 -0.0000386 -0.0000980 -0.0000045 0.0000772 0.0000101 -0.0002143 -0.0000134 -0.0002253 -0.0000089 -0.0001837 0.0000186 0.0000001 0.0023916 0.0024548 0.0001799 0.0004777 -0.0000409 0.0007546 -0.0001741 0.0004122 -0.0019113 0.0020088 0.0009111 -0.0009622 0.0001113 -0.0001091 0.0000612 0.0000094 -0.0000353 0.0000704 0.0007981 -0.0004100 0.0002629 -0.0002400 -0.0004879 0.0009021
-0.0001159 -0.0004736 -0.0001045 -0.0003742 0.0000873 0.0004165 0.0000463 0.0002368 -0.0001056 -0.0001948 -0.0000354 -0.0004320 -0.0000757 -0.0000277 -0.0000090 -0.0006401 0.0000898 -0.0002404 0.0000172 -0.0004198 -0.0000873 -0.0003412 -0.0000260 -0.0002901 0.0000343 0.0001888 -0.0000469 -0.0001363 -0.0000317 0.0000142 -0.0000684 -0.0003980 -0.0003028 -0.0008415 -0.0000816 -0.0001540 -0.0000079 -0.0002715 -0.0000184 -0.0002813 0.0000119 -0.0003408 0.0000105 -0.0000964 0.0000681 -0.0001702 0.0002800 0.0007726 0.0002116 0.0001678 0.0001572 0.0002989 0.0000141 -0.0001505 0.0000530 0.0001658 0.0000168 -0.0000554 0.0002773 0.0005108 0.0000916 0.0005186 -0.0000216 0.0003811 0.0000822 -0.0001738 0.0002822 -0.0000700 0.0000588 -0.0000565 0.0011634 -0.0019182 0.0002984 -0.0007085 -0.0004925 -0.0006249 -0.0000217 0.0007587 0.0010133 -0.0027050 -0.0011715 0.0004189 -0.0000908 -0.0000976 -0.0005714 0.0001934 0.0001668 -0.0001993 0.0000427 -0.0002333 0.0000581 -0.0001271 0.0000124 -0.0001655 0.0000996 -0.0000598 -0.0000783 -0.0005921 0.0000373 0.0002206 -0.0000180 -0.0001282 0.0000067 -0.0001391 -0.0000233 -0.0001321 -0.0000104 -0.0000150 0.0000138 -0.0002640 -0.0000098 -0.0002595 -0.0000061 -0.0001725 0.0000230 0.0000318 0.0038852 -0.0042103 0.0002197 0.0003150 0.0001761 0.0005355 -0.0000034 0.0006084 0.0021346 -0.0004421 0.0007292 -0.0003670 0.0000635 0.0003276 0.0000987 0.0001681 0.0000465 0.0001993 0.0019405 -0.0015769 -0.0000801 0.0002329 0.0001334 0.0000874
-0.0001116 -0.0005742 -0.0001061 -0.0003803 0.0001007 0.0002994 0.0000495 0.0002006 -0.0000928 -0.0003581 -0.0000126 -0.0004666 -0.0000543 -0.0000593 -0.0000099 -0.0006783 0.0001024 -0.0003133 0.0000337 -0.0004768 -0.0000637 -0.0004249 -0.0000221 -0.0003251 0.0000402 0.0001211 -0.0000358 -0.0001860 -0.0000428 -0.0000703 -0.0000631 -0.0004787 -0.0002805 -0.0009202 -0.0000712 -0.0002348 0.0000162 -0.0003617 -0.0000102 -0.0003265 0.0000218 -0.0004034 0.0000158 -0.0001974 0.0000925 -0.0002077 0.0003054 0.0006877 0.0004624 -0.0000879 0.0001016 0.0002529 0.0000551 -0.0002732 0.0000332 0.0001127 0.0000321 -0.0001514 0.0002817 0.0004890 0.0002473 0.0003037 0.0004148 -0.0000740 0.0001085 -0.0003432 0.0002851 -0.0002035 0.0000495 -0.0001812 -0.0011900 -0.0007053 0.0005088 -0.0006819 -0.0004776 -0.0003110 -0.0000343 0.0009721 0.0053199 -0.0035236 -0.0014443 0.0005113 -0.0001106 0.0000927 -0.0004037 0.0003039 0.0001427 0.0000428 0.0000569 -0.0000734 0.0000752 0.0000253 0.0000166 -0.0000255 0.0000908 0.0000808 -0.0000829 -0.0004682 0.0000432 0.0003066 -0.0000298 -0.0000070 -0.0000082 -0.0000422 -0.0000044 -0.0000815 0.0000140 0.0000584 0.0000129 -0.0001967 0.0000051 -0.0002289 -0.0000086 -0.0001434 0.0000190 0.0000420 0.0087725 -0.0315107 0.0001523 0.0003773 0.0001620 0.0005296 0.0000089 0.0006428 0.0020521 0.0000005 0.0012792 -0.0012126 -0.0000478 0.0003392 0.0001861 0.0001027 -0.0000694 0.0002411 0.0015813 -0.0012509 0.0000744 0.0000823 0.0003650 -0.0006356
-0.0000969 -0.0007818 -0.0000971 -0.0004553 0.0001088 0.0001159 0.0000626 0.0000992 -0.0000426 -0.0006421 0.0000185 -0.0005734 -0.0000222 -0.0001458 0.0000047 -0.0008103 0.0001142 -0.0004397 0.0000624 -0.0006072 -0.0000435 -0.0005658 0.0000132 -0.0004663 0.0000436 -0.0000046 -0.0000382 -0.0002638 -0.0000577 -0.0002080 -0.0000373 -0.0006282 -0.0002603 -0.0010347 -0.0000530 -0.0003704 0.0000445 -0.0004895 0.0000002 -0.0004075 0.0000514 -0.0005021 0.0000184 -0.0002944 0.0001061 -0.0002489 0.0002552 0.0006927 0.0002262 0.0001061 0.0000296 0.0003277 0.0000388 -0.0002231 0.0000944 0.0001278 0.0000207 -0.0000793 0.0002972 0.0004708 0.0001937 0.0003501 0.0007155 -0.0002640 0.0000775 -0.0001962 -0.0000046 0.0001863 0.0000303 -0.0001205 0.0002960 -0.0027822 -0.0001323 -0.0002419 -0.0004409 -0.0003690 -0.0000359 0.0009998 0.0037527 -0.0036498 -0.0010315 0.0004730 -0.0002103 0.0001660 0.0000537 -0.0000176 0.0001413 0.0000404 -0.0000359 -0.0000658 0.0000357 0.0000249 0.0000588 -0.0000656 0.0000773 0.0000619 -0.0000850 -0.0004465 0.0000464 0.0003190 -0.0000439 -0.0000174 -0.0000089 -0.0000558 -0.0000094 -0.0001307 0.0000210 -0.0000231 0.0000179 -0.0002257 0.0000165 -0.0002986 -0.0000133 -0.0001975 0.0000176 -0.0000685 -0.0045531 0.0006770 0.0002153 0.0004284 0.0003339 0.0001805 -0.0000684 0.0005285 -0.0007593 0.0021313 0.0010251 -0.0016978 0.0000405 0.0000082 0.0001420 0.0000251 -0.0001386 0.0001779 -0.0003597 0.0001330 0.0002261 -0.0001734 0.0002538 -0.0004121
-0.0000892 -0.0005692 -0.0000860 -0.0004220 0.0001043 0.0002972 0.0000778 0.0001215 -0.0000521 -0.0003599 0.0000093 -0.0004899 -0.0000153 -0.0001151 0.0000170 -0.0006995 0.0001119 -0.0003195 0.0000577 -0.0004851 -0.0000598 -0.0004284 0.0000001 -0.0003711 0.0000323 0.0000618 -0.0000469 -0.0002356 -0.0000594 -0.0001781 -0.0000358 -0.0005492 -0.0002539 -0.0009571 -0.0000615 -0.0002986 0.0000507 -0.0004001 -0.0000018 -0.0003390 0.0000530 -0.0003975 0.0000102 -0.0002134 0.0001107 -0.0001646 0.0002540 0.0008067 -0.0001750 0.0005225 0.0000710 0.0004294 0.0000086 -0.0000523 0.0000610 0.0002252 0.0000081 0.0000350 0.0003187 0.0004826 0.0000893 0.0004460 0.0007235 -0.0004230 0.0000933 -0.0001668 0.0000531 0.0002537 0.0000168 -0.0000951 0.0007996 -0.0032585 -0.0000307 -0.0005127 -0.0004646 -0.0005608 -0.0000282 0.0009348 0.0054732 -0.0063475 -0.0012874 0.0007111 -0.0001773 0.0000593 -0.0000221 0.0000932 -0.0000005 0.0000717 -0.0000825 -0.0000828 0.0000429 -0.0000519 -0.0000582 -0.0000203 0.0000702 -0.0000290 -0.0001099 -0.0004065 0.0000310 0.0003380 -0.0000502 0.0000704 0.0000262 -0.0000427 -0.0000117 -0.0000843 -0.0000027 0.0000956 0.0000199 -0.0001734 0.0000237 -0.0001679 -0.0000259 -0.0001236 0.0000198 0.0000777 -0.0061287 0.0143044 0.0003936 0.0003117 0.0004113 0.0001286 -0.0000656 0.0006274 0.0003019 0.0016921 0.0000259 -0.0004821 -0.0000173 0.0005150 -0.0000021 0.0003045 -0.0000920 0.0003995 0.0004973 0.0001318 -0.0002012 0.0002693 0.0004659 -0.0005175
-0.0000864 -0.0005918 -0.0000812 -0.0004075 0.0001182 0.0002584 0.0000818 0.0000951 -0.0000405 -0.0004209 0.0000086 -0.0004804 0.0000016 -0.0001370 0.0000322 -0.0007192 0.0001061 -0.0003272 0.0000681 -0.0004997 -0.0000461 -0.0004582 0.0000075 -0.0003748 0.0000328 0.0000226 -0.0000392 -0.0002620 -0.0000643 -0.0002361 -0.0000390 -0.0005764 -0.0002443 -0.0009894 -0.0000571 -0.0003426 0.0000647 -0.0004532 0.0000041 -0.0003546 0.0000459 -0.0004212 0.0000160 -0.0002656 0.0001361 -0.0001841 0.0003017 0.0007243 -0.0001803 0.0005259 0.0000855 0.0003194 0.0000366 -0.0001538 -0.0000657 0.0002477 0.0000133 -0.0000460 0.0003287 0.0004104 0.0001693 0.0002621 0.0006023 -0.0002318 0.0000577 -0.0002556 0.0002334 -0.0000828 0.0000050 -0.0001925 0.0001354 -0.0022644 0.0002849 -0.0007678 -0.0004212 -0.0005514 -0.0000346 0.0010172 0.0043652 -0.0055041 -0.0002808 -0.0000657 -0.0000603 0.0000041 0.0000717 0.0001173 -0.0001702 0.0001392 -0.0000675 -0.0000419 0.0000542 -0.0000560 -0.0000987 0.0000200 0.0000767 0.0000369 -0.0001194 -0.0003148 0.0000211 0.0003612 -0.0000521 0.0001104 0.0000299 -0.0000261 -0.0000220 -0.0000447 -0.0000269 0.0001035 0.0000138 -0.0001487 0.0000328 -0.0001586 -0.0000420 -0.0001461 0.0000204 0.0000590 -0.0015610 0.0019639 0.0003655 0.0005433 0.0002129 0.0004474 -0.0000409 0.0008045 -0.0002559 0.0020713 -0.0000979 -0.0002303 -0.0001968 0.0004971 0.0000347 0.0002311 0.0000968 0.0001074 0.0014970 0.0000026 -0.0001319 0.0001790 0.0002410 -0.0001943
-0.0000678 -0.0007704 -0.0000816 -0.0004577 0.0001317 0.0001024 0.0000914 -0.0000033 -0.0000157 -0.0006453 0.0000388 -0.0005748 0.0000354 -0.0002219 0.0000549 -0.0008459 0.0001068 -0.0004273 0.0000929 -0.0006185 -0.0000156 -0.0005925 0.0000408 -0.0004931 0.0000369 -0.0000803 -0.0000175 -0.0003636 -0.0000766 -0.0003519 -0.0000203 -0.0006967 -0.0002309 -0.0010802 -0.0000401 -0.0004562 0.0000851 -0.0005710 0.0000062 -0.0004156 0.0000514 -0.0005027 0.0000225 -0.0003786 0.0001583 -0.0002406 0.0003229 0.0005831 0.0000552 0.0001330 0.0000409 0.0002523 0.0000858 -0.0003002 -0.0000474 0.0001947 0.0000090 -0.0000986 0.0003167 0.0003910 0.0001684 0.0002083 0.0001378 0.0001209 0.0000518 -0.0001781 0.0001213 -0.0000183 -0.0000049 -0.0001909 -0.0000604 -0.0015346 -0.0000177 -0.0004611 -0.0004413 -0.0006748 -0.0000190 0.0009347 -0.0001988 -0.0018881 0.0010814 -0.0011538 -0.0000744 -0.0000308 -0.0001519 0.0000145 0.0000127 -0.0001331 0.0000021 -0.0002151 0.0000904 -0.0002127 -0.0000624 -0.0001501 0.0000586 -0.0000726 -0.0001306 -0.0003331 0.0000091 0.0003007 -0.0000604 0.0000208 0.0000274 -0.0001066 -0.0000043 -0.0001301 -0.0000064 -0.0000763 0.0000152 -0.0002458 0.0000411 -0.0002815 -0.0000439 -0.0002524 0.0000273 -0.0001117 -0.0024056 0.0035642 0.0001420 0.0009376 0.0001409 0.0004848 0.0002636 0.0004317 -0.0020140 0.0023951 0.0003022 -0.0008469 -0.0001466 0.0000919 0.0001713 0.0000100 0.0000231 -0.0000319 0.0032579 -0.0022934 0.0000949 -0.0000729 -0.0006919 0.0005949
-0.0000575 -0.0006085 -0.0000792 -0.0004408 0.0001299 0.0002340 0.0000995 -0.0000006 0.0000047 -0.0004680 0.0000370 -0.0005303 0.0000411 -0.0002177 0.0000747 -0.0007807 0.0001143 -0.0003555 0.0000920 -0.0005431 -0.0000059 -0.0005187 0.0000467 -0.0004415 0.0000355 -0.0000443 -0.0000178 -0.0003866 -0.0000773 -0.0003262 -0.0000140 -0.0006387 -0.0002211 -0.0010219 -0.0000470 -0.0004106 0.0000897 -0.0005000 0.0000014 -0.0003604 0.0000615 -0.0004418 0.0000256 -0.0003093 0.0001473 -0.0002048 0.0002893 0.0006974 0.0001203 0.0001083 0.0000547 0.0004064 0.0000694 -0.0001203 0.0000447 0.0002706 0.0000002 0.0000586 0.0002508 0.0005736 0.0002153 0.0002634 0.0000006 0.0000930 0.0000481 0.0000461 -0.0000616 0.0001943 -0.0000023 -0.0000742 0.0010465 -0.0014322 0.0001842 -0.0007220 -0.0005523 -0.0005589 -0.0000079 0.0008996 0.0005632 -0.0013811 0.0015693 -0.0014747 -0.0000161 0.0000117 -0.0002745 0.0001422 0.0002495 -0.0002463 0.0000464 -0.0001892 0.0001137 -0.0001883 -0.0000338 -0.0001346 0.0000191 -0.0000979 -0.0001617 -0.0002540 -0.0000013 0.0003240 -0.0000780 0.0001327 0.0000225 -0.0000170 -0.0000020 -0.0000322 0.0000026 0.0001116 0.0000215 -0.0001744 0.0000363 -0.0001146 -0.0000423 -0.0001586 0.0000361 0.0000639 -0.0048942 0.0113345 0.0001688 0.0008741 0.0000463 0.0006540 0.0003014 0.0004254 -0.0023479 0.0025279 -0.0000764 -0.0004624 -0.0000569 0.0003140 0.0001592 0.0001405 -0.0000822 0.0001484 0.0029415 -0.0020635 -0.0000239 0.0001086 -0.0007437 0.0000469
-0.0000601 -0.0004864 -0.0000713 -0.0003816 0.0001357 0.0002709 0.0000975 0.0000264 0.0000323 -0.0004637 0.0000321 -0.0004754 0.0000447 -0.0001894 0.0000795 -0.0007196 0.0001151 -0.0003241 0.0000986 -0.0005000 -0.0000000 -0.0004803 0.0000524 -0.0003775 0.0000367 -0.0000517 -0.0000185 -0.0003812 -0.0000757 -0.0003366 -0.0000123 -0.0006286 -0.0002093 -0.0010040 -0.0000520 -0.0004007 0.0001005 -0.0005010 0.0000085 -0.0003499 0.0000843 -0.0004537 0.0000313 -0.0003278 0.0001529 -0.0002192 0.0002473 0.0007164 0.0001498 0.0001850 0.0000837 0.0003265 0.0000578 -0.0001724 0.0000348 0.0002275 0.0000007 0.0000009 0.0001764 0.0005879 0.0001026 0.0003500 -0.0001308 0.0002430 0.0000320 -0.0000344 0.0001151 0.0000135 -0.0000064 -0.0001201 -0.0004458 -0.0006454 -0.0000323 -0.0006421 -0.0005208 -0.0006133 -0.0000186 0.0008882 0.0028708 -0.0025966 0.0021575 -0.0020654 -0.0000204 0.0000381 0.0002728 -0.0001703 0.0001765 -0.0002704 0.0000254 -0.0002180 0.0001025 -0.0001834 0.0000876 -0.0002016 0.0000160 -0.0000438 -0.0001701 -0.0002246 -0.0000015 0.0003198 -0.0000763 0.0000977 0.0000286 -0.0000133 -0.0000069 -0.0000622 0.0000147 0.0000571 0.0000370 -0.0001962 0.0000464 -0.0001497 -0.0000336 -0.0002230 0.0000428 -0.0000070 -0.0035908 0.0075091 0.0001804 0.0009725 -0.0000162 0.0005719 0.0000053 0.0006468 -0.0026836 0.0030908 -0.0007290 -0.0000317 0.0000110 0.0000823 0.0000928 0.0001755 -0.0000832 0.0000278 0.0011701 0.0000740 0.0000370 0.0000040 -0.0000642 -0.0006365
-0.0000468 -0.0006206 -0.0000584 -0.0004231 0.0001469 0.0001469 0.0001101 -0.0000399 0.0000296 -0.0006333 0.0000534 -0.0005393 0.0000754 -0.0002554 0.0000983 -0.0008179 0.0001135 -0.0003891 0.0001235 -0.0005890 -0.0000006 -0.0005549 0.0000788 -0.0004526 0.0000356 -0.0001353 -0.0000086 -0.0004438 -0.0000759 -0.0004325 0.0000042 -0.0007286 -0.0001895 -0.0010834 -0.0000424 -0.0004852 0.0001152 -0.0005870 0.0000167 -0.0003974 0.0001039 -0.0005215 0.0000356 -0.0004238 0.0001734 -0.0002744 0.0002412 0.0006217 0.0003692 -0.0000767 0.0001025 0.0001802 0.0000799 -0.0003127 0.0000583 0.0000359 -0.0000126 -0.0001237 0.0001775 0.0004487 -0.0000211 0.0003333 -0.0003234 0.0002708 0.0000296 -0.0001914 0.0003224 -0.0001430 -0.0000126 -0.0002188 -0.0004585 -0.0020427 0.0000193 -0.0006530 -0.0005146 -0.0008219 -0.0000080 0.0007527 0.0061479 -0.0055711 0.0011578 -0.0015604 -0.0000919 -0.0000470 -0.0001131 0.0000265 -0.0000789 -0.0002345 0.0000749 -0.0004561 0.0001072 -0.0003080 0.0000518 -0.0002992 0.0000134 -0.0001828 -0.0001751 -0.0003102 -0.0000011 0.0002352 -0.0000530 -0.0000487 0.0000530 -0.0001528 0.0000043 -0.0002156 0.0000481 -0.0001785 0.0000489 -0.0003268 0.0000591 -0.0003133 -0.0000228 -0.0003539 0.0000517 -0.0002093 -0.0014820 0.0013286 0.0001566 0.0009973 0.0003029 0.0002340 -0.0000836 0.0005455 -0.0001451 0.0015309 0.0000031 -0.0007583 0.0000526 -0.0000410 0.0000954 0.0001735 -0.0000710 0.0000083 0.0004170 0.0002918 -0.0000816 0.0001961 0.0002625 -0.0005100
-0.0000433 -0.0005895 -0.0000550 -0.0004547 0.0001407 0.0002291 0.0001204 -0.0000824 0.0000534 -0.0005346 0.0000631 -0.0005490 0.0001018 -0.0003106 0.0001159 -0.0008245 0.0001118 -0.0003478 0.0001340 -0.0005756 0.0000130 -0.0005404 0.0000629 -0.0004383 0.0000339 -0.0001311 -0.0000144 -0.0004625 -0.0000765 -0.0004448 0.0000161 -0.0007125 -0.0001888 -0.0010529 -0.0000376 -0.0004663 0.0001233 -0.0005607 0.0000207 -0.0003707 0.0001129 -0.0004736 0.0000323 -0.0003943 0.0001857 -0.0001700 0.0002642 0.0006507 0.0004824 -0.0001937 0.0000227 0.0003484 0.0000733 -0.0001509 0.0001091 0.0000972 -0.0000104 -0.0000064 0.0002456 0.0004459 0.0000455 0.0003365 -0.0002851 0.0004097 -0.0000088 0.0000092 0.0001191 0.0001250 -0.0000029 -0.0001119 0.0003755 -0.0016125 0.0001124 -0.0006884 -0.0004948 -0.0006914 -0.0000012 0.0008023 0.0006585 -0.0021187 -0.0000294 -0.0000405 -0.0001372 0.0000516 -0.0004439 0.0003101 -0.0001390 -0.0001011 0.0001147 -0.0003394 0.0001270 -0.0002111 -0.0000217 -0.0001075 0.0000183 -0.0001537 -0.0001743 -0.0002606 0.0000055 0.0002798 -0.0000696 0.0001026 0.0000342 -0.0000418 0.0000041 -0.0000930 0.0000304 0.0000615 0.0000351 -0.0002038 0.0000399 -0.0001182 -0.0000275 -0.0002160 0.0000469 0.0000153 0.0001731 -0.0028491 0.0001194 0.0010162 0.0002791 0.0003351 -0.0001231 0.0007303 0.0003693 0.0010972 0.0008802 -0.0016351 0.0000000 0.0001148 0.0001866 0.0001045 0.0000951 -0.0001137 0.0006651 -0.0008363 0.0000036 0.0001447 0.0000885 -0.0000483
-0.0000473 -0.0003118 -0.0000527 -0.0003715 0.0001357 0.0004758 0.0001125 -0.0000409 0.0000606 -0.0002696 0.0000630 -0.0004337 0.0001013 -0.0002523 0.0001138 -0.0006585 0.0001121 -0.0002235 0.0001367 -0.0004605 0.0000174 -0.0004101 0.0000414 -0.0003091 0.0000269 -0.0000763 -0.0000115 -0.0004246 -0.0000883 -0.0004094 0.0000122 -0.0006486 -0.0001942 -0.0009763 -0.0000344 -0.0003894 0.0001277 -0.0005063 0.0000229 -0.0003254 0.0001306 -0.0004438 0.0000324 -0.0003801 0.0002050 -0.0000456 0.0003080 0.0006098 0.0000076 0.0001082 0.0000241 0.0003124 0.0000809 -0.0001946 0.0001116 0.0000773 0.0000163 -0.0000520 0.0002807 0.0003676 0.0000871 0.0003266 -0.0000975 0.0003344 -0.0000153 -0.0000636 -0.0000383 0.0001537 -0.0000035 -0.0001358 -0.0009389 -0.0006953 -0.0004214 -0.0002286 -0.0004455 -0.0007342 -0.0000040 0.0008091 -0.0043733 0.0009610 -0.0002837 0.0003524 -0.0001344 0.0000428 -0.0001307 0.0000830 -0.0000027 -0.0002331 0.0001132 -0.0003785 0.0001401 -0.0002198 0.0000402 -0.0001631 0.0000448 -0.0000877 -0.0001632 -0.0002729 0.0000209 0.0002611 -0.0000763 0.0000623 0.0000435 -0.0000716 -0.0000019 -0.0001328 0.0000295 -0.0000137 0.0000380 -0.0002264 0.0000471 -0.0001749 -0.0000187 -0.0002618 0.0000448 -0.0000681 0.0028705 -0.0167568 0.0001372 0.0010716 0.0002459 0.0001248 -0.0001335 0.0007686 0.0009879 -0.0005511 0.0007671 -0.0011400 0.0000157 -0.0001367 0.0001750 0.0000093 0.0001149 -0.0003072 -0.0001839 -0.0005285 0.0003511 -0.0002617 -0.0004206 0.0001132
-0.0000323 -0.0004334 -0.0000439 -0.0003981 0.0001375 0.0003940 0.0001133 -0.0001005 0.0000675 -0.0004130 0.0000635 -0.0004714 0.0001111 -0.0003022 0.0001287 -0.0007316 0.0001106 -0.0002757 0.0001518 -0.0005234 0.0000205 -0.0004514 0.0000647 -0.0003658 0.0000248 -0.0001430 -0.0000085 -0.0004699 -0.0000945 -0.0004858 0.0000181 -0.0007144 -0.0001747 -0.0010491 -0.0000276 -0.0004496 0.0001410 -0.0005721 0.0000299 -0.0003623 0.0001576 -0.0005070 0.0000409 -0.0004455 0.0002197 -0.0000684 0.0002569 0.0005687 -0.0002427 0.0002326 0.0001362 0.0001440 0.0000747 -0.0002945 0.0000696 -0.0000701 0.0000293 -0.0001948 0.0002553 0.0003039 0.0001498 0.0001236 0.0004793 -0.0003805 0.0000051 -0.0002319 -0.0000087 -0.0000054 -0.0000055 -0.0002293 0.0009433 -0.0029272 -0.0002621 -0.0003796 -0.0004428 -0.0009372 -0.0000026 0.0007031 -0.0022413 0.0004907 -0.0000630 -0.0007139 -0.0000569 -0.0001319 0.0000141 -0.0001626 0.0000984 -0.0003805 0.0000590 -0.0005351 0.0001012 -0.0002940 0.0001246 -0.0004315 0.0000563 -0.0002030 -0.0001494 -0.0003787 0.0000315 0.0001769 -0.0000468 -0.0001007 0.0000724 -0.0002212 -0.0000114 -0.0002451 0.0000619 -0.0002391 0.0000480 -0.0003533 0.0000569 -0.0003439 0.0000055 -0.0003829 0.0000558 -0.0002623 0.0089799 -0.0299007 0.0004085 0.0008117 -0.0000993 0.0005234 -0.0000479 0.0004912 0.0021338 0.0001379 0.0001174 -0.0000797 0.0000447 0.0000225 0.0000547 0.0001546 0.0000189 -0.0001596 -0.0000094 0.0000963 0.0002679 -0.0001136 -0.0003968 -0.0001380
