-0.0000000 -0.0000000 -0.0000000 -0.0000000 -0.0000000 -0.0000000 -0.0000000 -0.0000000 -0.0000000 -0.0000000 -0.0000000 -0.0000000 -0.0000000 -0.0000000 -0.0000000 -0.0000000 -0.0000000 -0.0000000 -0.0000000 -0.0000000 -0.0000000 -0.0000000 -0.0000000 -0.0000000 -0.0000000 -0.0000000 -0.0000000 -0.0000000 -0.0000000 -0.0000000 -0.0000000 -0.0000000 -0.0000000 -0.0000000 -0.0000000 -0.0000000 -0.0000000 -0.0000000 -0.0000000 -0.0000000 -0.0000000 -0.0000000 -0.0000000 -0.0000000 -0.0000000 -0.0000000 -0.0000000 -0.0000000 -0.0000000 -0.0000000 -0.0000000 -0.0000000 -0.0000000 -0.0000000 -0.0000000 -0.0000000 -0.0000000 -0.0000000 -0.0000000 -0.0000000 -0.0000000 -0.0000000 -0.0000000 -0.0000000 -0.0000000 -0.0000000 -0.0000000 -0.0000000 -0.0000000 -0.0000000 -0.0000000 -0.0000000 -0.0000000 -0.0000000 -0.0000000 -0.0000000 -0.0000000 -0.0000000 -0.0000000 -0.0000000 -0.0000000 -0.0000000 -0.0000000 -0.0000000 -0.0000000 -0.0000000 -0.0000000 -0.0000000 -0.0000000 -0.0000000 -0.0000000 -0.0000000 -0.0000000 -0.0000000 -0.0000000 -0.0000000 -0.0000000 -0.0000000 -0.0000000 -0.0000000 -0.0000000 -0.0000000 -0.0000000 -0.0000000 -0.0000000 -0.0000000 -0.0000000 -0.0000000 -0.0000000 -0.0000000 -0.0000000 -0.0000000 -0.0000000 -0.0000000 -0.0000000 -0.0000000 -0.0000000 -0.0000000 -0.0000000 -0.0000000 -0.0000000 -0.0000000 -0.0000000 -0.0000000 -0.0000000 -0.0000000 -0.0000000 -0.0000000 -0.0000000 -0.0000000 -0.0000000 -0.0000000 -0.0000000 -0.0000000 -0.0000000 -0.0000000 -0.0000000 -0.0000000 -0.0000000 -0.0000000
-0.0000000 -0.0000000 -0.0000000 -0.0000000 -0.0000000 -0.0000000 -0.0000000 -0.0000000 -0.0000000 -0.0000000 -0.0000000 -0.0000000 -0.0000000 -0.0000000 -0.0000000 -0.0000000 -0.0000000 -0.0000000 -0.0000000 -0.0000000 -0.0000000 -0.0000000 -0.0000000 -0.0000000 -0.0000000 -0.0000000 -0.0000000 -0.0000000 -0.0000000 -0.0000000 -0.0000000 -0.0000000 -0.0000000 -0.0000000 -0.0000000 -0.0000000 -0.0000000 -0.0000000 -0.0000000 -0.0000000 -0.0000000 -0.0000000 -0.0000000 -0.0000000 -0.0000000 -0.0000000 -0.0000000 -0.0000000 -0.0000000 -0.0000000 -0.0000000 -0.0000000 -0.0000000 -0.0000000 -0.0000000 -0.0000000 -0.0000000 -0.0000000 -0.0000000 -0.0000000 -0.0000000 -0.0000000 -0.0000000 -0.0000000 -0.0000000 -0.0000000 -0.0000000 -0.0000000 -0.0000000 -0.0000000 -0.0000000 -0.0000000 -0.0000000 -0.0000000 -0.0000000 -0.0000000 -0.0000000 -0.0000000 -0.0000000 -0.0000000 -0.0000000 -0.0000000 -0.0000000 -0.0000000 -0.0000000 -0.0000000 -0.0000000 -0.0000000 -0.0000000 -0.0000000 -0.0000000 -0.0000000 -0.0000000 -0.0000000 -0.0000000 -0.0000000 -0.0000000 -0.0000000 -0.0000000 -0.0000000 -0.0000000 -0.0000000 -0.0000000 -0.0000000 -0.0000000 -0.0000000 -0.0000000 -0.0000000 -0.0000000 -0.0000000 -0.0000000 -0.0000000 -0.0000000 -0.0000000 -0.0000000 -0.0000000 -0.0000000 -0.0000000 -0.0000000 -0.0000000 -0.0000000 -0.0000000 -0.0000000 -0.0000000 -0.0000000 -0.0000000 -0.0000000 -0.0000000 -0.0000000 -0.0000000 -0.0000000 -0.0000000 -0.0000000 -0.0000000 -0.0000000 -0.0000000 -0.0000000 -0.0000000 -0.0000000 -0.0000000
-0.0000021 0.0000443 -0.0000034 0.0000419 0.0000058 0.0000426 0.0000177 0.0000663 -0.0000085 0.0000999 -0.0000015 0.0000613 0.0000038 0.0001149 0.0000045 0.0001100 -0.0000322 0.0001091 -0.0000136 0.0000508 0.0000209 0.0000600 0.0000548 0.0000102 0.0000110 0.0001257 0.0000001 0.0000659 0.0000043 0.0000896 0.0000108 0.0000594 -0.0000014 0.0000677 -0.0000071 0.0000681 -0.0000001 0.0000722 0.0000019 0.0000411 0.0000020 0.0000492 0.0000057 0.0000902 0.0000112 0.0001257 0.0047211 -0.0047258 -0.0171630 0.0174272 0.0067533 -0.0080108 0.0022219 -0.0035447 0.0036490 -0.0035467 0.0038474 -0.0032276 -0.0005491 0.0006632 -0.0011847 -0.0000995 -0.0009243 -0.0080264 -0.0001074 -0.0045276 -0.0060945 0.0082476 -0.0006288 0.0045887 -0.0000037 0.0000807 -0.0000021 0.0000543 0.0000138 0.0001676 -0.0000059 0.0000454 -0.0000061 0.0001398 0.0000036 0.0001185 -0.0000045 0.0001624 -0.0000115 0.0001282 0.0000044 0.0000752 -0.0000018 0.0000641 -0.0000073 0.0000641 0.0000024 0.0000611 -0.0000039 0.0000423 -0.0000048 0.0000491 -0.0000022 0.0000518 -0.0000094 0.0000691 0.0000062 0.0000745 -0.0000063 0.0000886 -0.0000057 0.0001258 -0.0000038 0.0000924 -0.0000019 0.0001261 -0.0000030 0.0000670 0.0000011 0.0001264 -0.0000126 0.0002159 -0.0000017 0.0001397 -0.0000072 0.0001606 -0.0000015 0.0001759 -0.0000117 0.0001894 -0.0000038 0.0001981 0.0000037 0.0001663 -0.0000124 0.0001299 -0.0000070 0.0001406 -0.0000021 0.0001405 -0.0000233 0.0002181 -0.0000105 0.0001829
0.0000076 -0.0000198 0.0000021 0.0000163 0.0000255 0.0000344 0.0000296 0.0001098 0.0000090 0.0000489 0.0000198 0.0001219 0.0000027 0.0001114 0.0000111 0.0000910 -0.0000212 0.0000029 0.0000149 0.0000885 -0.0000108 0.0000001 0.0000693 -0.0000990 -0.0000078 0.0000772 0.0000070 0.0000884 0.0000053 0.0000900 0.0000028 0.0000697 -0.0000075 0.0000410 -0.0000007 0.0000373 0.0000063 -0.0000546 0.0000026 -0.0000089 0.0000054 -0.0000232 -0.0000034 0.0000321 0.0000262 0.0000362 -0.0003303 0.0024925 0.0050478 -0.0028199 0.0003376 0.0123086 -0.0052466 -0.0003236 0.0020191 0.0015852 0.0079521 -0.0071305 0.0015060 -0.0022343 -0.0054576 -0.0068643 -0.0022044 0.0044192 -0.0097714 0.0077447 0.0011756 -0.0015446 0.0092808 -0.0090356 -0.0000149 0.0002528 -0.0000052 0.0001868 0.0000012 0.0003396 -0.0000050 0.0001764 -0.0000304 0.0003426 -0.0000208 0.0003324 -0.0000207 0.0003563 -0.0000380 0.0003429 -0.0000130 0.0002265 -0.0000095 0.0001767 -0.0000243 0.0001887 -0.0000026 0.0001714 -0.0000060 0.0001019 -0.0000137 0.0001237 -0.0000073 0.0001007 -0.0000247 0.0001485 -0.0000116 0.0001837 -0.0000232 0.0001567 -0.0000171 0.0002106 -0.0000010 0.0001890 0.0000076 0.0001757 -0.0000197 0.0001058 0.0000077 0.0001607 -0.0000013 0.0002260 -0.0000028 0.0001333 -0.0000046 0.0001228 -0.0000103 0.0000825 -0.0000075 0.0000980 -0.0000085 0.0000838 -0.0000043 0.0000692 -0.0000705 0.0001472 -0.0000108 0.0000537 -0.0000213 0.0000485 -0.0000154 0.0000832 -0.0000166 0.0000439
0.0000106 0.0000825 0.0000004 0.0000798 0.0000465 0.0001814 0.0000603 0.0003740 0.0000253 0.0002366 0.0000358 0.0003329 -0.0000115 0.0003320 -0.0000058 0.0002253 0.0000177 0.0000359 0.0000060 0.0002348 -0.0000466 0.0001460 0.0000584 -0.0000386 -0.0000330 0.0001314 0.0000074 0.0001832 -0.0000063 0.0001752 -0.0000063 0.0001657 -0.0000107 0.0001885 -0.0000038 0.0001884 -0.0000005 0.0001770 -0.0000061 0.0001253 0.0000012 0.0001490 -0.0000206 0.0003274 0.0000213 0.0002639 -0.0037790 0.0063142 0.0122454 -0.0156837 -0.0020046 0.0191109 -0.0222700 0.0165651 0.0097876 -0.0266989 0.0018720 0.0041355 0.0009216 0.0000654 -0.0022820 -0.0016171 -0.0026567 0.0012964 -0.0113774 0.0071493 0.0116631 -0.0201823 0.0141786 -0.0227503 -0.0000065 0.0000898 0.0000027 0.0000469 0.0000009 0.0001452 -0.0000057 0.0000848 -0.0000223 0.0000985 -0.0000223 0.0000865 -0.0000134 0.0001043 -0.0000310 0.0001044 -0.0000136 0.0000747 -0.0000040 0.0000721 0.0000142 0.0000376 0.0000068 0.0000572 -0.0000062 0.0000092 -0.0000090 0.0000642 -0.0000165 -0.0000007 -0.0000174 0.0000306 -0.0000058 0.0000119 -0.0000193 -0.0000054 0.0000096 -0.0000781 0.0000134 -0.0000141 0.0000136 -0.0001005 -0.0000087 -0.0000225 0.0000104 -0.0001159 0.0000166 -0.0001142 0.0000042 -0.0001498 0.0000293 -0.0001816 0.0000018 -0.0003122 0.0000017 -0.0002900 0.0000205 -0.0003783 0.0000206 -0.0003114 0.0000180 -0.0002024 0.0000416 -0.0002853 -0.0000106 -0.0002860 0.0000259 -0.0003684 0.0000131 -0.0003543
0.0000139 0.0001936 -0.0000039 0.0001851 0.0000510 0.0002417 0.0000613 0.0004970 0.0000183 0.0003169 0.0000339 0.0004123 -0.0000077 0.0003899 -0.0000152 0.0003405 0.0000319 0.0000507 0.0000372 0.0002975 -0.0000484 0.0001439 -0.0000274 0.0000832 -0.0000443 0.0001908 0.0000012 0.0002342 -0.0000200 0.0002273 -0.0000146 0.0002278 0.0000076 0.0002337 -0.0000057 0.0002534 -0.0000128 0.0002144 -0.0000040 0.0001621 0.0000042 0.0001740 -0.0000251 0.0003851 0.0000292 0.0002841 0.0001082 0.0024053 0.0075138 -0.0146334 0.0106924 -0.0083489 0.0024654 -0.0055808 -0.0008496 -0.0082039 -0.0029808 0.0092869 -0.0025958 0.0026963 0.0007257 0.0006599 -0.0137297 0.0184342 -0.0066297 0.0027584 0.0166160 -0.0277638 0.0066065 -0.0044363 0.0000179 -0.0002613 0.0000145 -0.0002567 0.0000183 -0.0002390 -0.0000029 -0.0001413 0.0000250 -0.0003215 0.0000206 -0.0003635 0.0000116 -0.0002823 0.0000029 -0.0003299 0.0000116 -0.0002149 0.0000107 -0.0001221 0.0000282 -0.0001677 0.0000243 -0.0001604 -0.0000081 -0.0000901 -0.0000054 -0.0000322 -0.0000221 -0.0000856 0.0000015 -0.0000832 0.0000210 -0.0001839 0.0000178 -0.0001162 0.0000668 -0.0002951 0.0000115 -0.0002065 0.0000218 -0.0002426 0.0000125 -0.0000716 0.0000138 -0.0002208 0.0000362 -0.0001262 0.0000103 -0.0001688 0.0000264 -0.0001396 0.0000367 -0.0002396 0.0000023 -0.0001885 0.0000372 -0.0002912 0.0000382 -0.0002048 0.0000666 -0.0002025 0.0000578 -0.0001738 0.0000196 -0.0001491 0.0000233 -0.0001707 0.0000117 -0.0001421
0.0000279 0.0001091 0.0000032 0.0001430 0.0000538 0.0001385 0.0000642 0.0003790 0.0000516 0.0001521 0.0000447 0.0003328 -0.0000045 0.0002457 -0.0000068 0.0003168 0.0000516 -0.0000291 0.0000671 0.0002534 0.0000048 -0.0000303 -0.0000589 0.0000585 -0.0000339 0.0001763 -0.0000026 0.0002168 -0.0000194 0.0001863 -0.0000036 0.0001869 0.0000110 0.0001805 -0.0000019 0.0001723 0.0000014 0.0000168 0.0000002 0.0001054 0.0000135 0.0000729 -0.0000137 0.0002561 0.0000405 0.0001451 -0.0026751 -0.0000762 0.0055710 -0.0076211 0.0062384 0.0035881 0.0042271 -0.0103329 -0.0045011 0.0050288 -0.0022516 0.0002287 -0.0000316 -0.0000969 -0.0026116 0.0060952 -0.0043881 0.0078978 -0.0007354 0.0014095 -0.0084448 0.0097139 0.0011121 -0.0009233 0.0000188 -0.0001006 0.0000188 -0.0001370 0.0000071 -0.0001175 0.0000034 -0.0000082 0.0000288 -0.0000548 0.0000172 -0.0000971 -0.0000087 0.0000021 -0.0000106 -0.0000667 0.0000069 -0.0000457 0.0000005 -0.0000005 0.0000246 -0.0000099 0.0000095 -0.0000207 -0.0000087 0.0000176 -0.0000178 0.0000475 -0.0000159 0.0000186 -0.0000118 0.0000455 0.0000218 -0.0000007 -0.0000010 0.0000743 0.0000518 -0.0000300 0.0000077 -0.0000189 0.0000196 0.0000028 0.0000032 0.0000430 0.0000229 0.0000168 0.0000307 0.0002130 0.0000253 0.0000408 -0.0000036 0.0001380 0.0000211 0.0001085 0.0000115 0.0001316 0.0000378 0.0000591 0.0000374 0.0000999 0.0000188 0.0000690 0.0000274 0.0000862 0.0000138 0.0001184 0.0000085 0.0001902 -0.0000164 0.0002078
0.0000271 0.0001575 -0.0000024 0.0001517 0.0000505 0.0001704 0.0000881 0.0004851 0.0000354 0.0002985 0.0000352 0.0003757 -0.0000066 0.0003851 0.0000022 0.0004251 0.0000336 0.0000909 0.0000731 0.0002533 -0.0000064 0.0001398 0.0000176 0.0001003 -0.0000179 0.0003206 -0.0000136 0.0002834 -0.0000248 0.0002649 -0.0000175 0.0002877 0.0000025 0.0003372 -0.0000137 0.0002731 -0.0000010 0.0002365 -0.0000029 0.0002274 0.0000048 0.0002352 -0.0000053 0.0005019 0.0000330 0.0003879 -0.0003213 -0.0043766 -0.0079488 0.0046523 0.0065384 0.0050895 -0.0102944 0.0094789 0.0037152 -0.0138670 0.0005230 -0.0035326 0.0002135 0.0014639 0.0019479 -0.0040273 -0.0026215 -0.0009823 -0.0044392 0.0057085 -0.0063815 0.0077299 0.0118149 -0.0364070 0.0000089 0.0001679 -0.0000016 0.0001063 -0.0000105 0.0001576 0.0000069 0.0002065 -0.0000078 0.0003029 -0.0000167 0.0002760 -0.0000367 0.0003716 -0.0000382 0.0002997 -0.0000148 0.0002086 -0.0000217 0.0002099 0.0000098 0.0001986 -0.0000090 0.0001595 -0.0000066 0.0001778 -0.0000326 0.0001902 -0.0000132 0.0001758 -0.0000416 0.0002384 0.0000135 0.0002654 -0.0000432 0.0003038 0.0000107 0.0003058 0.0000037 0.0002824 0.0000089 0.0003363 -0.0000178 0.0002302 0.0000154 0.0003506 -0.0000104 0.0006919 0.0000212 0.0003511 -0.0000242 0.0004585 -0.0000000 0.0004532 -0.0000073 0.0004939 0.0000112 0.0004480 -0.0000051 0.0004542 0.0000086 0.0003091 -0.0000251 0.0003677 -0.0000097 0.0003875 -0.0000408 0.0006121 -0.0000461 0.0005223
0.0000221 0.0002744 -0.0000103 0.0002497 0.0000467 0.0002212 0.0000808 0.0005163 0.0000191 0.0003522 0.0000066 0.0004147 -0.0000007 0.0004402 0.0000154 0.0005067 -0.0000137 0.0001925 0.0000285 0.0003226 -0.0000380 0.0002189 -0.0000606 0.0002249 -0.0000121 0.0003812 -0.0000166 0.0003238 -0.0000316 0.0003121 -0.0000393 0.0003707 0.0000045 0.0003529 -0.0000182 0.0002994 -0.0000183 0.0002829 -0.0000076 0.0002441 -0.0000009 0.0002401 0.0000055 0.0005088 0.0000318 0.0004230 0.0003381 0.0007529 -0.0099845 0.0053938 0.0016051 0.0082996 0.0003886 0.0002585 0.0068128 -0.0270707 -0.0030630 0.0082818 -0.0062239 0.0058472 0.0103986 -0.0219583 -0.0113644 0.0200703 -0.0057157 0.0041097 0.0137247 -0.0232918 -0.0108693 0.0133425 -0.0000172 0.0004591 -0.0000215 0.0003483 -0.0000302 0.0004537 0.0000115 0.0004366 -0.0000624 0.0006174 -0.0000581 0.0006298 -0.0000550 0.0006672 -0.0000655 0.0006457 -0.0000386 0.0004445 -0.0000470 0.0004100 -0.0000193 0.0004019 -0.0000193 0.0003388 -0.0000040 0.0002797 -0.0000435 0.0003131 -0.0000186 0.0002609 -0.0000605 0.0003656 -0.0000214 0.0004182 -0.0000652 0.0003602 -0.0000250 0.0004219 0.0000040 0.0004330 -0.0000094 0.0004189 -0.0000282 0.0002453 0.0000109 0.0003545 -0.0000256 0.0006846 0.0000088 0.0003219 -0.0000277 0.0003815 -0.0000203 0.0002765 -0.0000155 0.0002993 -0.0000195 0.0002515 -0.0000247 0.0002550 0.0000101 0.0002136 -0.0000386 0.0001705 -0.0000298 0.0002016 -0.0000249 0.0003018 -0.0000222 0.0002145
0.0000264 0.0002210 -0.0000113 0.0002223 0.0000462 0.0001511 0.0000552 0.0003988 0.0000219 0.0002463 -0.0000172 0.0003730 0.0000067 0.0002982 0.0000125 0.0004789 -0.0000133 0.0001462 0.0000250 0.0003091 -0.0000158 0.0001304 -0.0001197 0.0002181 -0.0000096 0.0003127 -0.0000098 0.0002941 -0.0000286 0.0002386 -0.0000315 0.0003215 -0.0000188 0.0002940 -0.0000182 0.0001992 -0.0000208 0.0001306 -0.0000109 0.0001803 0.0000002 0.0001380 0.0000152 0.0003236 0.0000392 0.0002741 -0.0069493 0.0095153 -0.0049506 -0.0020156 -0.0041332 0.0091878 0.0015191 -0.0010657 0.0003309 -0.0080812 0.0025790 0.0036470 -0.0050426 0.0021873 0.0070741 -0.0179794 -0.0087203 0.0202598 0.0051864 0.0000101 0.0065583 -0.0025568 -0.0063691 0.0095298 -0.0000177 0.0002075 -0.0000135 0.0001744 -0.0000168 0.0002091 0.0000088 0.0003066 -0.0000435 0.0002320 -0.0000373 0.0002607 -0.0000309 0.0002950 -0.0000392 0.0002723 -0.0000382 0.0002239 -0.0000349 0.0002611 -0.0000402 0.0002559 -0.0000090 0.0001938 -0.0000005 0.0001769 -0.0000333 0.0002317 -0.0000293 0.0001233 -0.0000414 0.0002157 -0.0000158 0.0001295 -0.0000495 0.0001084 -0.0000112 0.0000108 0.0000105 0.0001248 -0.0000004 0.0000034 -0.0000093 0.0000519 0.0000109 -0.0000601 -0.0000129 0.0002019 0.0000275 -0.0000285 -0.0000238 -0.0000039 -0.0000004 -0.0002660 0.0000057 -0.0002204 0.0000094 -0.0003443 0.0000067 -0.0002625 -0.0000311 -0.0000511 0.0000103 -0.0002844 -0.0000210 -0.0002230 0.0000177 -0.0003253 0.0000181 -0.0003142
0.0000201 0.0002961 -0.0000214 0.0002486 0.0000490 0.0002015 0.0000629 0.0005258 0.0000104 0.0004304 0.0000121 0.0004597 -0.0000121 0.0004294 0.0000119 0.0005405 -0.0000151 0.0002505 0.0000087 0.0003298 0.0000042 0.0002963 0.0000065 0.0002121 -0.0000121 0.0003770 -0.0000140 0.0003402 -0.0000352 0.0002651 -0.0000278 0.0003727 -0.0000297 0.0004599 -0.0000345 0.0003030 -0.0000066 0.0003317 -0.0000107 0.0003010 -0.0000118 0.0003251 0.0000116 0.0004828 0.0000499 0.0004861 0.0010415 -0.0005994 0.0034093 -0.0068407 0.0081044 -0.0031562 0.0016278 -0.0062086 -0.0025719 0.0040933 -0.0006228 -0.0051280 -0.0021591 -0.0012155 -0.0045340 -0.0114036 -0.0053222 0.0113276 0.0057631 0.0023646 0.0014472 0.0040215 0.0092747 -0.0385713 0.0000020 -0.0002444 0.0000018 -0.0001711 0.0000133 -0.0002077 0.0000092 0.0000425 0.0000154 -0.0002901 -0.0000034 -0.0002714 0.0000009 -0.0001783 0.0000040 -0.0002684 -0.0000014 -0.0001318 -0.0000114 0.0000475 -0.0000110 0.0000118 0.0000042 -0.0000731 -0.0000004 0.0000736 -0.0000247 0.0001285 -0.0000339 0.0000159 -0.0000188 0.0000844 0.0000319 -0.0001399 -0.0000234 -0.0000328 0.0000461 -0.0002991 0.0000014 -0.0001269 0.0000179 -0.0002323 0.0000150 -0.0000141 0.0000057 -0.0002154 -0.0000278 0.0001857 0.0000484 -0.0000730 -0.0000214 0.0000090 0.0000266 -0.0002196 -0.0000111 -0.0001165 0.0000321 -0.0002881 0.0000180 -0.0001836 -0.0000067 -0.0000286 0.0000655 -0.0002482 0.0000115 -0.0001478 -0.0000009 -0.0001470 0.0000067 -0.0001390
0.0000129 0.0003259 -0.0000240 0.0003016 0.0000538 0.0002182 0.0000526 0.0005030 0.0000008 0.0004571 0.0000212 0.0005219 -0.0000189 0.0004134 -0.0000066 0.0005500 -0.0000306 0.0002780 -0.0000027 0.0003800 -0.0000201 0.0003102 -0.0000037 0.0001974 -0.0000271 0.0003288 -0.0000173 0.0003505 -0.0000481 0.0001887 -0.0000301 0.0003316 0.0000017 0.0004996 -0.0000423 0.0003118 -0.0000173 0.0002986 -0.0000048 0.0003387 -0.0000109 0.0003559 0.0000103 0.0003714 0.0000569 0.0004128 0.0054806 -0.0025173 0.0033109 -0.0091043 0.0023409 0.0057659 -0.0023579 -0.0014211 0.0027406 -0.0039198 -0.0116231 0.0098205 0.0013104 -0.0017989 0.0012033 -0.0225912 -0.0036572 0.0066450 0.0038702 -0.0031387 0.0004416 -0.0004713 -0.0014740 -0.0209603 0.0000017 -0.0000942 -0.0000051 -0.0000669 0.0000178 -0.0000178 0.0000143 0.0001344 0.0000046 -0.0000241 -0.0000230 0.0000017 -0.0000067 0.0000873 -0.0000127 -0.0000153 0.0000110 0.0000084 -0.0000259 0.0001707 0.0000061 0.0001268 -0.0000121 0.0000410 -0.0000027 0.0001632 -0.0000328 0.0002167 -0.0000361 0.0001195 -0.0000331 0.0002036 0.0000214 0.0000695 -0.0000476 0.0001642 0.0000387 -0.0000508 -0.0000042 0.0000562 0.0000131 0.0000158 0.0000053 0.0001097 0.0000057 0.0000366 -0.0000480 0.0005362 0.0000248 0.0001757 -0.0000443 0.0002903 0.0000200 0.0001046 -0.0000333 0.0002500 0.0000108 0.0001011 0.0000124 0.0001228 0.0000758 0.0000938 0.0000626 -0.0000009 -0.0000015 0.0001239 -0.0000323 0.0002497 -0.0000204 0.0002108
0.0000107 0.0002646 -0.0000160 0.0002745 0.0000619 0.0001338 0.0000396 0.0003298 -0.0000196 0.0003721 -0.0000045 0.0004491 -0.0000209 0.0002308 -0.0000259 0.0004569 -0.0000346 0.0002216 0.0000571 0.0003097 -0.0000429 0.0002176 -0.0000425 0.0001704 -0.0000273 0.0002157 -0.0000213 0.0002835 -0.0000565 0.0000538 -0.0000392 0.0002511 0.0000230 0.0003877 -0.0000421 0.0001911 -0.0000350 0.0001800 -0.0000116 0.0002909 -0.0000136 0.0002561 0.0000346 0.0001431 0.0000419 0.0002149 -0.0062496 0.0086885 -0.0128122 -0.0089095 0.0035379 0.0005992 -0.0023593 0.0009068 0.0011986 -0.0052053 -0.0079294 0.0067057 0.0020564 -0.0011144 0.0131788 -0.0341596 0.0014610 0.0067309 0.0104683 -0.0168068 -0.0044697 0.0070007 0.0071774 -0.0299676 -0.0000053 0.0001970 -0.0000274 0.0001706 0.0000019 0.0003118 0.0000119 0.0003246 -0.0000341 0.0003535 -0.0000488 0.0003685 -0.0000219 0.0004501 -0.0000503 0.0003768 -0.0000116 0.0002681 -0.0000660 0.0003809 -0.0000340 0.0003366 -0.0000428 0.0002454 -0.0000003 0.0003149 -0.0000463 0.0003576 -0.0000331 0.0002696 -0.0000543 0.0003787 -0.0000289 0.0003520 -0.0001008 0.0004272 -0.0000110 0.0003148 0.0000040 0.0003584 0.0000048 0.0003781 -0.0000179 0.0003040 0.0000003 0.0003796 -0.0000853 0.0010131 -0.0000122 0.0005167 -0.0000876 0.0006657 -0.0000031 0.0004932 -0.0000436 0.0006437 -0.0000183 0.0005125 -0.0000037 0.0004757 -0.0000163 0.0003861 -0.0000143 0.0003143 -0.0000413 0.0004166 -0.0000652 0.0006281 -0.0000611 0.0005212
-0.0000009 0.0004589 -0.0000192 0.0003567 0.0000547 0.0002322 0.0000464 0.0004836 -0.0000222 0.0005531 -0.0000281 0.0004774 -0.0000304 0.0004071 -0.0000221 0.0005413 -0.0000480 0.0003918 0.0000204 0.0003249 -0.0000278 0.0004490 0.0000285 0.0002670 -0.0000172 0.0003478 -0.0000439 0.0003127 -0.0000630 0.0001316 -0.0000676 0.0003789 -0.0000181 0.0005147 -0.0000491 0.0002820 -0.0000454 0.0004724 -0.0000293 0.0003873 -0.0000335 0.0003900 0.0000400 0.0002066 0.0000395 0.0003480 -0.0062202 0.0077265 0.0013203 -0.0153183 0.0064132 0.0008854 -0.0049933 0.0020656 -0.0060405 0.0100931 0.0031271 0.0024454 0.0013291 -0.0020151 0.0096190 -0.0150407 0.0021910 -0.0027635 0.0098367 -0.0073456 -0.0039218 0.0066911 -0.0005491 -0.0064819 -0.0000159 0.0004363 -0.0000362 0.0003829 -0.0000125 0.0004977 0.0000122 0.0004537 -0.0000658 0.0005180 -0.0000762 0.0005809 -0.0000446 0.0006003 -0.0000721 0.0005493 -0.0000422 0.0004091 -0.0000758 0.0004677 -0.0000622 0.0004579 -0.0000431 0.0003517 -0.0000024 0.0003419 -0.0000506 0.0004041 -0.0000277 0.0002620 -0.0000639 0.0004195 -0.0000659 0.0004065 -0.0001213 0.0004026 -0.0000275 0.0002796 0.0000009 0.0003922 0.0000014 0.0003246 -0.0000299 0.0002744 -0.0000002 0.0002752 -0.0001059 0.0009103 -0.0000226 0.0004247 -0.0000822 0.0005213 -0.0000414 0.0002628 -0.0000493 0.0003877 -0.0000385 0.0002283 -0.0000062 0.0001939 -0.0000410 0.0002435 -0.0000113 0.0000530 -0.0000187 0.0001367 0.0000050 0.0002321 -0.0000419 0.0001852
-0.0000048 0.0004750 -0.0000313 0.0003376 0.0000440 0.0001996 0.0000406 0.0003843 -0.0000209 0.0004648 -0.0000456 0.0003446 -0.0000140 0.0003186 -0.0000119 0.0005050 -0.0000479 0.0004282 -0.0000609 0.0002640 -0.0000097 0.0004530 -0.0000029 0.0003425 -0.0000006 0.0003368 -0.0000564 0.0002480 -0.0000637 0.0000894 -0.0000571 0.0003449 -0.0000388 0.0004406 -0.0000501 0.0002143 -0.0000688 0.0004180 -0.0000326 0.0003389 -0.0000399 0.0003414 0.0000456 0.0000696 0.0000352 0.0002955 -0.0106335 0.0111352 0.0088164 -0.0183212 0.0009377 0.0068692 -0.0134429 0.0108708 -0.0002377 0.0037459 0.0070645 -0.0050369 0.0040699 -0.0025723 -0.0041967 0.0130919 -0.0036038 -0.0210894 0.0048952 0.0012987 0.0116011 -0.0123655 -0.0049805 0.0080347 -0.0000076 0.0001797 -0.0000153 0.0001730 -0.0000064 0.0002227 0.0000135 0.0003037 -0.0000409 0.0001305 -0.0000497 0.0002157 -0.0000381 0.0002388 -0.0000538 0.0001686 -0.0000259 0.0001735 -0.0000681 0.0002991 -0.0000517 0.0002959 -0.0000421 0.0001833 -0.0000050 0.0002003 -0.0000384 0.0002893 -0.0000307 0.0000969 -0.0000459 0.0002416 -0.0000343 0.0001135 -0.0000827 0.0001135 0.0000072 -0.0001424 0.0000042 0.0000801 0.0000116 -0.0001027 -0.0000052 0.0000564 0.0000091 -0.0001491 -0.0001058 0.0004537 0.0000059 0.0000800 -0.0000633 0.0001222 -0.0000321 -0.0002626 -0.0000404 -0.0000983 -0.0000181 -0.0003259 0.0000130 -0.0003124 0.0000605 -0.0001443 0.0000588 -0.0003733 0.0000265 -0.0002903 0.0000569 -0.0002914 0.0000203 -0.0002827
0.0000027 0.0003809 -0.0000399 0.0002495 0.0000430 0.0000880 0.0000298 0.0001835 -0.0000221 0.0003281 -0.0000453 0.0001432 -0.0000122 0.0001171 0.0000003 0.0003789 -0.0000611 0.0004225 -0.0000784 0.0001412 -0.0000344 0.0004216 0.0000589 0.0002946 0.0000192 0.0002383 -0.0000540 0.0001252 -0.0000568 -0.0000252 -0.0000513 0.0002429 -0.0000588 0.0003086 -0.0000562 0.0000950 -0.0000845 0.0002760 -0.0000359 0.0002632 -0.0000391 0.0002586 0.0000557 0.0000124 0.0000218 0.0002797 -0.0364927 0.0282088 -0.0016066 -0.0018094 -0.0145614 0.0152230 -0.0111505 0.0114410 0.0109057 -0.0092714 0.0066913 -0.0111887 0.0055119 -0.0039098 0.0025818 0.0059766 -0.0102244 0.0116728 -0.0082876 0.0130397 0.0095386 -0.0083770 -0.0085603 0.0085648 0.0000081 -0.0001380 -0.0000040 -0.0001159 0.0000074 -0.0000549 0.0000184 0.0001532 -0.0000020 -0.0001475 -0.0000197 -0.0001009 -0.0000199 -0.0000079 -0.0000364 -0.0001021 -0.0000025 -0.0000074 -0.0000464 0.0001866 -0.0000112 0.0001443 -0.0000350 0.0000314 -0.0000058 0.0001459 -0.0000308 0.0002295 -0.0000313 0.0000549 -0.0000351 0.0001769 0.0000104 -0.0000050 -0.0000429 0.0000489 0.0000523 -0.0002346 0.0000031 -0.0000177 0.0000176 -0.0001438 0.0000207 0.0000271 0.0000143 -0.0001661 -0.0001290 0.0005796 0.0000189 0.0001751 -0.0000776 0.0002528 0.0000077 -0.0001249 -0.0000459 0.0001097 -0.0000105 -0.0001146 0.0000253 -0.0001485 0.0000094 0.0000286 0.0000866 -0.0002316 0.0000288 -0.0001151 0.0000125 -0.0000164 0.0000186 -0.0000607
-0.0000033 0.0005385 -0.0000534 0.0003525 0.0000507 0.0001645 0.0000202 0.0002438 -0.0000411 0.0003854 -0.0000719 0.0001781 -0.0000146 0.0001702 -0.0000013 0.0004062 -0.0000462 0.0004550 -0.0000851 0.0001523 -0.0000398 0.0004816 0.0000320 0.0003761 0.0000199 0.0002090 -0.0000537 0.0000932 -0.0000610 -0.0000564 -0.0000783 0.0002263 -0.0000535 0.0002662 -0.0000513 0.0000712 -0.0000758 0.0002271 -0.0000411 0.0002420 -0.0000434 0.0002289 0.0000513 -0.0000919 0.0000273 0.0002197 0.0003647 0.0023645 -0.0116922 0.0157495 0.0033547 -0.0067579 0.0043182 0.0012495 0.0062462 0.0046062 -0.0012552 0.0054097 0.0053849 -0.0039768 0.0110872 -0.0130000 -0.0057826 0.0173036 -0.0102930 0.0130828 -0.0043018 0.0008163 -0.0070060 0.0057103 0.0000050 0.0000489 -0.0000155 0.0000369 0.0000059 0.0001380 0.0000195 0.0002612 -0.0000109 0.0001142 -0.0000412 0.0001735 -0.0000278 0.0002531 -0.0000511 0.0001676 -0.0000304 0.0001776 -0.0000487 0.0002921 0.0000045 0.0002353 -0.0000125 0.0001286 -0.0000073 0.0002396 -0.0000396 0.0003033 -0.0000254 0.0001546 -0.0000523 0.0003045 -0.0000022 0.0001805 -0.0000580 0.0002200 0.0000350 0.0000548 -0.0000074 0.0001932 0.0000087 0.0001518 0.0000040 0.0001640 0.0000149 0.0001165 -0.0001626 0.0009627 -0.0000095 0.0004734 -0.0001223 0.0005868 -0.0000056 0.0002274 -0.0000550 0.0004822 -0.0000091 0.0002816 0.0000144 0.0001869 0.0000211 0.0002467 0.0000673 0.0000352 0.0000178 0.0001500 -0.0000071 0.0003890 -0.0000081 0.0002869
-0.0000093 0.0004342 -0.0000567 0.0002904 0.0000557 0.0000931 0.0000266 0.0000874 -0.0000802 0.0003130 -0.0000777 0.0001310 -0.0000096 0.0000298 -0.0000171 0.0002687 -0.0000124 0.0003449 -0.0000597 0.0000845 -0.0000189 0.0003020 -0.0000033 0.0003187 0.0000133 0.0000474 -0.0000486 -0.0000045 -0.0000745 -0.0002117 -0.0000752 0.0000719 -0.0000133 0.0001945 -0.0000454 -0.0000473 -0.0000715 0.0000240 -0.0000298 0.0001997 -0.0000305 0.0001749 0.0000324 -0.0003385 0.0000523 0.0000150 0.0047127 -0.0006287 -0.0150760 0.0168834 0.0051290 -0.0027801 0.0050896 -0.0029956 -0.0007705 0.0052214 -0.0029871 -0.0066399 0.0038396 -0.0034715 -0.0044554 0.0110534 -0.0030397 0.0212146 0.0024674 -0.0004674 0.0041042 -0.0226323 0.0040586 -0.0015294 -0.0000126 0.0003300 -0.0000386 0.0002844 -0.0000156 0.0004385 0.0000215 0.0004711 -0.0000489 0.0004730 -0.0000819 0.0005464 -0.0000531 0.0006074 -0.0000877 0.0005725 -0.0000581 0.0004310 -0.0000882 0.0004942 -0.0000495 0.0004416 -0.0000159 0.0003027 -0.0000032 0.0004035 -0.0000544 0.0004343 -0.0000159 0.0003050 -0.0000757 0.0004981 -0.0000433 0.0004664 -0.0000994 0.0004730 -0.0000283 0.0004597 -0.0000073 0.0005223 -0.0000074 0.0005508 -0.0000206 0.0003647 0.0000124 0.0004661 -0.0002052 0.0013806 -0.0000380 0.0007048 -0.0001632 0.0008285 -0.0000853 0.0005217 -0.0000708 0.0006164 -0.0000446 0.0004876 0.0000051 0.0002757 0.0000148 0.0003244 0.0000170 0.0000711 -0.0000047 0.0001899 -0.0000012 0.0003661 -0.0000115 0.0002690
-0.0000177 0.0003074 -0.0000486 0.0001894 0.0000499 0.0000792 0.0000372 0.0000561 -0.0000643 0.0003564 -0.0000635 0.0001189 -0.0000241 0.0000363 -0.0000249 0.0001854 -0.0000282 0.0003667 -0.0000486 0.0000774 -0.0000405 0.0003193 -0.0000093 0.0003409 0.0000111 0.0000209 -0.0000650 -0.0000398 -0.0000907 -0.0002746 -0.0000815 0.0000419 -0.0000107 0.0003363 -0.0000650 0.0000273 -0.0000792 0.0002134 -0.0000305 0.0003092 -0.0000261 0.0003579 0.0000185 -0.0001642 0.0000495 0.0001678 -0.0030560 0.0024501 -0.0135420 0.0079613 -0.0141203 0.0127481 0.0027113 -0.0029934 -0.0011782 -0.0102463 0.0206196 -0.0554164 0.0017179 -0.0052680 -0.0087576 0.0047277 -0.0071614 0.0243579 0.0109575 -0.0073787 0.0148574 -0.0474555 0.0001114 -0.0035298 -0.0000219 0.0003061 -0.0000494 0.0003132 -0.0000347 0.0003309 0.0000328 0.0004938 -0.0000581 0.0003647 -0.0000932 0.0004824 -0.0000595 0.0004909 -0.0000945 0.0004743 -0.0000555 0.0003748 -0.0000977 0.0004638 -0.0000883 0.0004512 -0.0000202 0.0002979 -0.0000039 0.0003674 -0.0000563 0.0004036 -0.0000247 0.0002411 -0.0000682 0.0004151 -0.0000339 0.0003209 -0.0000859 0.0003060 -0.0000278 0.0002349 -0.0000017 0.0003978 -0.0000063 0.0003213 -0.0000130 0.0002433 0.0000170 0.0002091 -0.0002072 0.0011068 -0.0000435 0.0005044 -0.0001564 0.0005923 -0.0000899 0.0001636 -0.0000694 0.0002972 -0.0000604 0.0001312 -0.0000068 -0.0000697 -0.0000117 0.0001383 0.0000309 -0.0002484 0.0000465 -0.0001656 0.0000206 -0.0000651 0.0000170 -0.0001342
-0.0000221 0.0002700 -0.0000489 0.0001963 0.0000552 0.0000682 0.0000388 -0.0000145 -0.0000591 0.0002706 -0.0000763 0.0001068 -0.0000258 -0.0000149 -0.0000397 0.0001460 -0.0000319 0.0003225 -0.0000376 0.0000961 -0.0000615 0.0002733 -0.0000960 0.0003689 0.0000078 -0.0000484 -0.0000730 -0.0001008 -0.0000961 -0.0003377 -0.0000728 -0.0000197 -0.0000171 0.0002329 -0.0000551 -0.0000419 -0.0000801 0.0001482 -0.0000438 0.0002508 -0.0000375 0.0002822 0.0000300 -0.0002521 0.0000294 0.0000784 0.0109315 -0.0132698 -0.0029973 0.0042394 0.0042806 -0.0090729 0.0080013 -0.0045703 -0.0082123 0.0031980 0.0122079 -0.0390909 0.0055094 -0.0054658 -0.0211356 -0.0008066 -0.0243407 0.0290409 0.0032298 -0.0043281 -0.0001100 0.0012464 -0.0021191 -0.0022656 -0.0000027 -0.0000125 -0.0000355 0.0000777 -0.0000375 -0.0000980 0.0000367 0.0003185 -0.0000093 -0.0001019 -0.0000489 0.0000425 -0.0000398 0.0000377 -0.0000580 -0.0000001 -0.0000435 0.0000981 -0.0000795 0.0002323 -0.0000888 0.0002469 -0.0000251 0.0000934 -0.0000046 0.0001775 -0.0000445 0.0002368 -0.0000289 0.0000390 -0.0000469 0.0001630 0.0000162 -0.0000549 -0.0000464 -0.0000343 0.0000298 -0.0002793 -0.0000009 0.0000152 0.0000154 -0.0001813 0.0000145 -0.0000081 0.0000301 -0.0002523 -0.0001966 0.0006611 -0.0000289 0.0002432 -0.0001369 0.0003372 -0.0000420 -0.0002186 -0.0000476 0.0001184 -0.0000069 -0.0001823 0.0000147 -0.0002734 -0.0000051 0.0000108 0.0000884 -0.0003955 0.0000872 -0.0003213 0.0000420 -0.0001507 0.0000355 -0.0002283
-0.0000117 0.0000890 -0.0000529 0.0000834 0.0000595 -0.0000534 0.0000393 -0.0002217 -0.0000633 0.0000785 -0.0000747 -0.0000239 -0.0000250 -0.0002155 -0.0000625 0.0000001 -0.0000378 0.0001884 -0.0000291 -0.0000247 -0.0000515 0.0001111 -0.0001040 0.0002272 0.0000120 -0.0002007 -0.0000642 -0.0002457 -0.0000879 -0.0004755 -0.0000636 -0.0001516 -0.0000221 0.0000169 -0.0000480 -0.0002460 -0.0000645 -0.0001003 -0.0000470 0.0001157 -0.0000445 0.0000945 0.0000402 -0.0004817 0.0000224 -0.0001235 0.0138989 -0.0132677 0.0001487 0.0129072 0.0070087 -0.0092505 -0.0042190 0.0069016 0.0007552 0.0044740 0.0128666 -0.0275603 0.0047277 -0.0020635 -0.0105141 0.0052627 -0.0075330 0.0107718 0.0030118 -0.0096209 0.0074495 -0.0012466 0.0088513 -0.0121609 0.0000081 -0.0000686 -0.0000423 0.0000191 -0.0000364 -0.0001650 0.0000386 0.0003058 0.0000156 -0.0001008 -0.0000310 0.0000206 -0.0000297 0.0000460 -0.0000523 0.0000096 -0.0000332 0.0000947 -0.0000746 0.0002089 -0.0000807 0.0002145 -0.0000592 0.0000894 -0.0000065 0.0001790 -0.0000459 0.0002242 -0.0000175 0.0000484 -0.0000553 0.0001832 -0.0000030 0.0000303 -0.0000655 0.0000654 0.0000415 -0.0001668 -0.0000097 0.0000672 0.0000183 -0.0000582 0.0000247 0.0000297 0.0000290 -0.0001151 -0.0002200 0.0008943 -0.0000353 0.0003935 -0.0001743 0.0005534 -0.0000533 0.0000389 -0.0000536 0.0003673 0.0000063 0.0000741 0.0000317 -0.0000540 -0.0000141 0.0001453 0.0000891 -0.0002046 0.0000370 -0.0000873 0.0000443 0.0001238 0.0000189 0.0000409
-0.0000147 0.0001752 -0.0000573 0.0000911 0.0000501 0.0000568 0.0000279 -0.0000319 -0.0000433 0.0002371 -0.0000868 0.0000234 -0.0000413 -0.0000641 -0.0000670 0.0000646 -0.0000730 0.0002926 -0.0000731 -0.0000248 -0.0000187 0.0002254 -0.0001353 0.0003616 0.0000212 -0.0000992 -0.0000719 -0.0002464 -0.0000850 -0.0004029 -0.0000908 -0.0000398 -0.0000491 0.0001207 -0.0000644 -0.0001373 -0.0000755 0.0001839 -0.0000617 0.0002232 -0.0000616 0.0002520 0.0000486 -0.0001660 0.0000024 0.0001988 -0.0002096 0.0064546 0.0005643 0.0076839 -0.0077932 0.0119607 -0.0248638 0.0172240 -0.0046182 0.0087170 0.0162196 -0.0241635 0.0030713 -0.0037369 -0.0065869 0.0124290 0.0087459 -0.0091936 0.0060624 -0.0011159 0.0146296 -0.0229155 -0.0018467 0.0101997 -0.0000065 0.0001331 -0.0000579 0.0001841 -0.0000073 0.0002317 0.0000279 0.0003963 -0.0000090 0.0001940 -0.0000623 0.0003228 -0.0000374 0.0003483 -0.0000812 0.0003251 -0.0000435 0.0002884 -0.0000691 0.0003199 -0.0000698 0.0003233 -0.0000826 0.0002555 -0.0000106 0.0002904 -0.0000598 0.0003203 -0.0000137 0.0001674 -0.0000731 0.0003161 -0.0000210 0.0002644 -0.0000855 0.0002609 0.0000275 0.0001568 -0.0000184 0.0003149 0.0000073 0.0002672 0.0000081 0.0001829 0.0000227 0.0001975 -0.0002504 0.0012640 -0.0000460 0.0006785 -0.0002288 0.0008728 -0.0000776 0.0003923 -0.0000889 0.0007349 -0.0000050 0.0004403 -0.0000246 0.0002977 0.0000123 0.0003198 0.0000648 0.0000406 0.0000128 0.0001479 0.0000292 0.0004137 -0.0000141 0.0002964
-0.0000234 0.0001548 -0.0000642 0.0000915 0.0000446 0.0000710 0.0000216 -0.0000308 -0.0000594 0.0002440 -0.0000970 0.0000281 -0.0000280 -0.0000941 -0.0000629 0.0000536 -0.0000610 0.0002445 -0.0000583 -0.0000046 0.0000082 0.0001658 -0.0001153 0.0003623 0.0000321 -0.0001159 -0.0000736 -0.0002771 -0.0000793 -0.0004020 -0.0000927 -0.0000527 -0.0000574 0.0000557 -0.0000577 -0.0001713 -0.0000755 0.0001165 -0.0000662 0.0001938 -0.0000677 0.0002065 0.0000621 -0.0001880 0.0000011 0.0001944 -0.0031158 0.0078240 -0.0031728 -0.0021054 -0.0084814 0.0163764 -0.0077639 -0.0017491 -0.0142762 0.0153983 0.0039366 -0.0122876 -0.0050163 0.0022276 -0.0053773 0.0076959 -0.0057665 0.0064264 -0.0007914 0.0063257 0.0099798 -0.0226704 -0.0011727 0.0164096 -0.0000207 0.0003019 -0.0000638 0.0003478 -0.0000087 0.0003595 0.0000202 0.0004634 -0.0000276 0.0002853 -0.0000890 0.0004623 -0.0000494 0.0004275 -0.0001015 0.0004278 -0.0000497 0.0003564 -0.0000655 0.0003479 -0.0000590 0.0003449 -0.0000768 0.0003150 -0.0000123 0.0002905 -0.0000616 0.0003229 -0.0000181 0.0001504 -0.0000759 0.0002917 -0.0000123 0.0002601 -0.0000842 0.0001861 0.0000239 0.0001006 -0.0000072 0.0003103 0.0000124 0.0002097 -0.0000085 0.0001478 0.0000246 0.0001121 -0.0002640 0.0011329 -0.0000681 0.0005903 -0.0002315 0.0007372 -0.0000862 0.0001576 -0.0000949 0.0005297 -0.0000221 0.0002027 -0.0000347 0.0000544 0.0000135 0.0001970 0.0000952 -0.0001882 0.0000625 -0.0001191 0.0000469 0.0001207 0.0000092 0.0000217
-0.0000249 -0.0000007 -0.0000711 -0.0000018 0.0000487 -0.0000253 0.0000193 -0.0001946 -0.0000351 0.0000666 -0.0000749 -0.0000908 -0.0000128 -0.0002571 -0.0000608 -0.0000576 -0.0000473 0.0001030 -0.0000480 -0.0001125 0.0000130 0.0000097 -0.0000640 0.0001671 0.0000448 -0.0001987 -0.0000625 -0.0003830 -0.0000672 -0.0004643 -0.0000696 -0.0002164 -0.0000375 -0.0001189 -0.0000523 -0.0003251 -0.0000565 -0.0001131 -0.0000648 0.0000857 -0.0000672 0.0000928 0.0000708 -0.0003282 0.0000044 0.0000582 0.0048358 -0.0007150 0.0031507 -0.0143060 -0.0155901 0.0242619 -0.0057476 -0.0077206 -0.0063731 0.0086991 -0.0133178 0.0109219 -0.0066725 0.0040017 -0.0087804 -0.0031753 -0.0241282 0.0111425 0.0052255 -0.0006414 0.0164892 -0.0269236 0.0067177 -0.0043082 -0.0000080 0.0001001 -0.0000313 0.0001765 -0.0000334 -0.0000601 0.0000369 0.0003705 0.0000049 -0.0000426 -0.0000702 0.0001627 -0.0000364 0.0000979 -0.0000812 0.0001052 -0.0000359 0.0001590 -0.0000589 0.0001853 -0.0000343 0.0001683 -0.0000509 0.0001544 -0.0000137 0.0001503 -0.0000502 0.0001898 -0.0000202 -0.0000017 -0.0000472 0.0000894 -0.0000048 0.0000020 -0.0000695 -0.0000537 0.0000604 -0.0002685 0.0000126 0.0000445 0.0000309 -0.0001400 0.0000115 -0.0000550 0.0000465 -0.0002476 -0.0002484 0.0007354 -0.0000723 0.0002831 -0.0002176 0.0004321 -0.0000932 -0.0002436 -0.0000668 0.0001336 -0.0000127 -0.0002242 0.0000073 -0.0003676 -0.0000155 -0.0000484 0.0001458 -0.0005261 0.0001298 -0.0004822 0.0001000 -0.0002767 0.0000663 -0.0003341
-0.0000265 0.0001466 -0.0000734 0.0000632 0.0000510 0.0001154 0.0000231 0.0000491 -0.0000183 0.0002740 -0.0000696 0.0000068 -0.0000370 -0.0000110 -0.0000596 0.0000987 -0.0000292 0.0002421 -0.0001158 -0.0000803 -0.0000420 0.0002325 -0.0001165 0.0002411 0.0000493 0.0000155 -0.0000683 -0.0003091 -0.0000662 -0.0002912 -0.0000863 -0.0001121 -0.0000530 0.0000783 -0.0000641 -0.0001509 -0.0000672 0.0002251 -0.0000753 0.0002215 -0.0000822 0.0003272 0.0000743 0.0000346 -0.0000040 0.0003986 -0.0021466 0.0008534 0.0127866 -0.0377735 -0.0079664 0.0085286 -0.0069921 -0.0039071 0.0021435 -0.0016218 -0.0117029 0.0094712 -0.0016023 0.0000523 -0.0276891 0.0193622 -0.0036908 -0.0091176 0.0038102 0.0061009 0.0072892 -0.0005182 0.0122464 -0.0216727 0.0000124 -0.0001188 0.0000070 -0.0000512 -0.0000280 -0.0002890 0.0000453 0.0002745 0.0000508 -0.0002361 -0.0000415 -0.0000367 -0.0000155 -0.0000707 -0.0000468 -0.0000697 -0.0000321 0.0000440 -0.0000655 0.0000878 -0.0000408 0.0000653 -0.0000286 0.0000342 -0.0000129 0.0001095 -0.0000484 0.0001286 -0.0000090 -0.0000227 -0.0000349 0.0000235 0.0000221 -0.0000918 -0.0000293 -0.0000767 0.0000862 -0.0002725 0.0000159 -0.0000044 0.0000343 -0.0001165 0.0000421 -0.0000753 0.0000559 -0.0002185 -0.0002464 0.0008570 -0.0000432 0.0003587 -0.0002300 0.0005688 -0.0001143 -0.0000410 -0.0000733 0.0003382 0.0000039 -0.0000070 0.0000185 -0.0001787 0.0000104 0.0000110 0.0001682 -0.0004045 0.0001604 -0.0003360 0.0000984 -0.0000484 0.0000705 -0.0001415
-0.0000292 0.0001386 -0.0000759 0.0000750 0.0000473 0.0001425 0.0000258 0.0000892 -0.0000327 0.0003071 -0.0000655 0.0000319 -0.0000341 0.0000111 -0.0000374 0.0001447 -0.0000127 0.0001792 -0.0001147 -0.0000675 -0.0000336 0.0001990 -0.0001063 0.0002206 0.0000484 0.0000839 -0.0000668 -0.0002768 -0.0000616 -0.0002226 -0.0000956 -0.0000864 -0.0000687 0.0000917 -0.0000570 -0.0001511 -0.0000804 0.0002150 -0.0000831 0.0002108 -0.0000845 0.0003133 0.0000852 0.0000791 0.0000067 0.0004521 -0.0122403 0.0056443 0.0067939 -0.0223323 -0.0000368 -0.0016430 0.0167225 -0.0259721 -0.0035163 0.0063590 0.0036345 -0.0063933 -0.0054089 0.0020692 -0.0156663 0.0140277 -0.0026946 0.0082823 -0.0051347 0.0128012 0.0019833 -0.0000175 0.0105906 -0.0182954 0.0000056 0.0000394 -0.0000140 0.0000976 -0.0000414 -0.0001655 0.0000465 0.0003874 0.0000541 -0.0000140 -0.0000470 0.0001958 -0.0000231 0.0001631 -0.0000518 0.0001667 -0.0000383 0.0001935 -0.0000728 0.0001811 -0.0000719 0.0001935 -0.0000395 0.0001310 -0.0000137 0.0002084 -0.0000563 0.0001940 0.0000025 0.0000896 -0.0000492 0.0001401 0.0000027 0.0001018 -0.0000357 0.0001027 0.0000496 0.0000478 0.0000074 0.0001898 0.0000242 0.0001662 0.0000315 0.0000630 0.0000519 0.0000633 -0.0002687 0.0012017 -0.0000618 0.0006178 -0.0002424 0.0008118 -0.0001454 0.0003056 -0.0000871 0.0006799 -0.0000117 0.0003680 0.0000163 0.0001401 0.0000201 0.0002330 0.0001299 -0.0001064 0.0001430 -0.0000734 0.0000508 0.0003686 0.0000572 0.0001755
-0.0000310 0.0000247 -0.0000825 0.0000132 0.0000496 0.0000951 0.0000161 0.0000277 -0.0000327 0.0002126 -0.0000595 -0.0000164 -0.0000125 -0.0000755 -0.0000161 0.0001152 -0.0000292 0.0000642 -0.0000896 -0.0001277 0.0000285 0.0000261 -0.0000346 0.0000661 0.0000504 0.0000740 -0.0000604 -0.0002846 -0.0000563 -0.0002036 -0.0000812 -0.0001654 -0.0000627 -0.0000204 -0.0000497 -0.0002368 -0.0000676 0.0000494 -0.0000828 0.0001290 -0.0000818 0.0002109 0.0000862 0.0000377 0.0000129 0.0003794 0.0006426 0.0011898 0.0078515 -0.0146859 -0.0044792 0.0130129 0.0247727 -0.0386492 -0.0135839 0.0068054 0.0122977 -0.0164583 -0.0023699 -0.0013236 0.0044662 -0.0080984 -0.0042508 0.0164447 -0.0132771 0.0155929 0.0098395 -0.0287363 -0.0012174 0.0079893 -0.0000185 0.0002874 -0.0000375 0.0003255 -0.0000565 0.0000128 0.0000461 0.0005371 0.0000265 0.0002170 -0.0000560 0.0004516 -0.0000409 0.0003786 -0.0000711 0.0004047 -0.0000559 0.0003630 -0.0000751 0.0002757 -0.0000544 0.0002846 -0.0000453 0.0002762 -0.0000183 0.0002398 -0.0000637 0.0002459 0.0000039 0.0001194 -0.0000543 0.0001787 -0.0000052 0.0001793 -0.0000416 0.0000899 0.0000204 0.0001069 0.0000156 0.0002550 0.0000246 0.0001735 0.0000061 0.0000705 0.0000598 0.0000550 -0.0002876 0.0011368 -0.0000870 0.0005607 -0.0002326 0.0006873 -0.0001431 0.0001281 -0.0000840 0.0004966 -0.0000039 0.0001576 0.0000148 -0.0000765 0.0000396 0.0000782 0.0000988 -0.0002903 0.0001481 -0.0003017 0.0000603 0.0000909 0.0000798 -0.0000966
-0.0000400 0.0002351 -0.0000847 0.0001247 0.0000442 0.0002984 0.0000199 0.0003495 -0.0000472 0.0004829 -0.0001068 0.0001994 -0.0000150 0.0002172 -0.0000460 0.0003594 -0.0000264 0.0002261 -0.0001079 -0.0000592 0.0000445 0.0002016 -0.0000414 0.0002127 0.0000438 0.0002479 -0.0000608 -0.0001518 -0.0000633 -0.0000194 -0.0000897 -0.0000611 -0.0000639 0.0001096 -0.0000428 -0.0000860 -0.0000755 0.0002120 -0.0000851 0.0001744 -0.0000908 0.0002895 0.0000719 0.0001619 0.0000169 0.0004338 0.0105921 -0.0041692 0.0074932 -0.0128052 0.0048495 -0.0055987 0.0103430 -0.0208506 -0.0056629 0.0041395 0.0136081 -0.0315211 -0.0039904 0.0014631 -0.0033588 0.0056665 -0.0062715 0.0137333 -0.0048187 0.0003617 0.0059649 -0.0190970 0.0053687 -0.0003141 -0.0000081 0.0000804 -0.0000054 0.0001433 -0.0000381 -0.0001882 0.0000390 0.0003974 0.0000547 -0.0001112 -0.0000270 0.0001503 -0.0000078 0.0000512 -0.0000487 0.0000814 -0.0000434 0.0001563 -0.0000755 0.0001073 -0.0000440 0.0001056 -0.0000315 0.0001353 -0.0000188 0.0001080 -0.0000551 0.0001266 0.0000012 -0.0000192 -0.0000344 -0.0000197 0.0000353 -0.0001009 0.0000023 -0.0001909 0.0000826 -0.0002499 0.0000340 0.0000053 0.0000442 -0.0001613 0.0000264 -0.0001127 0.0000763 -0.0002670 -0.0002625 0.0007590 -0.0000684 0.0002777 -0.0002196 0.0003965 -0.0001426 -0.0002800 -0.0000710 0.0001024 0.0000083 -0.0002833 0.0000307 -0.0004850 0.0000848 -0.0002387 0.0001458 -0.0006907 0.0001881 -0.0006691 0.0001237 -0.0004175 0.0001054 -0.0005131
-0.0000334 0.0002044 -0.0000825 0.0001089 0.0000408 0.0003067 0.0000324 0.0003362 -0.0000435 0.0004773 -0.0001190 0.0002219 -0.0000221 0.0002433 -0.0000539 0.0004384 -0.0000162 0.0002022 -0.0001087 -0.0000493 0.0000335 0.0001643 -0.0000031 0.0001456 0.0000422 0.0003159 -0.0000541 -0.0001075 -0.0000538 0.0000637 -0.0000913 -0.0000306 -0.0000696 0.0001117 -0.0000378 -0.0000883 -0.0000760 0.0001678 -0.0000935 0.0001597 -0.0000962 0.0002677 0.0000676 0.0001932 0.0000230 0.0004084 0.0031646 0.0012664 -0.0021793 0.0036751 0.0058128 -0.0129376 -0.0085552 0.0071150 -0.0054819 0.0066774 0.0063129 -0.0188985 -0.0066340 0.0060892 -0.0109360 0.0095524 -0.0042297 0.0086683 0.0031533 -0.0030823 0.0087796 -0.0184314 0.0005649 -0.0056757 0.0000212 -0.0002450 0.0000232 -0.0001434 -0.0000012 -0.0004489 0.0000381 0.0001906 0.0001243 -0.0004972 0.0000004 -0.0002282 0.0000387 -0.0003028 -0.0000136 -0.0002931 -0.0000216 -0.0000939 -0.0000564 -0.0001010 -0.0000614 -0.0000838 -0.0000165 -0.0000791 -0.0000125 0.0000207 -0.0000447 0.0000065 0.0000101 -0.0000938 -0.0000131 -0.0001568 0.0000615 -0.0002554 0.0000428 -0.0002957 0.0001368 -0.0003623 0.0000320 -0.0001449 0.0000590 -0.0002430 0.0000610 -0.0001590 0.0000834 -0.0003135 -0.0002352 0.0007827 -0.0000713 0.0003314 -0.0002385 0.0004904 -0.0001599 -0.0001562 -0.0000875 0.0002597 -0.0000131 -0.0001176 0.0000479 -0.0003411 0.0000595 -0.0001304 0.0001970 -0.0005915 0.0001955 -0.0005255 0.0001328 -0.0002158 0.0001037 -0.0003270
-0.0000242 0.0001132 -0.0000807 0.0000593 0.0000495 0.0002447 0.0000320 0.0002548 -0.0000363 0.0004049 -0.0001061 0.0001836 -0.0000262 0.0001981 -0.0000272 0.0004237 -0.0000314 0.0001417 -0.0001094 -0.0000507 0.0000190 0.0000664 0.0000743 0.0000095 0.0000501 0.0003804 -0.0000578 -0.0000681 -0.0000393 0.0001338 -0.0000911 0.0000064 -0.0000779 0.0001262 -0.0000489 -0.0000711 -0.0000650 0.0002421 -0.0001080 0.0002144 -0.0001071 0.0003469 0.0000723 0.0004507 0.0000151 0.0005979 -0.0092309 0.0120284 -0.0077216 0.0122942 0.0030122 -0.0113792 -0.0025577 -0.0011602 0.0029599 -0.0003249 0.0102365 -0.0190537 -0.0094390 0.0101800 -0.0056363 0.0079965 -0.0057574 0.0028952 -0.0111346 0.0136714 0.0014735 -0.0094680 -0.0105725 0.0105626 0.0000228 -0.0000876 -0.0000002 -0.0000155 0.0000052 -0.0003105 0.0000423 0.0002798 0.0001358 -0.0002627 -0.0000086 -0.0000132 0.0000342 -0.0000764 -0.0000182 -0.0000842 -0.0000296 0.0000446 -0.0000544 -0.0000237 -0.0000273 -0.0000431 -0.0000283 0.0000187 -0.0000128 0.0001061 -0.0000522 0.0000561 0.0000214 0.0000035 -0.0000214 -0.0000590 0.0000424 -0.0000714 0.0000260 -0.0001167 0.0001175 -0.0000882 0.0000234 0.0000042 0.0000484 0.0000117 0.0000601 -0.0000379 0.0000805 -0.0000572 -0.0002489 0.0010882 -0.0001036 0.0005852 -0.0002414 0.0007281 -0.0001612 0.0001631 -0.0001067 0.0005864 -0.0000143 0.0002340 0.0000301 -0.0000019 0.0000695 0.0000801 0.0001623 -0.0002959 0.0001954 -0.0002672 0.0001082 0.0001619 0.0000970 -0.0000146
-0.0000262 0.0002010 -0.0000900 0.0001520 0.0000547 0.0002897 0.0000206 0.0003038 -0.0000041 0.0003928 -0.0001073 0.0002370 -0.0000133 0.0002546 -0.0000479 0.0005237 -0.0000350 0.0001292 -0.0001268 0.0000340 -0.0000002 0.0000401 0.0000061 0.0000936 0.0000463 0.0004235 -0.0000672 0.0000113 -0.0000395 0.0001984 -0.0000983 0.0000455 -0.0000693 0.0001041 -0.0000460 -0.0000395 -0.0000768 0.0002401 -0.0001085 0.0001964 -0.0001090 0.0003077 0.0000712 0.0004757 0.0000252 0.0005740 -0.0007097 0.0051714 -0.0015046 0.0060770 -0.0031330 -0.0072419 0.0005340 -0.0138454 0.0079675 -0.0065481 0.0059366 -0.0187795 -0.0144390 0.0136068 -0.0016272 0.0159678 -0.0208141 0.0134871 -0.0223770 0.0168812 -0.0215701 0.0268600 -0.0019843 0.0063125 0.0000090 0.0001966 -0.0000232 0.0002077 -0.0000045 -0.0000230 0.0000440 0.0004733 0.0001074 0.0000974 -0.0000279 0.0003276 0.0000168 0.0002810 -0.0000467 0.0002813 -0.0000410 0.0002741 -0.0000561 0.0001532 -0.0000143 0.0001232 -0.0000307 0.0001946 -0.0000135 0.0002731 -0.0000678 0.0001962 0.0000319 0.0001566 -0.0000453 0.0001385 0.0000264 0.0001793 -0.0000007 0.0001251 0.0000842 0.0002885 0.0000063 0.0002957 0.0000222 0.0003691 0.0000404 0.0001204 0.0000769 0.0002294 -0.0002877 0.0013335 -0.0001272 0.0006986 -0.0002317 0.0007974 -0.0001774 0.0002571 -0.0001093 0.0005722 -0.0000245 0.0002485 0.0000034 0.0000147 0.0000295 0.0001504 0.0001156 -0.0002978 0.0002015 -0.0003313 0.0000980 0.0000862 0.0000912 -0.0000920
-0.0000241 0.0001261 -0.0001003 0.0001026 0.0000526 0.0002373 0.0000119 0.0002197 0.0000094 0.0003066 -0.0001167 0.0001990 -0.0000096 0.0001868 -0.0000800 0.0005761 -0.0000467 0.0000934 -0.0001298 0.0000207 0.0000016 -0.0000466 -0.0000218 -0.0000310 0.0000492 0.0004172 -0.0000621 0.0000206 -0.0000275 0.0001888 -0.0001028 0.0000237 -0.0000672 0.0000305 -0.0000425 -0.0001186 -0.0000751 0.0000902 -0.0001002 0.0001145 -0.0001061 0.0001874 0.0000759 0.0003739 0.0000322 0.0004339 0.0035993 -0.0014066 0.0111313 -0.0147187 -0.0095188 0.0051157 -0.0136641 0.0075026 0.0035577 -0.0055268 0.0084150 -0.0245157 -0.0056370 0.0063152 0.0035662 0.0015910 -0.0052037 0.0035751 -0.0172569 0.0081512 -0.0027655 0.0206601 0.0056365 -0.0036189 0.0000091 0.0001343 -0.0000259 0.0001599 0.0000046 -0.0000960 0.0000446 0.0004322 0.0001143 -0.0000936 -0.0000233 0.0001513 0.0000345 0.0000944 -0.0000321 0.0000898 -0.0000334 0.0001504 -0.0000504 0.0000651 -0.0000398 0.0000689 -0.0000393 0.0001308 -0.0000093 0.0002030 -0.0000657 0.0001417 0.0000356 0.0000609 -0.0000313 0.0000130 0.0000561 -0.0000172 0.0000409 -0.0001040 0.0000987 0.0000542 0.0000160 0.0001361 0.0000284 0.0001297 0.0000452 0.0000098 0.0000860 -0.0000154 -0.0002903 0.0010437 -0.0001308 0.0004869 -0.0002220 0.0005385 -0.0001802 -0.0000754 -0.0000993 0.0002238 -0.0000321 -0.0001259 0.0000079 -0.0003339 0.0000524 -0.0000750 0.0001679 -0.0006276 0.0002549 -0.0006803 0.0001291 -0.0003385 0.0001198 -0.0004752
-0.0000378 0.0002113 -0.0001040 0.0001063 0.0000442 0.0003194 0.0000212 0.0004003 -0.0000078 0.0004922 -0.0001208 0.0002939 -0.0000342 0.0003588 -0.0000592 0.0006926 -0.0000335 0.0002024 -0.0000983 -0.0000151 0.0000063 0.0001549 -0.0000145 0.0000329 0.0000593 0.0005705 -0.0000552 0.0001034 -0.0000188 0.0003022 -0.0001119 0.0001332 -0.0000914 0.0002199 -0.0000560 0.0000202 -0.0000783 0.0003308 -0.0001103 0.0002325 -0.0001193 0.0003539 0.0000805 0.0006337 0.0000249 0.0006695 0.0060575 -0.0061685 -0.0019171 0.0016845 -0.0121269 0.0105711 -0.0102308 0.0098000 -0.0127119 0.0187136 0.0008294 -0.0011690 0.0011478 -0.0016380 -0.0051020 0.0044816 0.0063392 -0.0131784 0.0022000 -0.0029735 0.0045038 0.0048104 0.0047604 -0.0055620 0.0000292 -0.0001859 -0.0000058 -0.0001192 0.0000210 -0.0004460 0.0000462 0.0002195 0.0001668 -0.0005314 0.0000071 -0.0002933 0.0000676 -0.0003624 0.0000197 -0.0004097 -0.0000073 -0.0001724 -0.0000280 -0.0002114 -0.0000248 -0.0002060 -0.0000426 -0.0000915 -0.0000041 0.0000110 -0.0000510 -0.0000441 0.0000338 -0.0001340 -0.0000049 -0.0002625 0.0000622 -0.0003363 0.0000857 -0.0004420 0.0001351 -0.0003516 0.0000252 -0.0002251 0.0000556 -0.0002942 0.0000728 -0.0001717 0.0000962 -0.0003516 -0.0002573 0.0007078 -0.0001299 0.0003455 -0.0002004 0.0003682 -0.0001640 -0.0002391 -0.0001131 0.0001537 -0.0000250 -0.0002379 0.0000139 -0.0003924 0.0000393 -0.0001259 0.0002024 -0.0006460 0.0002618 -0.0006587 0.0001407 -0.0003183 0.0001326 -0.0004672
-0.0000455 0.0002052 -0.0001038 0.0001138 0.0000503 0.0002874 0.0000275 0.0003312 -0.0000174 0.0004557 -0.0001243 0.0002883 -0.0000233 0.0003200 -0.0000510 0.0006803 -0.0000100 0.0001747 -0.0000622 -0.0000452 -0.0000323 0.0001683 -0.0000531 0.0000903 0.0000527 0.0005610 -0.0000580 0.0001429 -0.0000253 0.0003126 -0.0000977 0.0001016 -0.0000759 0.0001663 -0.0000455 -0.0000010 -0.0000861 0.0002519 -0.0001090 0.0001928 -0.0001175 0.0002863 0.0000781 0.0005212 0.0000356 0.0005374 0.0026416 -0.0036497 -0.0037918 0.0025885 -0.0013566 -0.0021089 0.0013991 -0.0078165 -0.0125338 0.0053015 -0.0067542 0.0140645 0.0024071 -0.0035689 -0.0161560 0.0149784 0.0031464 -0.0041520 0.0057227 -0.0044397 -0.0070762 0.0045912 -0.0082287 0.0048698 0.0000325 -0.0001642 0.0000208 -0.0001573 0.0000191 -0.0004618 0.0000550 0.0002372 0.0001888 -0.0004187 0.0000294 -0.0002368 0.0000729 -0.0002855 0.0000314 -0.0003572 -0.0000111 -0.0001323 -0.0000208 -0.0002313 0.0000024 -0.0002368 -0.0000279 -0.0000975 -0.0000028 0.0000428 -0.0000581 -0.0000362 0.0000365 -0.0000731 -0.0000098 -0.0002221 0.0000489 -0.0002289 0.0000795 -0.0003096 0.0001303 -0.0001432 0.0000163 -0.0001502 0.0000478 -0.0001155 0.0000880 -0.0001070 0.0000865 -0.0001845 -0.0002646 0.0009031 -0.0001273 0.0004857 -0.0001890 0.0005226 -0.0001499 -0.0000074 -0.0001497 0.0004049 -0.0000323 0.0000291 0.0000049 -0.0001336 -0.0000423 0.0000988 0.0001611 -0.0003735 0.0002151 -0.0003703 0.0001182 0.0000004 0.0000970 -0.0001683
-0.0000344 0.0000639 -0.0001038 0.0000370 0.0000532 0.0001664 0.0000363 0.0001213 0.0000143 0.0002711 -0.0001300 0.0002368 -0.0000062 0.0001505 -0.0000628 0.0005918 0.0000105 0.0000436 -0.0001001 -0.0000047 -0.0000373 0.0000192 -0.0000311 -0.0000374 0.0000393 0.0004177 -0.0000561 0.0001249 -0.0000324 0.0002240 -0.0000963 0.0000203 -0.0000607 0.0000267 -0.0000319 -0.0001434 -0.0000851 0.0000151 -0.0001007 0.0000861 -0.0001088 0.0001275 0.0000766 0.0002613 0.0000436 0.0002562 0.0031500 -0.0025492 -0.0045574 0.0124002 0.0132024 -0.0245318 0.0102837 -0.0267014 0.0069836 -0.0221236 -0.0016513 0.0085011 0.0017744 0.0018746 -0.0057036 0.0035182 0.0073712 -0.0042016 -0.0026430 0.0019164 -0.0097640 0.0079241 -0.0014711 -0.0020977 0.0000201 0.0000612 -0.0000041 0.0000447 -0.0000042 -0.0002621 0.0000608 0.0004024 0.0001611 -0.0000698 0.0000130 0.0000659 0.0000610 0.0000193 0.0000142 -0.0000495 -0.0000354 0.0000936 -0.0000307 -0.0000740 -0.0000045 -0.0000720 -0.0000207 0.0000285 -0.0000080 0.0001754 -0.0000698 0.0000754 0.0000438 0.0000680 -0.0000252 -0.0000611 0.0000762 -0.0000422 0.0000570 -0.0000878 0.0000939 0.0002009 0.0000157 0.0000687 0.0000260 0.0001967 0.0000791 0.0000540 0.0000752 0.0001325 -0.0002916 0.0012416 -0.0001567 0.0007629 -0.0002115 0.0007821 -0.0001815 0.0003448 -0.0001449 0.0007183 -0.0000436 0.0003901 -0.0000336 0.0002364 -0.0000496 0.0003517 0.0000899 -0.0000544 0.0001601 -0.0000614 0.0000879 0.0003248 0.0000639 0.0001090
-0.0000374 0.0002171 -0.0001126 0.0001502 0.0000482 0.0002973 0.0000519 0.0003136 0.0000295 0.0004774 -0.0001026 0.0004303 -0.0000302 0.0003715 -0.0000613 0.0006701 0.0000100 0.0001507 -0.0001200 0.0001611 -0.0000015 0.0001669 -0.0000133 0.0000664 0.0000250 0.0004474 -0.0000610 0.0002172 -0.0000410 0.0002947 -0.0001064 0.0001401 -0.0000966 0.0002577 -0.0000439 0.0000251 -0.0000728 0.0002738 -0.0001095 0.0002377 -0.0001206 0.0003274 0.0000690 0.0004792 0.0000331 0.0004625 0.0059676 -0.0106025 -0.0149599 0.0225897 0.0059839 -0.0158239 0.0071158 -0.0177144 -0.0070171 0.0109837 -0.0042558 0.0074360 -0.0013624 0.0056049 0.0078417 -0.0123295 0.0027479 -0.0096308 -0.0031909 0.0051539 -0.0071125 -0.0024399 0.0018539 0.0015009 0.0000050 0.0002279 -0.0000331 0.0002408 -0.0000271 -0.0001499 0.0000562 0.0005063 0.0001274 0.0000670 -0.0000069 0.0002075 0.0000512 0.0001075 0.0000021 0.0000550 -0.0000235 0.0001441 -0.0000393 -0.0000139 -0.0000289 0.0000151 0.0000067 0.0000710 -0.0000077 0.0001919 -0.0000599 0.0001022 0.0000498 0.0000685 -0.0000329 -0.0000391 0.0000483 -0.0000094 0.0000544 -0.0001366 0.0000643 0.0002083 0.0000257 0.0000747 0.0000204 0.0001414 0.0000604 0.0000493 0.0000682 0.0001006 -0.0002898 0.0010882 -0.0001835 0.0006694 -0.0002050 0.0006234 -0.0002271 0.0001822 -0.0001210 0.0004534 -0.0000525 0.0001299 -0.0000393 0.0000108 -0.0000859 0.0002521 0.0000717 -0.0002101 0.0001516 -0.0002338 0.0000936 0.0000659 0.0000714 -0.0001367
-0.0000410 0.0002374 -0.0001097 0.0002185 0.0000468 0.0003026 0.0000430 0.0002636 -0.0000006 0.0004611 -0.0000802 0.0004898 -0.0000331 0.0003376 -0.0000774 0.0006354 -0.0000192 0.0001548 -0.0000632 0.0002097 0.0000146 0.0001258 0.0000031 0.0000208 0.0000032 0.0003427 -0.0000632 0.0002317 -0.0000471 0.0002475 -0.0001003 0.0001143 -0.0001010 0.0002310 -0.0000367 0.0000138 -0.0000698 0.0001920 -0.0001050 0.0002055 -0.0001192 0.0002756 0.0000647 0.0003043 0.0000361 0.0003005 0.0044767 -0.0138898 -0.0113177 0.0115394 -0.0098818 -0.0027649 -0.0015916 -0.0060137 -0.0162903 0.0149260 -0.0136359 0.0173166 -0.0060434 0.0075725 -0.0106254 0.0147148 0.0005688 -0.0147374 -0.0046128 0.0020364 0.0005367 -0.0083781 0.0001966 -0.0006119 0.0000087 0.0000152 0.0000068 0.0000361 -0.0000283 -0.0003799 0.0000548 0.0003857 0.0001399 -0.0002220 0.0000343 -0.0001228 0.0000632 -0.0002189 0.0000302 -0.0002867 0.0000028 -0.0000975 -0.0000234 -0.0002084 -0.0000023 -0.0001760 0.0000090 -0.0000867 -0.0000041 0.0000637 -0.0000466 -0.0000223 0.0000477 -0.0000678 -0.0000217 -0.0002180 0.0000161 -0.0002270 0.0000934 -0.0004003 0.0000778 -0.0000936 0.0000323 -0.0001729 0.0000222 -0.0001802 0.0000680 -0.0001020 0.0000673 -0.0001979 -0.0002691 0.0006811 -0.0001613 0.0003418 -0.0001591 0.0002717 -0.0002131 -0.0002165 -0.0001061 0.0000246 -0.0000432 -0.0003281 -0.0000299 -0.0003898 -0.0000539 -0.0000277 0.0000879 -0.0004672 0.0001658 -0.0004968 0.0001111 -0.0002816 0.0000782 -0.0004259
-0.0000350 0.0000966 -0.0000947 0.0001316 0.0000507 0.0001760 0.0000349 0.0000206 0.0000082 0.0002207 -0.0000527 0.0003468 -0.0000150 0.0000927 -0.0000879 0.0004831 -0.0000118 0.0000111 -0.0000663 0.0001629 -0.0000077 -0.0000021 -0.0000244 -0.0000623 -0.0000047 0.0001381 -0.0000591 0.0001553 -0.0000417 0.0000853 -0.0001124 0.0000182 -0.0000897 0.0000744 -0.0000274 -0.0001418 -0.0000735 -0.0000561 -0.0000981 0.0000931 -0.0001068 0.0001090 0.0000684 -0.0000307 0.0000327 -0.0000012 -0.0003629 -0.0050967 -0.0126307 0.0041787 -0.0107308 0.0026073 -0.0140540 0.0080038 -0.0146421 0.0288388 -0.0058558 0.0066901 -0.0061581 0.0053283 -0.0123416 0.0231315 0.0057351 -0.0082007 -0.0035290 0.0044680 -0.0050978 0.0045501 0.0050534 -0.0050347 0.0000126 -0.0002049 0.0000260 -0.0001950 -0.0000233 -0.0005013 0.0000545 0.0002663 0.0001517 -0.0003448 0.0000566 -0.0003430 0.0000741 -0.0003614 0.0000539 -0.0004757 -0.0000073 -0.0002128 0.0000009 -0.0003358 0.0000092 -0.0003069 -0.0000047 -0.0001883 -0.0000053 0.0000208 -0.0000505 -0.0000913 0.0000504 -0.0000899 -0.0000205 -0.0002793 0.0000423 -0.0003110 0.0001037 -0.0003902 0.0000656 -0.0000514 0.0000222 -0.0002309 0.0000138 -0.0001515 0.0000829 -0.0000841 0.0000574 -0.0001494 -0.0002708 0.0007632 -0.0001707 0.0004203 -0.0001604 0.0003564 -0.0001971 -0.0000645 -0.0001076 0.0001785 -0.0000243 -0.0001595 -0.0000354 -0.0002021 -0.0000528 0.0000761 0.0000534 -0.0002468 0.0001088 -0.0002115 0.0000840 -0.0000238 0.0000548 -0.0001907
-0.0000493 0.0002228 -0.0000978 0.0001923 0.0000539 0.0002772 0.0000497 0.0001426 -0.0000021 0.0003968 -0.0000631 0.0004140 -0.0000318 0.0002340 -0.0000771 0.0005020 -0.0000383 0.0001647 -0.0001019 0.0002467 -0.0000186 0.0001906 -0.0001592 0.0001997 -0.0000042 0.0001604 -0.0000679 0.0001841 -0.0000445 0.0001008 -0.0001348 0.0001113 -0.0001011 0.0002215 -0.0000404 -0.0000079 -0.0000903 0.0002210 -0.0001121 0.0002356 -0.0001110 0.0002837 0.0000581 0.0001552 0.0000139 0.0001982 -0.0073806 0.0042159 0.0061141 -0.0058847 -0.0059625 0.0026503 -0.0013137 -0.0086413 -0.0077155 0.0267929 0.0075739 -0.0120078 0.0006429 -0.0032430 -0.0008775 0.0121309 0.0088878 -0.0078566 -0.0033354 0.0075288 -0.0000379 0.0016803 0.0062027 -0.0004801 -0.0000057 -0.0000293 0.0000069 -0.0000472 -0.0000336 -0.0002732 0.0000499 0.0003526 0.0001215 -0.0000514 0.0000329 -0.0000935 0.0000542 -0.0000713 0.0000266 -0.0002160 -0.0000103 -0.0000507 -0.0000024 -0.0002253 -0.0000083 -0.0001801 -0.0000116 -0.0000646 -0.0000049 0.0001192 -0.0000572 -0.0000171 0.0000593 0.0000203 -0.0000357 -0.0001573 0.0000266 -0.0000957 0.0000624 -0.0001453 0.0000156 0.0002678 0.0000175 -0.0000516 -0.0000012 0.0001192 0.0000672 0.0000665 0.0000324 0.0001410 -0.0002874 0.0010733 -0.0001970 0.0006893 -0.0001719 0.0006042 -0.0002219 0.0002720 -0.0001353 0.0005033 -0.0000708 0.0002218 -0.0000677 0.0001428 -0.0000495 0.0002583 0.0000129 0.0000682 0.0000298 0.0001530 0.0000256 0.0003802 0.0000045 0.0001708
-0.0000524 0.0002126 -0.0001087 0.0002260 0.0000487 0.0002685 0.0000572 0.0000476 -0.0000008 0.0003261 -0.0000953 0.0004059 -0.0000395 0.0001645 -0.0000938 0.0004436 -0.0000587 0.0002049 -0.0000832 0.0002336 -0.0000447 0.0001812 -0.0001989 0.0002530 -0.0000063 0.0000684 -0.0000640 0.0001416 -0.0000504 0.0000321 -0.0001359 0.0000819 -0.0000892 0.0001525 -0.0000397 -0.0000372 -0.0000916 0.0001489 -0.0001173 0.0002256 -0.0001091 0.0002410 0.0000517 0.0000141 0.0000187 0.0000796 0.0055206 -0.0046717 0.0075388 0.0034822 -0.0028311 -0.0054025 -0.0046457 0.0120844 0.0011479 0.0054630 -0.0030066 0.0013919 -0.0004684 -0.0016580 0.0046964 0.0039965 0.0096206 -0.0161185 -0.0056223 0.0073011 -0.0008530 0.0127395 0.0064644 -0.0021471 -0.0000280 0.0002446 0.0000005 0.0001685 -0.0000634 0.0000347 0.0000461 0.0005418 0.0000556 0.0003527 -0.0000199 0.0002841 0.0000179 0.0003120 -0.0000112 0.0001732 -0.0000142 0.0001828 -0.0000210 -0.0000019 -0.0000248 0.0000396 -0.0000536 0.0001484 -0.0000024 0.0002779 -0.0000662 0.0001248 0.0000655 0.0001646 -0.0000543 0.0000473 -0.0000148 0.0002014 0.0000278 0.0000959 -0.0000582 0.0006232 0.0000166 0.0002096 -0.0000247 0.0004030 0.0000339 0.0001839 0.0000241 0.0003650 -0.0002977 0.0011748 -0.0002081 0.0007386 -0.0001759 0.0006393 -0.0002360 0.0002747 -0.0001383 0.0004437 -0.0001182 0.0002046 -0.0001084 0.0001251 -0.0000081 0.0001971 -0.0000390 0.0000806 0.0000038 0.0001328 0.0000159 0.0002685 -0.0000094 0.0000927
-0.0000561 0.0000987 -0.0001036 0.0001598 0.0000359 0.0001725 0.0000403 -0.0001761 0.0000172 0.0001055 -0.0000742 0.0002128 -0.0000135 -0.0000883 -0.0000953 0.0003101 -0.0000607 0.0001372 -0.0000589 0.0001383 -0.0000824 0.0001047 -0.0001202 0.0000717 0.0000027 -0.0000728 -0.0000624 0.0000417 -0.0000529 -0.0000913 -0.0001217 -0.0000354 -0.0000744 0.0000144 -0.0000298 -0.0001679 -0.0000789 -0.0000657 -0.0001094 0.0001362 -0.0001056 0.0001198 0.0000553 -0.0002444 0.0000162 -0.0001355 0.0028931 0.0012795 0.0026393 -0.0027133 0.0004535 -0.0145999 -0.0082789 0.0190315 0.0039589 0.0002706 -0.0041074 0.0032508 0.0021712 -0.0029420 0.0111176 -0.0130446 0.0031832 -0.0001355 -0.0110428 0.0080731 -0.0035437 0.0168276 0.0005550 0.0060973 -0.0000353 0.0001523 0.0000004 0.0000977 -0.0000790 -0.0000426 0.0000450 0.0005001 0.0000252 0.0002108 -0.0000354 0.0001222 0.0000250 0.0001417 -0.0000014 -0.0000114 -0.0000204 0.0000618 -0.0000140 -0.0000826 -0.0000511 -0.0000142 -0.0000230 0.0000461 -0.0000034 0.0002323 -0.0000603 0.0000721 0.0000605 0.0000932 -0.0000479 -0.0000437 -0.0000095 0.0000558 0.0000194 -0.0000433 -0.0000905 0.0004726 0.0000171 0.0000681 -0.0000401 0.0002117 0.0000268 0.0000971 0.0000035 0.0001816 -0.0002901 0.0009046 -0.0002299 0.0005444 -0.0001679 0.0004099 -0.0002269 -0.0000185 -0.0001008 0.0000955 -0.0000758 -0.0001974 -0.0001246 -0.0001854 -0.0000814 0.0000313 -0.0000736 -0.0001097 -0.0000146 -0.0000738 0.0000447 -0.0001172 -0.0000030 -0.0002202
-0.0000785 0.0002724 -0.0001027 0.0002520 0.0000287 0.0002971 0.0000371 0.0000027 -0.0000017 0.0003257 -0.0000895 0.0002822 -0.0000149 0.0000788 -0.0000846 0.0003848 -0.0000776 0.0002928 -0.0001008 0.0002407 -0.0000199 0.0002820 -0.0000424 0.0000921 0.0000019 0.0000255 -0.0000727 0.0000823 -0.0000588 -0.0000226 -0.0001287 0.0000435 -0.0000787 0.0001618 -0.0000292 -0.0000283 -0.0000981 0.0001630 -0.0001135 0.0002184 -0.0001164 0.0002292 0.0000486 -0.0002172 0.0000196 -0.0000780 -0.0097174 0.0090842 0.0002148 -0.0082691 0.0004668 -0.0015325 -0.0084912 0.0034330 -0.0003155 0.0037712 -0.0008072 0.0047000 0.0041619 -0.0031736 0.0175339 -0.0288923 0.0043489 -0.0006572 -0.0073674 0.0069674 0.0028687 0.0023581 0.0100647 -0.0098146 -0.0000285 -0.0001348 -0.0000120 -0.0001261 -0.0000888 -0.0003109 0.0000461 0.0003269 0.0000236 -0.0001254 -0.0000006 -0.0002686 0.0000403 -0.0002227 0.0000231 -0.0004185 -0.0000088 -0.0002004 -0.0000085 -0.0003109 -0.0000632 -0.0002213 0.0000048 -0.0001788 -0.0000038 0.0000958 -0.0000455 -0.0000789 0.0000520 -0.0000376 -0.0000330 -0.0002620 -0.0000069 -0.0002063 0.0000191 -0.0002464 -0.0000803 0.0001838 0.0000018 -0.0002093 -0.0000382 -0.0000757 0.0000318 0.0000126 -0.0000336 0.0000029 -0.0003026 0.0007980 -0.0002440 0.0004997 -0.0001520 0.0003532 -0.0002023 -0.0000482 -0.0000824 0.0001035 -0.0000519 -0.0002039 -0.0001322 -0.0001556 -0.0001356 0.0000327 -0.0000684 -0.0000344 -0.0001057 0.0001009 0.0000183 -0.0000028 -0.0000369 -0.0000931
-0.0000761 0.0002222 -0.0001060 0.0002292 0.0000280 0.0002619 0.0000348 -0.0000849 -0.0000196 0.0002717 -0.0001237 0.0002647 -0.0000357 0.0000355 -0.0001008 0.0003146 -0.0000644 0.0002282 -0.0001029 0.0002117 0.0000118 0.0002077 -0.0000224 0.0000655 -0.0000050 -0.0000242 -0.0000685 0.0000418 -0.0000499 -0.0000645 -0.0001322 0.0000309 -0.0000772 0.0000950 -0.0000256 -0.0000548 -0.0000943 0.0001054 -0.0001175 0.0001883 -0.0001207 0.0001892 0.0000493 -0.0003144 0.0000200 -0.0001466 0.0053248 -0.0097253 -0.0092695 0.0047051 0.0025850 -0.0079768 -0.0109525 0.0044288 0.0004459 0.0043787 0.0073142 -0.0035579 -0.0026234 0.0035267 0.0078083 -0.0197357 -0.0044733 0.0086340 -0.0029273 0.0032013 -0.0009952 0.0067250 0.0298365 -0.0461014 -0.0000366 -0.0000507 -0.0000501 -0.0000272 -0.0001248 -0.0002272 0.0000493 0.0003965 -0.0000199 0.0000971 -0.0000166 -0.0000995 0.0000101 -0.0000367 0.0000004 -0.0002479 -0.0000127 -0.0001025 -0.0000214 -0.0002314 -0.0000382 -0.0001658 -0.0000323 -0.0000952 -0.0000043 0.0001482 -0.0000508 -0.0000470 0.0000533 0.0000450 -0.0000553 -0.0001676 -0.0000558 -0.0000440 -0.0000004 -0.0000905 -0.0001298 0.0004212 -0.0000138 -0.0000825 -0.0000456 0.0001182 0.0000133 0.0001166 -0.0000648 0.0002125 -0.0003331 0.0010566 -0.0002548 0.0006763 -0.0001536 0.0005466 -0.0002034 0.0002129 -0.0000916 0.0003663 -0.0000782 0.0001092 -0.0001282 0.0001206 -0.0001347 0.0001930 -0.0001083 0.0002397 -0.0001489 0.0004041 -0.0000369 0.0003624 -0.0000775 0.0002278
-0.0000666 0.0000933 -0.0000976 0.0001354 0.0000187 0.0001738 0.0000176 -0.0002508 -0.0000418 0.0001275 -0.0001259 0.0001434 -0.0000280 -0.0001389 -0.0001116 0.0002086 -0.0000630 0.0001251 -0.0000887 0.0001384 0.0000547 0.0000142 -0.0000912 0.0000423 0.0000022 -0.0000953 -0.0000674 -0.0000471 -0.0000437 -0.0001289 -0.0001374 -0.0000238 -0.0000924 -0.0000053 -0.0000300 -0.0001215 -0.0000770 0.0000289 -0.0001169 0.0001530 -0.0001251 0.0001837 0.0000672 -0.0002617 -0.0000059 -0.0000741 0.0038820 0.0006661 -0.0039867 0.0086120 0.0032206 -0.0195375 -0.0053999 0.0028570 0.0162343 -0.0260479 0.0045025 0.0070566 0.0026007 -0.0022128 0.0101555 -0.0241742 -0.0033141 0.0091413 0.0043872 -0.0055845 -0.0121938 0.0167693 0.0152839 -0.0175015 -0.0000616 0.0002047 -0.0000580 0.0001782 -0.0001673 0.0000385 0.0000467 0.0005752 -0.0000887 0.0004813 -0.0000661 0.0002643 -0.0000321 0.0003261 -0.0000353 0.0001162 -0.0000311 0.0001270 -0.0000370 -0.0000175 -0.0000261 0.0000209 -0.0000542 0.0000952 -0.0000043 0.0002907 -0.0000614 0.0000801 0.0000627 0.0001933 -0.0000854 0.0000440 -0.0000937 0.0002340 -0.0000376 0.0001779 -0.0001862 0.0007785 -0.0000176 0.0001849 -0.0000709 0.0004535 -0.0000159 0.0003125 -0.0000967 0.0005666 -0.0003655 0.0014309 -0.0003021 0.0009761 -0.0001908 0.0008487 -0.0002147 0.0005427 -0.0001124 0.0007151 -0.0000871 0.0004815 -0.0001584 0.0004673 -0.0000909 0.0004167 -0.0001866 0.0005350 -0.0002023 0.0006937 -0.0000750 0.0006507 -0.0001225 0.0004869
-0.0000679 0.0001659 -0.0000956 0.0001955 0.0000146 0.0002112 0.0000119 -0.0002282 -0.0000459 0.0001111 -0.0001154 0.0001264 0.0000001 -0.0001613 -0.0001259 0.0002447 -0.0000568 0.0000919 -0.0000919 0.0001482 0.0000877 -0.0000902 -0.0001371 0.0000697 0.0000139 -0.0000827 -0.0000604 -0.0000704 -0.0000421 -0.0001101 -0.0001360 -0.0000313 -0.0000804 -0.0000499 -0.0000351 -0.0000961 -0.0000869 0.0000155 -0.0001124 0.0001149 -0.0001206 0.0001448 0.0000666 -0.0002611 -0.0000071 -0.0000829 -0.0020828 0.0081487 0.0060369 -0.0095598 -0.0058579 0.0106932 -0.0035888 0.0060628 -0.0016259 0.0060235 -0.0020205 0.0107898 0.0081838 -0.0069888 0.0066514 -0.0106492 -0.0000120 -0.0001410 0.0063397 -0.0044445 -0.0037000 0.0095832 0.0031015 0.0035820 -0.0000794 0.0003579 -0.0000510 0.0003111 -0.0001872 0.0001711 0.0000377 0.0006438 -0.0001388 0.0005861 -0.0000842 0.0003831 -0.0000506 0.0004094 -0.0000504 0.0002049 -0.0000493 0.0001824 -0.0000447 0.0000404 -0.0000692 0.0001190 -0.0000580 0.0001589 -0.0000022 0.0003034 -0.0000566 0.0001128 0.0000681 0.0001889 -0.0000790 0.0000507 -0.0001168 0.0002560 -0.0000700 0.0001766 -0.0002114 0.0007224 -0.0000096 0.0001724 -0.0000799 0.0003745 -0.0000408 0.0002918 -0.0001173 0.0005056 -0.0003704 0.0012585 -0.0003200 0.0008421 -0.0001949 0.0006955 -0.0002081 0.0002804 -0.0001349 0.0004692 -0.0000650 0.0001576 -0.0001772 0.0001979 -0.0001161 0.0002656 -0.0001912 0.0003347 -0.0002477 0.0004814 -0.0000463 0.0003022 -0.0001126 0.0001995
-0.0000652 0.0000922 -0.0001044 0.0001460 0.0000159 0.0001716 0.0000097 -0.0002928 -0.0000412 -0.0000128 -0.0000963 0.0000080 0.0000027 -0.0002517 -0.0001366 0.0002201 -0.0000488 0.0000077 -0.0000655 0.0000466 0.0000243 -0.0001447 -0.0001024 -0.0000642 0.0000211 -0.0000887 -0.0000568 -0.0001048 -0.0000302 -0.0001210 -0.0001213 -0.0000695 -0.0000699 -0.0001405 -0.0000273 -0.0001410 -0.0000784 -0.0001072 -0.0001011 0.0000256 -0.0001103 0.0000470 0.0000616 -0.0002935 -0.0000018 -0.0001521 0.0012944 -0.0043205 0.0156057 -0.0321170 0.0065799 -0.0002089 -0.0003039 0.0084267 -0.0090655 0.0155357 0.0089001 -0.0191574 0.0049017 -0.0032301 -0.0205529 0.0239777 0.0057453 -0.0016684 -0.0003861 0.0031942 0.0024948 0.0042690 0.0033728 0.0012196 -0.0000689 0.0001116 -0.0000469 0.0001231 -0.0002049 -0.0000693 0.0000325 0.0004930 -0.0001482 0.0002505 -0.0000658 0.0000236 -0.0000495 0.0000556 -0.0000418 -0.0001510 -0.0000457 -0.0000551 -0.0000331 -0.0001614 -0.0001064 -0.0000366 -0.0000399 -0.0000375 -0.0000048 0.0001564 -0.0000405 -0.0000167 0.0000609 0.0000392 -0.0000616 -0.0001619 -0.0001015 -0.0000409 -0.0000731 -0.0000942 -0.0002049 0.0003488 -0.0000022 -0.0001176 -0.0000749 0.0000039 -0.0000552 0.0001194 -0.0001440 0.0001659 -0.0003595 0.0008265 -0.0002964 0.0004753 -0.0001573 0.0003342 -0.0002133 -0.0001291 -0.0001100 0.0000154 -0.0000351 -0.0003636 -0.0001419 -0.0002612 -0.0001554 -0.0000485 -0.0001410 0.0000303 -0.0002441 0.0001638 -0.0000189 -0.0000690 -0.0000911 -0.0001138
-0.0000648 0.0000989 -0.0001064 0.0001084 0.0000080 0.0002399 0.0000179 -0.0001259 -0.0000148 0.0000803 -0.0000939 0.0000381 -0.0000136 -0.0001261 -0.0001313 0.0003170 -0.0000293 0.0000618 -0.0001081 0.0000929 -0.0000219 -0.0000015 -0.0000190 -0.0000592 0.0000254 0.0000672 -0.0000723 -0.0000380 -0.0000301 0.0000016 -0.0001311 0.0000275 -0.0000936 -0.0000310 -0.0000288 -0.0000117 -0.0000604 0.0000791 -0.0001100 0.0001198 -0.0001201 0.0001897 0.0000658 -0.0000048 -0.0000084 0.0000838 0.0039679 -0.0036423 0.0150755 -0.0168759 0.0125899 -0.0192969 0.0110149 -0.0080182 0.0037390 -0.0171259 0.0066466 -0.0123787 0.0049167 -0.0042580 -0.0105296 0.0090905 0.0070568 -0.0086286 -0.0025632 0.0050082 0.0000764 0.0060112 -0.0048529 -0.0056500 -0.0000588 -0.0001087 -0.0000364 -0.0000963 -0.0002427 -0.0002413 0.0000321 0.0003968 -0.0001612 0.0001210 -0.0000844 -0.0001418 -0.0000627 -0.0000915 -0.0000502 -0.0002918 -0.0000325 -0.0001719 -0.0000276 -0.0002524 -0.0001197 -0.0001288 -0.0000171 -0.0001674 -0.0000108 0.0001145 -0.0000408 -0.0000730 0.0000477 0.0000305 -0.0000661 -0.0002130 -0.0001104 -0.0000856 -0.0000977 -0.0000836 -0.0001813 0.0003089 -0.0000086 -0.0001657 -0.0000807 0.0000169 -0.0000629 0.0001355 -0.0001712 0.0001995 -0.0003720 0.0009284 -0.0002888 0.0005181 -0.0001597 0.0004363 -0.0002071 0.0000301 -0.0000888 0.0001749 -0.0000320 -0.0001742 -0.0001158 -0.0001207 -0.0000575 -0.0000556 -0.0001346 0.0001811 -0.0002748 0.0003654 -0.0000407 0.0001624 -0.0001057 0.0000909
-0.0000662 0.0000648 -0.0000982 0.0000779 0.0000070 0.0002408 0.0000084 -0.0001034 -0.0000094 0.0000781 -0.0001095 0.0000611 -0.0000027 -0.0001267 -0.0001186 0.0003283 0.0000063 -0.0000516 -0.0001341 0.0001113 0.0000287 -0.0001367 -0.0000253 -0.0000562 0.0000298 0.0001004 -0.0000602 -0.0000234 -0.0000359 0.0000654 -0.0001428 0.0000428 -0.0000855 -0.0000766 -0.0000232 -0.0000016 -0.0000685 0.0000337 -0.0001142 0.0000742 -0.0001219 0.0001260 0.0000626 0.0000416 -0.0000002 0.0000619 -0.0000539 0.0044244 0.0095740 -0.0121234 -0.0165523 0.0195138 0.0187948 -0.0280866 -0.0066369 -0.0243086 0.0074372 -0.0088448 0.0009855 0.0008871 -0.0051214 -0.0021155 -0.0057625 -0.0060143 0.0028091 -0.0035348 0.0059395 -0.0034309 -0.0086996 -0.0002267 -0.0000653 0.0000611 -0.0000525 0.0000466 -0.0002744 -0.0000524 0.0000273 0.0004907 -0.0002041 0.0004011 -0.0001183 0.0001357 -0.0000957 0.0001925 -0.0000894 -0.0000073 -0.0000292 -0.0000191 -0.0000368 -0.0001101 -0.0000891 -0.0000314 -0.0000261 -0.0000445 -0.0000112 0.0002104 -0.0000464 0.0000133 0.0000475 0.0001470 -0.0000819 -0.0000647 -0.0001469 0.0001433 -0.0001415 0.0001552 -0.0002027 0.0005729 -0.0000119 0.0000253 -0.0000876 0.0002806 -0.0000831 0.0002856 -0.0001900 0.0004787 -0.0003964 0.0012489 -0.0003098 0.0007790 -0.0001923 0.0007065 -0.0002075 0.0003336 -0.0001063 0.0005080 -0.0000453 0.0001814 -0.0001405 0.0002154 -0.0000485 0.0001558 -0.0001776 0.0004501 -0.0002978 0.0006262 -0.0000788 0.0005356 -0.0001276 0.0004027
-0.0000640 -0.0000483 -0.0000981 -0.0000174 0.0000133 0.0001745 -0.0000033 -0.0001527 0.0000047 0.0000088 -0.0000947 -0.0000103 0.0000071 -0.0002003 -0.0000949 0.0002908 0.0000278 -0.0001828 -0.0000839 0.0000271 0.0000461 -0.0002765 -0.0000076 -0.0001923 0.0000356 0.0000826 -0.0000409 -0.0000407 -0.0000178 0.0000658 -0.0001445 0.0000200 -0.0000604 -0.0001929 -0.0000028 -0.0000673 -0.0000556 -0.0001040 -0.0001112 -0.0000348 -0.0001147 0.0000039 0.0000559 0.0000254 0.0000125 -0.0000507 -0.0070669 0.0066712 -0.0036290 0.0007106 -0.0127099 0.0227867 0.0126705 -0.0254305 -0.0209033 0.0025997 -0.0008728 0.0038056 -0.0065620 0.0040701 -0.0033475 -0.0068867 0.0051921 -0.0158682 0.0033797 -0.0005234 0.0034794 -0.0029726 0.0074350 -0.0072877 -0.0000839 0.0003401 -0.0000638 0.0002712 -0.0003005 0.0002964 0.0000203 0.0006656 -0.0002638 0.0007783 -0.0001521 0.0005008 -0.0001376 0.0005805 -0.0001383 0.0004086 -0.0000507 0.0002404 -0.0000760 0.0001447 -0.0000948 0.0001821 -0.0000855 0.0001959 -0.0000085 0.0003620 -0.0000507 0.0001677 0.0000599 0.0002961 -0.0001002 0.0001706 -0.0001676 0.0004319 -0.0001831 0.0004338 -0.0002398 0.0009177 -0.0000277 0.0003137 -0.0000946 0.0005893 -0.0001176 0.0004273 -0.0002012 0.0007389 -0.0004261 0.0013977 -0.0003168 0.0008721 -0.0002150 0.0007767 -0.0002120 0.0003279 -0.0001192 0.0004672 -0.0000575 0.0001602 -0.0001489 0.0001774 -0.0000128 0.0001074 -0.0002024 0.0003861 -0.0002829 0.0005280 -0.0000798 0.0003883 -0.0001365 0.0002866
-0.0000618 0.0000877 -0.0000952 0.0000614 0.0000105 0.0003043 0.0000086 0.0001262 0.0000177 0.0002052 -0.0000614 0.0001019 -0.0000068 0.0000416 -0.0000749 0.0004793 0.0000157 -0.0000487 -0.0000680 0.0001138 0.0000085 -0.0000692 0.0000141 -0.0001489 0.0000326 0.0002772 -0.0000528 0.0000980 -0.0000078 0.0002340 -0.0001310 0.0001456 -0.0000672 -0.0000287 -0.0000090 0.0001366 -0.0000286 0.0001477 -0.0001107 0.0000861 -0.0001179 0.0001858 0.0000518 0.0003319 0.0000152 0.0001752 -0.0119705 0.0101453 -0.0162014 0.0225888 -0.0055307 0.0135647 0.0164940 -0.0283510 0.0001426 0.0016581 -0.0041523 0.0075256 -0.0002865 -0.0047797 -0.0028436 0.0033060 -0.0000656 0.0014969 -0.0073406 0.0091262 -0.0007630 0.0031725 0.0056485 0.0006560 -0.0000788 0.0002435 -0.0000448 0.0002010 -0.0003106 0.0001897 0.0000181 0.0006227 -0.0002719 0.0005742 -0.0001720 0.0003393 -0.0001433 0.0003925 -0.0001422 0.0002208 -0.0000648 0.0001283 -0.0000750 0.0000599 -0.0001543 0.0001576 -0.0001106 0.0001404 -0.0000093 0.0002950 -0.0000409 0.0001138 0.0000550 0.0002156 -0.0000924 0.0000623 -0.0001690 0.0002544 -0.0001995 0.0002717 -0.0002299 0.0006572 -0.0000281 0.0001476 -0.0000794 0.0003168 -0.0001252 0.0003140 -0.0002075 0.0004791 -0.0004334 0.0011091 -0.0003068 0.0006418 -0.0001960 0.0005032 -0.0001869 -0.0000252 -0.0001156 0.0001143 -0.0000210 -0.0002511 -0.0001308 -0.0002009 0.0000348 -0.0001819 -0.0001518 0.0000505 -0.0002381 0.0001813 -0.0000229 -0.0000886 -0.0001106 -0.0001066
-0.0000593 0.0000791 -0.0000842 0.0000807 0.0000092 0.0003180 0.0000157 0.0001603 0.0000248 0.0001630 -0.0000776 0.0001627 0.0000039 0.0000795 -0.0000636 0.0005243 -0.0000118 -0.0000808 -0.0000643 0.0001441 0.0000176 -0.0001559 -0.0000253 -0.0001842 0.0000249 0.0003179 -0.0000505 0.0001658 -0.0000055 0.0002968 -0.0001143 0.0001795 -0.0000735 -0.0000493 -0.0000058 0.0001585 -0.0000167 0.0000667 -0.0001019 0.0000380 -0.0001155 0.0001143 0.0000582 0.0003503 0.0000262 0.0001120 -0.0127565 0.0123961 -0.0160038 0.0187745 -0.0038158 -0.0016178 0.0114021 -0.0067639 0.0127067 -0.0144841 -0.0034033 -0.0011968 0.0042066 -0.0059926 -0.0109968 0.0147979 -0.0188338 0.0177319 -0.0088518 0.0035671 0.0022897 0.0004553 -0.0029614 0.0106118 -0.0000536 -0.0000971 -0.0000181 -0.0000788 -0.0003032 -0.0001496 0.0000131 0.0004079 -0.0002377 0.0001234 -0.0001334 -0.0001227 -0.0001222 -0.0000391 -0.0001115 -0.0002581 -0.0000501 -0.0001830 -0.0000624 -0.0002042 -0.0001637 -0.0000680 -0.0000822 -0.0001215 -0.0000118 0.0001271 -0.0000290 -0.0000433 0.0000452 0.0000436 -0.0000775 -0.0001927 -0.0001386 -0.0001110 -0.0001804 -0.0000369 -0.0001720 0.0001969 -0.0000181 -0.0001947 -0.0000491 -0.0000974 -0.0001088 0.0001595 -0.0002086 0.0001497 -0.0004374 0.0009034 -0.0003043 0.0005190 -0.0001780 0.0003743 -0.0001608 -0.0001081 -0.0000928 0.0000749 0.0000196 -0.0003239 -0.0001396 -0.0002205 0.0000272 -0.0002263 -0.0000926 0.0000155 -0.0002291 0.0001746 -0.0000025 -0.0000654 -0.0000856 -0.0000968
-0.0000564 -0.0000345 -0.0000825 0.0000136 0.0000100 0.0002528 0.0000225 0.0001161 0.0000591 0.0000397 -0.0000843 0.0001451 0.0000134 0.0000238 -0.0000478 0.0005161 0.0000161 -0.0002093 -0.0000622 0.0001289 -0.0000012 -0.0002757 0.0000011 -0.0002621 0.0000327 0.0003068 -0.0000341 0.0001875 0.0000081 0.0003143 -0.0001196 0.0001921 -0.0000251 -0.0001749 0.0000139 0.0001050 -0.0000102 -0.0000832 -0.0000982 -0.0000537 -0.0001085 -0.0000160 0.0000650 0.0003187 0.0000348 -0.0000228 -0.0057532 0.0095742 -0.0042799 0.0004880 -0.0026983 -0.0069986 0.0091267 -0.0036199 0.0136246 -0.0247085 -0.0194801 0.0161956 0.0023646 -0.0021050 -0.0016142 0.0089820 -0.0027023 -0.0042852 -0.0031555 0.0012042 0.0046411 -0.0094045 0.0046559 -0.0065368 -0.0000512 -0.0000771 -0.0000412 -0.0000675 -0.0003063 -0.0001008 0.0000100 0.0004152 -0.0002284 0.0002301 -0.0001239 -0.0000325 -0.0001346 0.0000788 -0.0001263 -0.0001547 -0.0000553 -0.0001201 -0.0000984 -0.0001395 -0.0001386 -0.0000451 -0.0000470 -0.0001270 -0.0000098 0.0001611 -0.0000391 -0.0000138 0.0000435 0.0001055 -0.0000830 -0.0001217 -0.0001345 -0.0000041 -0.0001725 0.0000806 -0.0001546 0.0003296 -0.0000176 -0.0001013 -0.0000372 0.0000524 -0.0001058 0.0002163 -0.0002038 0.0002806 -0.0004645 0.0011248 -0.0002823 0.0006376 -0.0001967 0.0005559 -0.0001591 0.0001335 -0.0001114 0.0003310 0.0000208 -0.0000421 -0.0001325 0.0000336 0.0000037 -0.0000479 -0.0000783 0.0001993 -0.0002450 0.0004036 -0.0000336 0.0002362 -0.0000926 0.0001547
-0.0000576 0.0001276 -0.0000870 0.0001289 0.0000070 0.0003907 0.0000411 0.0003953 0.0000397 0.0003152 -0.0000741 0.0003019 0.0000046 0.0002716 -0.0000383 0.0007159 0.0000439 -0.0000787 -0.0000766 0.0002847 0.0000415 -0.0001116 0.0000343 -0.0001124 0.0000402 0.0005079 -0.0000395 0.0003344 0.0000114 0.0004953 -0.0001130 0.0003200 -0.0000272 0.0000318 0.0000042 0.0003127 -0.0000174 0.0001777 -0.0000960 0.0000963 -0.0001124 0.0001734 0.0000606 0.0006216 0.0000302 0.0002050 0.0015689 -0.0012828 -0.0082657 0.0071813 -0.0003215 0.0085645 0.0088819 -0.0195587 0.0060320 -0.0218589 -0.0035454 0.0110749 0.0036020 -0.0026037 0.0059361 0.0047591 0.0098257 -0.0261400 -0.0091765 0.0127727 0.0145258 -0.0337233 0.0039301 -0.0055104 -0.0000600 0.0001561 -0.0000569 0.0001255 -0.0003160 0.0001209 0.0000154 0.0005607 -0.0002504 0.0005311 -0.0001506 0.0002809 -0.0001600 0.0003911 -0.0001740 0.0001862 -0.0000697 0.0000958 -0.0001112 0.0000460 -0.0001422 0.0001166 -0.0000584 0.0000356 -0.0000051 0.0002741 -0.0000459 0.0001009 0.0000466 0.0002469 -0.0001034 0.0000666 -0.0001621 0.0002483 -0.0002001 0.0003290 -0.0001824 0.0006503 -0.0000158 0.0001315 -0.0000398 0.0003393 -0.0001107 0.0003625 -0.0001970 0.0005575 -0.0004930 0.0014626 -0.0003116 0.0008943 -0.0002354 0.0008210 -0.0001750 0.0004534 -0.0001602 0.0006937 0.0000119 0.0003110 -0.0001381 0.0003648 -0.0000171 0.0002170 -0.0001174 0.0004844 -0.0002522 0.0006820 -0.0000605 0.0005843 -0.0001179 0.0004437
-0.0000532 0.0001951 -0.0000910 0.0002308 0.0000123 0.0004376 0.0000404 0.0004661 0.0000021 0.0004006 -0.0000648 0.0003886 0.0000276 0.0003306 -0.0000456 0.0008246 0.0000230 -0.0000232 -0.0000822 0.0003986 0.0000534 -0.0000761 -0.0000560 0.0000307 0.0000333 0.0005788 -0.0000324 0.0004224 0.0000111 0.0005661 -0.0001113 0.0003930 -0.0000487 0.0000772 0.0000069 0.0003644 -0.0000266 0.0001490 -0.0000916 0.0001029 -0.0001107 0.0001430 0.0000584 0.0006102 0.0000401 0.0001425 0.0028693 -0.0070887 -0.0167409 0.0142183 0.0015475 0.0056349 -0.0017606 -0.0097901 -0.0008796 -0.0319820 0.0054900 -0.0002668 0.0035074 -0.0022054 0.0018909 -0.0025758 -0.0090034 -0.0014595 -0.0202522 0.0213775 -0.0000227 -0.0032914 0.0043990 -0.0032094 -0.0000725 0.0003924 -0.0000787 0.0003446 -0.0003121 0.0003405 0.0000133 0.0006685 -0.0002805 0.0007283 -0.0001876 0.0005173 -0.0001703 0.0005812 -0.0001980 0.0004076 -0.0000659 0.0002182 -0.0001117 0.0001552 -0.0001529 0.0002426 -0.0000962 0.0001937 -0.0000082 0.0003106 -0.0000477 0.0001732 0.0000415 0.0002740 -0.0001179 0.0001345 -0.0001928 0.0003257 -0.0002337 0.0003529 -0.0001996 0.0006738 -0.0000108 0.0001853 -0.0000303 0.0003020 -0.0001269 0.0003720 -0.0001830 0.0005188 -0.0005083 0.0013548 -0.0003457 0.0008186 -0.0002535 0.0006984 -0.0001634 0.0002358 -0.0001507 0.0004871 -0.0000139 0.0000856 -0.0001394 0.0001256 -0.0000288 0.0001112 -0.0001204 0.0002829 -0.0002171 0.0004311 -0.0000298 0.0002526 -0.0000892 0.0001449
-0.0000523 0.0001067 -0.0000847 0.0001915 0.0000175 0.0003578 0.0000292 0.0003940 0.0000282 0.0002561 -0.0000449 0.0003550 0.0000410 0.0002506 -0.0000372 0.0008120 0.0000078 -0.0000743 -0.0000565 0.0003602 0.0000274 -0.0001422 -0.0000646 0.0000245 0.0000238 0.0005478 -0.0000176 0.0004462 0.0000159 0.0005438 -0.0001188 0.0004008 -0.0000431 -0.0000063 0.0000161 0.0002910 -0.0000285 -0.0000280 -0.0000889 0.0000264 -0.0000994 0.0000034 0.0000597 0.0004439 0.0000554 -0.0000558 0.0078219 -0.0084173 -0.0219724 0.0038123 0.0038403 -0.0116627 0.0185998 -0.0270534 0.0020223 -0.0184613 -0.0033302 0.0017491 -0.0008462 0.0010093 0.0003887 -0.0117746 -0.0179141 0.0140272 -0.0025983 0.0048621 -0.0012235 0.0025439 0.0024644 0.0029759 -0.0000596 0.0001529 -0.0000954 0.0001630 -0.0002940 0.0001273 0.0000074 0.0005296 -0.0002508 0.0003745 -0.0001861 0.0002025 -0.0001527 0.0002585 -0.0001759 0.0000599 -0.0000592 -0.0000032 -0.0001149 -0.0000191 -0.0001458 0.0000624 -0.0000796 0.0000255 -0.0000126 0.0001926 -0.0000400 0.0000736 0.0000297 0.0001390 -0.0001033 -0.0000468 -0.0001861 0.0000491 -0.0002160 0.0001049 -0.0001828 0.0003279 -0.0000090 -0.0000626 -0.0000166 -0.0000443 -0.0001241 0.0002279 -0.0001668 0.0001791 -0.0005114 0.0009661 -0.0003334 0.0004850 -0.0002208 0.0003549 -0.0001241 -0.0002059 -0.0001137 0.0000456 0.0000039 -0.0004003 -0.0001201 -0.0003146 -0.0000421 -0.0001969 -0.0000535 -0.0001023 -0.0001935 0.0000611 0.0000370 -0.0002624 -0.0000544 -0.0002643
-0.0000567 0.0001910 -0.0000844 0.0002478 0.0000171 0.0004149 0.0000335 0.0005330 0.0000345 0.0003781 -0.0000391 0.0004784 0.0000246 0.0003991 -0.0000376 0.0009176 0.0000084 0.0000355 -0.0000072 0.0003903 0.0000419 -0.0000150 -0.0000240 0.0000859 0.0000197 0.0006140 -0.0000214 0.0005449 0.0000139 0.0006089 -0.0001236 0.0004839 -0.0000503 0.0001278 -0.0000026 0.0003895 -0.0000292 0.0001238 -0.0000843 0.0001406 -0.0001054 0.0001288 0.0000486 0.0005731 0.0000483 0.0000693 0.0029823 -0.0025406 0.0008555 -0.0122104 0.0042785 -0.0082966 0.0226446 -0.0355619 0.0048168 -0.0021720 -0.0183495 0.0132123 -0.0005505 0.0010352 0.0109779 -0.0140610 -0.0076501 0.0075292 0.0049594 -0.0032320 0.0125805 -0.0300591 -0.0086821 0.0178841 -0.0000356 -0.0001639 -0.0000551 -0.0001557 -0.0002803 -0.0001423 0.0000073 0.0003598 -0.0001995 0.0000250 -0.0001596 -0.0001622 -0.0001333 -0.0000575 -0.0001491 -0.0002991 -0.0000564 -0.0002236 -0.0000815 -0.0002334 -0.0001314 -0.0001410 -0.0000714 -0.0001795 -0.0000131 0.0001069 -0.0000355 -0.0000150 0.0000287 0.0000749 -0.0000961 -0.0001588 -0.0001430 -0.0001389 -0.0001952 0.0000255 -0.0001468 0.0001976 -0.0000140 -0.0001897 -0.0000129 -0.0001114 -0.0001074 0.0002078 -0.0001577 0.0001156 -0.0005092 0.0009596 -0.0003336 0.0004701 -0.0002134 0.0003847 -0.0001135 -0.0000924 -0.0001043 0.0001350 0.0000182 -0.0002838 -0.0001176 -0.0001965 -0.0000635 -0.0001443 0.0000049 -0.0000160 -0.0002112 0.0002318 0.0000455 -0.0001022 -0.0000559 -0.0000873
-0.0000613 0.0002314 -0.0000827 0.0003124 0.0000153 0.0004213 0.0000335 0.0005076 0.0000063 0.0004264 -0.0000593 0.0005846 0.0000257 0.0004213 -0.0000455 0.0009388 0.0000294 0.0000733 0.0000129 0.0004508 0.0000545 0.0000260 -0.0000390 0.0001581 0.0000138 0.0005715 -0.0000172 0.0005816 0.0000058 0.0005873 -0.0001138 0.0004695 -0.0000563 0.0001293 -0.0000020 0.0003709 -0.0000259 0.0000694 -0.0000765 0.0001369 -0.0001141 0.0000929 0.0000376 0.0004254 0.0000485 -0.0000369 -0.0047130 0.0068231 0.0101522 -0.0097910 -0.0021371 -0.0007845 0.0084219 -0.0197605 0.0012569 0.0053597 -0.0269927 0.0256555 -0.0004142 0.0025147 0.0046204 0.0040626 -0.0099231 0.0130243 -0.0061687 0.0052494 0.0050925 -0.0148815 -0.0021394 0.0044834 -0.0000398 -0.0000333 -0.0000415 -0.0000657 -0.0002763 -0.0000180 0.0000052 0.0004282 -0.0001922 0.0002084 -0.0001619 0.0000206 -0.0001442 0.0001332 -0.0001428 -0.0001362 -0.0000626 -0.0001063 -0.0000873 -0.0001529 -0.0001294 -0.0000442 -0.0000638 -0.0001056 -0.0000163 0.0001557 -0.0000466 0.0000459 0.0000253 0.0001561 -0.0001100 -0.0000622 -0.0000991 -0.0000269 -0.0002103 0.0001825 -0.0001455 0.0003885 -0.0000134 -0.0000533 -0.0000143 0.0000919 -0.0001160 0.0003090 -0.0001592 0.0003063 -0.0005381 0.0012237 -0.0003408 0.0006532 -0.0002289 0.0005965 -0.0001143 0.0001840 -0.0001107 0.0004100 0.0000231 0.0000384 -0.0001079 0.0000749 -0.0000808 0.0000873 0.0000098 0.0002140 -0.0002048 0.0004736 0.0000208 0.0002100 -0.0000660 0.0001911
-0.0000687 0.0001586 -0.0000779 0.0002781 0.0000145 0.0003163 0.0000410 0.0003278 0.0000307 0.0002773 -0.0000651 0.0005428 0.0000264 0.0003048 -0.0000532 0.0008419 0.0000537 0.0000220 -0.0000253 0.0004821 0.0000316 -0.0000305 -0.0000174 0.0000760 0.0000055 0.0004599 -0.0000151 0.0005335 -0.0000015 0.0004736 -0.0001088 0.0003633 -0.0000461 0.0000050 0.0000015 0.0002329 -0.0000296 -0.0000809 -0.0000712 0.0000552 -0.0001139 -0.0000230 0.0000407 0.0001370 0.0000471 -0.0002367 -0.0002587 0.0053471 0.0060152 0.0030680 -0.0043983 -0.0065486 -0.0057804 0.0012296 0.0020446 0.0062516 -0.0214703 0.0137606 -0.0020646 0.0035728 -0.0047656 0.0047467 0.0043937 0.0000539 0.0041957 -0.0012279 0.0018649 0.0098617 0.0012978 -0.0009963 -0.0000476 0.0001921 -0.0000455 0.0001305 -0.0002821 0.0002263 0.0000015 0.0005861 -0.0002157 0.0005257 -0.0001545 0.0002956 -0.0001566 0.0004534 -0.0001652 0.0002025 -0.0000765 0.0001204 -0.0001098 0.0000442 -0.0001478 0.0001385 -0.0000929 0.0000835 -0.0000142 0.0002701 -0.0000596 0.0001807 0.0000275 0.0002829 -0.0001263 0.0001121 -0.0001175 0.0002391 -0.0002241 0.0003705 -0.0001736 0.0006605 -0.0000078 0.0001799 -0.0000147 0.0003337 -0.0001303 0.0003962 -0.0001393 0.0004883 -0.0005638 0.0013261 -0.0003480 0.0006810 -0.0002353 0.0006282 -0.0001327 0.0001595 -0.0001224 0.0003785 0.0000137 -0.0000039 -0.0000951 -0.0000009 -0.0000330 0.0000441 -0.0000221 0.0001769 -0.0002062 0.0003948 0.0000443 0.0000620 -0.0000633 0.0000631
-0.0000699 0.0002529 -0.0000815 0.0003330 0.0000140 0.0003534 0.0000502 0.0003336 0.0000386 0.0003484 -0.0000543 0.0005478 0.0000144 0.0003711 -0.0000631 0.0008830 0.0000357 0.0001747 -0.0000472 0.0005327 0.0000121 0.0001066 -0.0000288 0.0001517 0.0000018 0.0004795 -0.0000345 0.0005438 -0.0000102 0.0004603 -0.0001410 0.0003953 -0.0000540 0.0000959 -0.0000153 0.0002833 -0.0000454 0.0001101 -0.0000785 0.0001553 -0.0001132 0.0001073 0.0000343 0.0001657 0.0000315 -0.0001102 -0.0091053 0.0110889 0.0008226 0.0132384 0.0181279 -0.0317809 -0.0110861 0.0142541 0.0084197 -0.0124139 0.0132431 -0.0321222 -0.0002014 -0.0018991 -0.0109602 0.0079112 0.0071189 0.0020882 0.0051742 -0.0049455 -0.0063802 0.0180523 -0.0046399 0.0017473 -0.0000349 0.0000977 -0.0000350 0.0000498 -0.0002799 0.0001393 -0.0000021 0.0005376 -0.0001954 0.0003218 -0.0001344 0.0000874 -0.0001369 0.0002597 -0.0001540 0.0000132 -0.0000652 -0.0000147 -0.0001057 -0.0000548 -0.0001443 0.0000203 -0.0000936 -0.0000041 -0.0000092 0.0002107 -0.0000518 0.0001278 0.0000226 0.0002100 -0.0001209 0.0000150 -0.0001437 0.0001081 -0.0002156 0.0001836 -0.0001578 0.0004387 0.0000004 0.0000446 0.0000005 0.0001246 -0.0001176 0.0003044 -0.0001195 0.0002839 -0.0005346 0.0010265 -0.0003415 0.0004705 -0.0002295 0.0004144 -0.0001364 -0.0001141 -0.0001065 0.0000803 0.0000061 -0.0003116 -0.0000869 -0.0003216 -0.0000344 -0.0001782 -0.0000047 -0.0000746 -0.0001716 0.0000866 0.0000694 -0.0003119 -0.0000279 -0.0002848
-0.0000711 0.0002431 -0.0000773 0.0003289 0.0000065 0.0003088 0.0000332 0.0001824 -0.0000010 0.0002844 -0.0000386 0.0004334 0.0000124 0.0002605 -0.0000646 0.0007984 0.0000172 0.0002283 -0.0000343 0.0004760 0.0000235 0.0000897 -0.0000280 0.0002476 -0.0000032 0.0003577 -0.0000434 0.0004606 -0.0000187 0.0003327 -0.0001631 0.0003212 -0.0000661 0.0000272 -0.0000164 0.0001877 -0.0000536 0.0000402 -0.0000800 0.0001144 -0.0001081 0.0000345 0.0000263 -0.0000621 0.0000241 -0.0002255 0.0013628 -0.0025398 0.0056931 -0.0020584 0.0227209 -0.0368773 0.0009617 -0.0047593 -0.0064095 0.0003649 0.0065317 -0.0039364 -0.0007732 0.0005740 -0.0044744 0.0089259 -0.0010407 0.0054519 -0.0009294 0.0036733 -0.0179361 0.0190848 -0.0121321 0.0072920 -0.0000176 -0.0001579 -0.0000215 -0.0001939 -0.0002585 -0.0001432 -0.0000001 0.0003725 -0.0001351 -0.0000741 -0.0000999 -0.0003004 -0.0001061 -0.0001176 -0.0001006 -0.0004104 -0.0000315 -0.0002965 -0.0000912 -0.0002962 -0.0001197 -0.0002079 -0.0000342 -0.0002511 -0.0000117 0.0000773 -0.0000416 -0.0000256 0.0000166 0.0000631 -0.0000966 -0.0002040 -0.0001193 -0.0001990 -0.0001788 -0.0000636 -0.0001111 0.0000978 0.0000024 -0.0002248 0.0000160 -0.0001624 -0.0000986 0.0002090 -0.0001182 0.0000558 -0.0005147 0.0008635 -0.0003293 0.0003939 -0.0002021 0.0003336 -0.0001040 -0.0001372 -0.0000985 0.0000914 0.0000121 -0.0002645 -0.0000767 -0.0002933 -0.0000453 -0.0001828 0.0000337 -0.0000555 -0.0001272 0.0000946 0.0000683 -0.0002376 -0.0000002 -0.0002199
-0.0000724 0.0001399 -0.0000779 0.0002497 0.0000001 0.0001815 0.0000096 -0.0000447 -0.0000039 0.0001114 -0.0000264 0.0002703 0.0000014 0.0000544 -0.0000663 0.0005841 0.0000315 0.0001640 0.0000049 0.0003469 0.0000506 0.0000194 -0.0000573 0.0002469 -0.0000115 0.0001590 -0.0000406 0.0002993 -0.0000264 0.0001205 -0.0001624 0.0001436 -0.0000516 -0.0001326 -0.0000171 -0.0000025 -0.0000569 -0.0000996 -0.0000804 0.0000222 -0.0001106 -0.0000731 0.0000217 -0.0003629 0.0000141 -0.0004038 0.0098888 -0.0073899 0.0148346 -0.0320027 0.0009811 0.0030779 0.0059873 -0.0153018 -0.0209633 0.0177677 0.0005098 0.0042671 -0.0033428 0.0058287 0.0100154 -0.0026279 0.0052267 -0.0053090 0.0046654 0.0027154 -0.0075159 0.0044983 -0.0177122 0.0110929 -0.0000206 -0.0000994 -0.0000168 -0.0001479 -0.0002484 -0.0000999 0.0000057 0.0004211 -0.0001267 0.0000822 -0.0000871 -0.0001842 -0.0001090 0.0000275 -0.0000891 -0.0002872 -0.0000190 -0.0002156 -0.0000765 -0.0002669 -0.0001209 -0.0001444 -0.0000540 -0.0001762 -0.0000128 0.0001196 -0.0000417 -0.0000092 0.0000223 0.0001276 -0.0000964 -0.0001475 -0.0001073 -0.0001046 -0.0001581 0.0000780 -0.0001076 0.0002720 0.0000029 -0.0001208 0.0000103 0.0000179 -0.0000967 0.0002790 -0.0001155 0.0002064 -0.0005291 0.0010591 -0.0003277 0.0005511 -0.0001960 0.0004902 -0.0001231 0.0001386 -0.0001065 0.0003414 0.0000081 0.0000314 -0.0000597 -0.0000396 -0.0000059 -0.0000417 0.0000142 0.0001733 -0.0001365 0.0003484 0.0000648 0.0000545 -0.0000154 0.0000773
-0.0000754 0.0002925 -0.0000806 0.0003216 -0.0000114 0.0002783 0.0000094 0.0000318 -0.0000001 0.0002500 -0.0000639 0.0003508 -0.0000183 0.0001477 -0.0000750 0.0005720 0.0000250 0.0002828 0.0000038 0.0003492 0.0000937 0.0001793 -0.0000501 0.0003216 -0.0000238 0.0001678 -0.0000522 0.0002743 -0.0000479 0.0000996 -0.0001558 0.0001282 -0.0000610 0.0000096 -0.0000320 0.0000888 -0.0000838 0.0001888 -0.0000883 0.0001430 -0.0001211 0.0001197 0.0000117 -0.0002318 -0.0000046 -0.0001968 0.0007096 0.0015382 -0.0023219 0.0016047 -0.0016116 0.0105234 0.0009620 -0.0010500 0.0008893 -0.0114165 0.0098013 -0.0172263 -0.0012043 0.0017040 0.0059630 0.0015694 -0.0006332 0.0089845 -0.0020507 0.0016487 -0.0045993 -0.0004612 -0.0032586 0.0035998 -0.0000316 0.0001219 -0.0000193 0.0000516 -0.0002522 0.0001114 0.0000067 0.0005788 -0.0001467 0.0003978 -0.0000869 0.0001088 -0.0001139 0.0003275 -0.0001049 0.0000353 -0.0000280 0.0000046 -0.0000894 -0.0000801 -0.0001310 0.0000303 -0.0000704 0.0000007 -0.0000077 0.0002506 -0.0000375 0.0001020 0.0000246 0.0002726 -0.0001095 0.0000306 -0.0001281 0.0001289 -0.0001795 0.0003093 -0.0001403 0.0005840 -0.0000073 0.0001180 -0.0000004 0.0003161 -0.0001055 0.0004305 -0.0001183 0.0005019 -0.0005563 0.0013905 -0.0003294 0.0007982 -0.0002212 0.0007562 -0.0001474 0.0004941 -0.0001128 0.0006405 0.0000130 0.0003638 -0.0000636 0.0002577 0.0000061 0.0001439 -0.0000312 0.0003813 -0.0001867 0.0005836 0.0000421 0.0002245 -0.0000527 0.0002488
-0.0000755 0.0002991 -0.0000769 0.0003277 -0.0000264 0.0002655 0.0000065 -0.0000739 -0.0000268 0.0001781 -0.0000789 0.0003130 -0.0000222 0.0000291 -0.0001164 0.0004688 -0.0000038 0.0002547 -0.0000400 0.0003469 0.0000392 0.0001399 -0.0000111 0.0002683 -0.0000329 -0.0000053 -0.0000545 0.0001692 -0.0000615 -0.0000475 -0.0001508 0.0000296 -0.0000346 -0.0001301 -0.0000247 0.0000053 -0.0001077 0.0001203 -0.0000835 0.0000641 -0.0001214 0.0000371 0.0000103 -0.0004347 -0.0000076 -0.0003140 -0.0048086 0.0023693 -0.0026995 0.0079680 0.0083592 -0.0078969 0.0013000 -0.0047287 0.0095918 -0.0194522 0.0076297 -0.0170137 -0.0008059 0.0009669 -0.0046526 0.0051448 -0.0099253 0.0136996 -0.0014144 -0.0001825 0.0045319 -0.0108490 0.0095829 -0.0066034 -0.0000342 0.0002239 -0.0000274 0.0001737 -0.0002467 0.0001598 0.0000068 0.0006313 -0.0001538 0.0003999 -0.0000774 0.0001242 -0.0000923 0.0003069 -0.0001009 0.0000435 -0.0000285 0.0000131 -0.0000818 -0.0000620 -0.0001316 0.0000580 -0.0000768 0.0000417 -0.0000053 0.0002501 -0.0000328 0.0001208 0.0000242 0.0002580 -0.0001030 0.0000166 -0.0001180 0.0000787 -0.0001949 0.0002320 -0.0001556 0.0004924 -0.0000046 0.0000818 0.0000043 0.0002016 -0.0001200 0.0004030 -0.0001072 0.0003852 -0.0005546 0.0011731 -0.0003073 0.0005960 -0.0001975 0.0005363 -0.0001380 0.0002092 -0.0001099 0.0003535 0.0000094 0.0000527 -0.0000593 -0.0000260 0.0000035 -0.0000071 -0.0000111 0.0001383 -0.0001945 0.0003338 0.0000632 -0.0001193 -0.0000351 -0.0000873
-0.0000692 0.0001572 -0.0000750 0.0002104 -0.0000367 0.0001452 -0.0000014 -0.0003135 -0.0000430 0.0000072 -0.0000613 0.0001271 -0.0000216 -0.0002353 -0.0001206 0.0002115 0.0000058 0.0001357 -0.0000392 0.0002609 -0.0000475 0.0000206 -0.0000095 0.0001582 -0.0000373 -0.0002719 -0.0000562 -0.0000165 -0.0000617 -0.0002982 -0.0001501 -0.0001646 -0.0000267 -0.0003427 -0.0000220 -0.0001944 -0.0000985 -0.0000963 -0.0000796 -0.0000808 -0.0001111 -0.0001245 0.0000054 -0.0007308 -0.0000122 -0.0005210 -0.0050423 0.0017984 0.0043346 -0.0189922 0.0088933 -0.0166997 0.0122375 -0.0204806 0.0140739 -0.0155163 -0.0026871 0.0148376 -0.0030818 0.0033470 -0.0070052 0.0100239 -0.0072984 0.0049655 0.0011014 -0.0005997 0.0037049 -0.0124285 0.0069886 -0.0157756 -0.0000215 -0.0000361 -0.0000098 -0.0000467 -0.0002364 -0.0001238 0.0000127 0.0004875 -0.0001199 0.0000175 -0.0000515 -0.0002615 -0.0000657 -0.0000862 -0.0000578 -0.0003712 -0.0000074 -0.0002701 -0.0000474 -0.0003048 -0.0001110 -0.0001856 -0.0000583 -0.0001772 -0.0000028 0.0000978 -0.0000182 -0.0000170 0.0000235 0.0000940 -0.0000782 -0.0002115 -0.0000635 -0.0002601 -0.0001625 -0.0000711 -0.0001120 0.0000868 0.0000046 -0.0001990 0.0000117 -0.0001608 -0.0001085 0.0002253 -0.0000919 0.0000141 -0.0005052 0.0006654 -0.0002871 0.0002060 -0.0001522 0.0001531 -0.0001014 -0.0002358 -0.0000963 -0.0000633 0.0000316 -0.0004116 -0.0000187 -0.0004531 -0.0000495 -0.0002157 0.0000415 -0.0001173 -0.0001545 0.0000520 0.0001092 -0.0004177 0.0000132 -0.0003675
-0.0000771 0.0002933 -0.0000695 0.0002487 -0.0000472 0.0002599 0.0000018 -0.0002047 -0.0000656 0.0001816 -0.0000488 0.0001582 -0.0000370 -0.0001410 -0.0001198 0.0001989 0.0000309 0.0002207 -0.0000497 0.0002633 -0.0000527 0.0001635 -0.0000247 0.0002527 -0.0000468 -0.0002510 -0.0000641 -0.0000399 -0.0000817 -0.0003191 -0.0001583 -0.0001510 -0.0000436 -0.0001932 -0.0000460 -0.0000877 -0.0001136 0.0001938 -0.0000775 0.0000221 -0.0001146 0.0000652 -0.0000022 -0.0004984 -0.0000361 -0.0002648 -0.0099013 0.0030427 -0.0030771 -0.0097750 0.0037957 -0.0041368 0.0132601 -0.0128287 0.0043554 0.0026553 0.0043338 0.0070396 -0.0005344 0.0017803 0.0045285 -0.0040472 -0.0068126 -0.0002108 0.0067172 -0.0072967 0.0063275 -0.0126838 -0.0104165 0.0091265 -0.0000073 -0.0002130 0.0000396 -0.0002807 -0.0002360 -0.0002992 0.0000184 0.0004092 -0.0000826 -0.0001127 -0.0000179 -0.0004482 -0.0000569 -0.0002232 -0.0000227 -0.0005438 0.0000061 -0.0003832 -0.0000277 -0.0004263 -0.0000685 -0.0003459 -0.0000297 -0.0003133 0.0000006 0.0000479 -0.0000080 -0.0000921 0.0000250 0.0000626 -0.0000704 -0.0002833 -0.0000688 -0.0003157 -0.0001259 -0.0001107 -0.0000833 0.0000741 0.0000009 -0.0002407 0.0000157 -0.0001343 -0.0000925 0.0002193 -0.0000861 0.0000433 -0.0004746 0.0007174 -0.0002689 0.0002207 -0.0001504 0.0002494 -0.0000726 -0.0000643 -0.0000765 0.0000827 0.0000282 -0.0001965 -0.0000074 -0.0002796 -0.0000586 -0.0001233 0.0000492 0.0000454 -0.0001488 0.0002370 0.0000981 -0.0002068 0.0000063 -0.0001523
-0.0000768 0.0004097 -0.0000695 0.0003529 -0.0000512 0.0003367 -0.0000135 -0.0001452 -0.0000538 0.0001671 -0.0000488 0.0001834 -0.0000314 -0.0001422 -0.0001327 0.0001982 0.0000290 0.0002143 -0.0000512 0.0002864 -0.0000470 0.0001635 -0.0000425 0.0003028 -0.0000520 -0.0002659 -0.0000649 -0.0000684 -0.0001036 -0.0003286 -0.0001582 -0.0001576 -0.0000416 -0.0002095 -0.0000367 -0.0000715 -0.0001274 0.0002258 -0.0000824 0.0000163 -0.0001210 0.0000726 -0.0000030 -0.0004930 -0.0000328 -0.0002653 -0.0014276 -0.0018673 0.0026147 -0.0084491 0.0120471 -0.0106283 0.0099103 -0.0123597 -0.0027290 0.0102056 0.0092256 -0.0117898 -0.0007076 0.0004953 0.0218561 -0.0354742 -0.0007031 -0.0007073 0.0087622 -0.0082896 0.0132128 -0.0144083 -0.0025808 0.0024250 -0.0000098 -0.0000608 0.0000393 -0.0001625 -0.0002430 -0.0001683 0.0000232 0.0005044 -0.0000926 0.0001376 -0.0000181 -0.0002272 -0.0000617 0.0000000 -0.0000211 -0.0003301 -0.0000075 -0.0002158 -0.0000293 -0.0003242 -0.0000765 -0.0002150 -0.0000249 -0.0002019 0.0000027 0.0001273 -0.0000093 -0.0000417 0.0000284 0.0001599 -0.0000796 -0.0001743 -0.0000953 -0.0000991 -0.0001487 0.0000795 -0.0001157 0.0003475 -0.0000072 -0.0000678 -0.0000021 0.0001194 -0.0000916 0.0003188 -0.0000964 0.0002728 -0.0004881 0.0009993 -0.0002642 0.0004188 -0.0001517 0.0004646 -0.0001041 0.0002423 -0.0000844 0.0003755 -0.0000107 0.0001564 -0.0000202 0.0000354 0.0000054 0.0000142 0.0000045 0.0003347 -0.0001651 0.0004971 0.0000724 0.0001392 -0.0000167 0.0001502
-0.0000701 0.0003155 -0.0000736 0.0002834 -0.0000534 0.0002808 -0.0000245 -0.0002404 -0.0000321 0.0000067 -0.0000867 0.0000837 -0.0000388 -0.0003059 -0.0001308 0.0000269 0.0000222 0.0000847 -0.0000424 0.0001970 -0.0000498 0.0000194 -0.0000242 0.0002250 -0.0000559 -0.0003765 -0.0000589 -0.0002011 -0.0001046 -0.0004365 -0.0001419 -0.0002914 -0.0000341 -0.0003519 -0.0000288 -0.0001955 -0.0001235 0.0000643 -0.0000819 -0.0000870 -0.0001184 -0.0000489 -0.0000057 -0.0006118 -0.0000275 -0.0003923 -0.0047256 0.0020841 -0.0038235 0.0081088 0.0093718 -0.0164946 0.0093175 -0.0222329 0.0073736 -0.0139734 0.0076234 -0.0162752 -0.0043732 0.0035627 0.0079614 -0.0023654 0.0031650 -0.0009953 0.0071931 -0.0103539 0.0097547 -0.0106145 -0.0188354 0.0164168 -0.0000218 0.0001877 -0.0000248 0.0000914 -0.0002541 0.0000979 0.0000219 0.0006620 -0.0001291 0.0004726 -0.0000324 0.0001014 -0.0000729 0.0003230 -0.0000355 0.0000176 -0.0000190 0.0000242 -0.0000440 -0.0000995 -0.0000812 -0.0000029 -0.0000408 -0.0000007 0.0000076 0.0002553 -0.0000158 0.0000826 0.0000333 0.0002825 -0.0000881 0.0000025 -0.0001019 0.0001680 -0.0001767 0.0002843 -0.0001666 0.0006398 -0.0000065 0.0001742 -0.0000166 0.0003632 -0.0001160 0.0004029 -0.0000885 0.0004433 -0.0005052 0.0010574 -0.0002558 0.0004286 -0.0001560 0.0004703 -0.0001451 0.0002120 -0.0000986 0.0003034 0.0000008 0.0000577 -0.0000231 -0.0000337 0.0000155 -0.0000253 -0.0000298 0.0003062 -0.0001743 0.0003990 0.0000823 -0.0000334 -0.0000098 -0.0000043
-0.0000805 0.0003712 -0.0000782 0.0002569 -0.0000599 0.0003694 -0.0000246 -0.0000899 -0.0000444 0.0001346 -0.0001167 0.0001235 -0.0000678 -0.0002073 -0.0001463 0.0000397 0.0000435 0.0000950 -0.0000540 0.0001867 -0.0000544 0.0001165 -0.0000480 0.0002314 -0.0000634 -0.0003004 -0.0000662 -0.0002093 -0.0001026 -0.0004209 -0.0001155 -0.0002981 -0.0000298 -0.0002495 -0.0000464 -0.0001111 -0.0001381 0.0002983 -0.0000793 -0.0000076 -0.0001234 0.0001031 -0.0000053 -0.0003202 -0.0000385 -0.0001286 -0.0066064 0.0067695 -0.0001052 0.0081102 -0.0160899 0.0124388 0.0045209 -0.0114031 -0.0012647 -0.0109826 0.0051949 -0.0248822 -0.0030488 0.0032660 0.0019145 0.0052278 0.0046966 -0.0041375 -0.0003488 -0.0011002 0.0066396 -0.0177333 -0.0227664 0.0262760 -0.0000137 0.0000650 -0.0000317 -0.0000004 -0.0002546 -0.0000296 0.0000141 0.0005815 -0.0001153 0.0001970 -0.0000106 -0.0001643 -0.0000519 0.0000636 -0.0000090 -0.0002408 0.0000045 -0.0001560 -0.0000355 -0.0002251 -0.0000322 -0.0001792 -0.0000527 -0.0000987 0.0000076 0.0001512 -0.0000049 -0.0000008 0.0000283 0.0001744 -0.0000757 -0.0001478 -0.0000732 -0.0000642 -0.0001666 0.0000727 -0.0001641 0.0003856 -0.0000001 -0.0000150 -0.0000071 0.0001071 -0.0001173 0.0002825 -0.0000762 0.0001908 -0.0004896 0.0007018 -0.0002203 0.0001349 -0.0001164 0.0001834 -0.0001164 -0.0001354 -0.0000662 -0.0000944 0.0000435 -0.0003755 -0.0000071 -0.0003856 0.0000304 -0.0002688 0.0000109 0.0000244 -0.0001597 0.0000764 0.0001178 -0.0004697 0.0000072 -0.0003859
-0.0000907 0.0006724 -0.0000800 0.0004335 -0.0000716 0.0006312 -0.0000311 0.0002868 -0.0000850 0.0004306 -0.0001314 0.0003075 -0.0000681 0.0000765 -0.0001678 0.0002655 0.0000538 0.0002281 -0.0000629 0.0002996 -0.0000730 0.0003186 -0.0001577 0.0004054 -0.0000738 -0.0001648 -0.0000727 -0.0001048 -0.0001133 -0.0003002 -0.0001195 -0.0001874 -0.0000278 -0.0001370 -0.0000446 0.0000383 -0.0001526 0.0004362 -0.0000817 0.0000600 -0.0001295 0.0001855 -0.0000081 -0.0001472 -0.0000294 -0.0000093 -0.0057650 0.0063402 0.0034299 -0.0084951 -0.0013148 0.0067250 -0.0069182 0.0075119 0.0044477 -0.0013678 0.0006800 -0.0140834 -0.0017747 0.0009022 0.0037713 -0.0110414 0.0073469 -0.0112642 -0.0060908 0.0070382 -0.0006040 -0.0001722 -0.0061650 0.0067233 0.0000107 -0.0002661 0.0000184 -0.0003209 -0.0002334 -0.0003710 0.0000075 0.0003435 -0.0000563 -0.0002835 0.0000418 -0.0006557 -0.0000142 -0.0004046 0.0000513 -0.0007492 0.0000261 -0.0004868 -0.0000101 -0.0005421 -0.0000258 -0.0004616 -0.0000317 -0.0003645 0.0000032 -0.0000523 0.0000131 -0.0001936 0.0000249 -0.0000159 -0.0000395 -0.0004441 -0.0000400 -0.0004270 -0.0001309 -0.0002307 -0.0001164 0.0000010 0.0000051 -0.0003355 0.0000032 -0.0002140 -0.0000918 0.0001420 -0.0000900 -0.0000473 -0.0004599 0.0004910 -0.0002134 0.0000051 -0.0000875 0.0000845 -0.0000802 -0.0001744 -0.0000397 -0.0001330 0.0000364 -0.0003729 0.0000115 -0.0003786 0.0000207 -0.0003130 0.0000190 0.0000935 -0.0001435 0.0001170 0.0001242 -0.0003903 0.0000160 -0.0003024
-0.0000898 0.0006368 -0.0000738 0.0004086 -0.0000766 0.0006441 -0.0000327 0.0003159 -0.0001068 0.0004273 -0.0001421 0.0002851 -0.0000695 0.0000424 -0.0001842 0.0002645 0.0000370 0.0001863 0.0000051 0.0001948 -0.0000319 0.0001830 -0.0002075 0.0004557 -0.0000753 -0.0001558 -0.0000695 -0.0001114 -0.0001134 -0.0002626 -0.0001079 -0.0002041 -0.0000389 -0.0001765 -0.0000450 0.0000176 -0.0001609 0.0003377 -0.0000793 0.0000171 -0.0001322 0.0001166 -0.0000118 -0.0001308 -0.0000232 -0.0000547 0.0002100 -0.0015699 -0.0132257 0.0094741 0.0093904 -0.0142529 -0.0059294 0.0109269 0.0040378 0.0013526 0.0038464 -0.0029653 -0.0040663 0.0025021 -0.0076685 0.0080662 0.0163731 -0.0318799 -0.0067491 0.0046516 0.0003377 0.0110042 0.0009315 -0.0043876 0.0000115 -0.0002266 0.0000254 -0.0003148 -0.0002166 -0.0003291 0.0000041 0.0003156 -0.0000380 -0.0001628 0.0000694 -0.0005631 -0.0000040 -0.0002983 0.0000619 -0.0006485 0.0000225 -0.0004078 0.0000048 -0.0005246 -0.0000238 -0.0004142 -0.0000044 -0.0003405 0.0000030 -0.0000525 0.0000176 -0.0002137 0.0000301 0.0000195 -0.0000345 -0.0004196 -0.0000504 -0.0003034 -0.0001007 -0.0001516 -0.0001355 0.0001817 0.0000063 -0.0002357 0.0000026 -0.0000493 -0.0000928 0.0001877 -0.0000923 0.0001097 -0.0004590 0.0006844 -0.0002233 0.0001467 -0.0001228 0.0002898 -0.0000845 0.0000706 -0.0000351 0.0000997 0.0000229 -0.0000809 -0.0000007 -0.0000890 0.0000532 -0.0001877 -0.0000401 0.0003860 -0.0001541 0.0003691 0.0000946 -0.0000721 0.0000007 -0.0000004
-0.0000946 0.0005185 -0.0000764 0.0003213 -0.0000757 0.0005826 -0.0000350 0.0002790 -0.0001092 0.0003701 -0.0001258 0.0002191 -0.0001049 -0.0000006 -0.0001981 0.0002298 -0.0000013 0.0001335 0.0000072 0.0001185 0.0000180 0.0000636 -0.0001220 0.0003561 -0.0000747 -0.0000878 -0.0000779 -0.0001051 -0.0001064 -0.0002029 -0.0000975 -0.0002055 -0.0000440 -0.0001268 -0.0000642 0.0000556 -0.0001766 0.0004664 -0.0000806 0.0000738 -0.0001350 0.0002134 -0.0000119 0.0001510 -0.0000354 0.0001603 0.0054540 -0.0062775 -0.0090705 0.0045561 0.0084475 -0.0398230 0.0036485 -0.0045006 0.0003209 0.0080885 -0.0012655 0.0111589 -0.0016760 0.0032215 -0.0190974 0.0194705 0.0003307 0.0006134 -0.0105406 0.0061791 0.0102329 -0.0079183 0.0048836 -0.0104074 0.0000016 -0.0000024 0.0000073 -0.0001121 -0.0002188 -0.0001056 0.0000040 0.0004272 -0.0000540 0.0001409 0.0000485 -0.0002393 -0.0000143 0.0000008 0.0000384 -0.0003269 0.0000172 -0.0001843 0.0000098 -0.0003506 0.0000160 -0.0002693 0.0000011 -0.0001848 0.0000078 0.0000441 0.0000124 -0.0001284 0.0000303 0.0001403 -0.0000534 -0.0002468 -0.0000899 -0.0000187 -0.0001130 0.0000693 -0.0001778 0.0004936 0.0000076 -0.0000170 -0.0000202 0.0002490 -0.0000987 0.0003183 -0.0001004 0.0003868 -0.0004933 0.0010221 -0.0002231 0.0003902 -0.0001342 0.0005376 -0.0001237 0.0004396 -0.0000489 0.0004298 0.0000140 0.0002731 -0.0000272 0.0002880 0.0000643 0.0000772 -0.0000942 0.0007157 -0.0001854 0.0006579 0.0000265 0.0003551 -0.0000293 0.0003358
-0.0001051 0.0007838 -0.0000808 0.0004763 -0.0000828 0.0008168 -0.0000314 0.0006337 -0.0001425 0.0006765 -0.0001280 0.0004138 -0.0001259 0.0003075 -0.0002053 0.0004482 -0.0000235 0.0002780 -0.0000560 0.0002755 -0.0000065 0.0002647 -0.0001010 0.0004674 -0.0000889 0.0000659 -0.0000723 -0.0000046 -0.0001130 -0.0000579 -0.0001156 -0.0000756 -0.0000424 -0.0000033 -0.0000657 0.0002002 -0.0002190 0.0006050 -0.0000794 0.0001409 -0.0001354 0.0002754 -0.0000270 0.0003204 -0.0000253 0.0002488 0.0071846 -0.0056331 0.0151590 -0.0356080 0.0012150 -0.0061190 0.0075629 -0.0146235 0.0065815 0.0044011 0.0003998 -0.0013940 0.0024675 0.0018092 -0.0108034 -0.0045445 0.0013845 -0.0023285 0.0046947 -0.0047787 0.0137200 -0.0255181 0.0113965 -0.0247979 -0.0000069 0.0002760 0.0000101 0.0001298 -0.0002150 0.0002071 -0.0000021 0.0005744 -0.0000933 0.0004599 0.0000111 0.0001116 -0.0000404 0.0003075 0.0000113 0.0000238 0.0000000 0.0000581 -0.0000072 -0.0001454 -0.0000250 -0.0000438 -0.0000214 0.0000351 0.0000105 0.0001089 0.0000132 -0.0000294 0.0000280 0.0002054 -0.0000659 -0.0001142 -0.0000981 0.0001585 -0.0001405 0.0001646 -0.0002020 0.0006292 0.0000101 0.0001268 -0.0000371 0.0003352 -0.0001020 0.0003436 -0.0001039 0.0004495 -0.0005179 0.0009943 -0.0002398 0.0003746 -0.0001355 0.0004711 -0.0001488 0.0003345 -0.0000550 0.0002825 0.0000111 0.0000966 -0.0000430 0.0001413 -0.0000405 0.0000949 -0.0001286 0.0006188 -0.0002032 0.0005040 0.0000249 0.0001241 -0.0000280 0.0001183
-0.0000967 0.0007620 -0.0000713 0.0004603 -0.0000804 0.0008502 -0.0000319 0.0006516 -0.0001543 0.0007361 -0.0001331 0.0004432 -0.0001163 0.0002822 -0.0002109 0.0004791 0.0000122 0.0002212 -0.0000833 0.0003223 -0.0000325 0.0002531 -0.0000997 0.0004147 -0.0000958 0.0001307 -0.0000703 0.0000070 -0.0001063 0.0000148 -0.0001014 -0.0000226 -0.0000469 0.0000092 -0.0000593 0.0001913 -0.0002371 0.0005252 -0.0000749 0.0001381 -0.0001347 0.0002160 -0.0000419 0.0003479 -0.0000148 0.0001977 0.0030009 0.0007419 0.0115639 -0.0181705 0.0023288 -0.0018001 -0.0067844 0.0008127 0.0014954 0.0053273 0.0177110 -0.0499227 0.0010862 0.0011390 -0.0057278 -0.0079413 0.0128311 -0.0352541 0.0013576 0.0017222 0.0067803 -0.0163049 0.0044439 -0.0164329 0.0000033 0.0000815 0.0000199 -0.0000334 -0.0001890 0.0000587 -0.0000087 0.0004302 -0.0000720 0.0001344 0.0000340 -0.0002102 -0.0000194 0.0000054 0.0000409 -0.0002901 0.0000177 -0.0001535 0.0000010 -0.0002916 -0.0000410 -0.0001809 0.0000162 -0.0001215 0.0000097 -0.0000021 0.0000270 -0.0001302 0.0000193 0.0000839 -0.0000487 -0.0002752 -0.0000780 -0.0000627 -0.0001326 -0.0000642 -0.0002102 0.0003417 0.0000012 -0.0000644 -0.0000412 0.0000476 -0.0000915 0.0002052 -0.0001066 0.0001800 -0.0005076 0.0006084 -0.0002275 0.0000845 -0.0001353 0.0001925 -0.0001096 -0.0001062 -0.0000565 -0.0001127 0.0000025 -0.0003357 -0.0000499 -0.0002450 -0.0000540 -0.0001659 -0.0001257 0.0003338 -0.0001814 0.0001740 0.0000688 -0.0003410 -0.0000081 -0.0002676
-0.0000937 0.0006620 -0.0000691 0.0004004 -0.0000746 0.0008143 -0.0000401 0.0005984 -0.0001404 0.0006856 -0.0001182 0.0004096 -0.0001396 0.0002458 -0.0002146 0.0004605 -0.0000083 0.0001841 -0.0001106 0.0002841 -0.0000658 0.0002523 -0.0000932 0.0003443 -0.0000964 0.0002226 -0.0000789 0.0000460 -0.0000967 0.0001127 -0.0000959 0.0000561 -0.0000378 0.0000794 -0.0000769 0.0002389 -0.0002211 0.0006082 -0.0000692 0.0002092 -0.0001387 0.0003054 -0.0000452 0.0006029 -0.0000290 0.0003940 -0.0207861 0.0204096 0.0054846 -0.0128801 -0.0023403 0.0036509 0.0066903 -0.0102257 -0.0048575 0.0105203 -0.0110231 0.0103487 0.0031069 -0.0011258 0.0014283 -0.0025708 -0.0155409 0.0080087 0.0039971 -0.0041745 -0.0041723 0.0082466 0.0050756 -0.0046503 0.0000200 -0.0002578 0.0000134 -0.0003206 -0.0001634 -0.0002726 -0.0000112 0.0002112 -0.0000114 -0.0003083 0.0000902 -0.0006844 0.0000198 -0.0004054 0.0001000 -0.0007594 0.0000532 -0.0004692 0.0000368 -0.0005460 0.0000053 -0.0004560 0.0000358 -0.0003789 0.0000097 -0.0001200 0.0000312 -0.0002724 0.0000074 -0.0000248 -0.0000232 -0.0004545 -0.0000800 -0.0002603 -0.0001175 -0.0002077 -0.0002101 0.0001577 -0.0000097 -0.0002524 -0.0000550 -0.0000857 -0.0000736 0.0001450 -0.0001194 0.0000788 -0.0005038 0.0005523 -0.0002027 0.0000186 -0.0001293 0.0001817 -0.0001107 -0.0000453 -0.0000491 -0.0000546 -0.0000159 -0.0002418 -0.0000281 -0.0001695 0.0000334 -0.0002072 -0.0001087 0.0004210 -0.0002015 0.0003109 0.0000460 -0.0001604 -0.0000160 -0.0001032
-0.0000932 0.0007678 -0.0000802 0.0005101 -0.0000671 0.0008889 -0.0000380 0.0006836 -0.0001435 0.0007243 -0.0001100 0.0004945 -0.0001405 0.0003430 -0.0002232 0.0005683 -0.0000392 0.0001848 -0.0001005 0.0003096 -0.0000289 0.0002045 -0.0001756 0.0004385 -0.0001079 0.0002716 -0.0000784 0.0001282 -0.0000999 0.0002110 -0.0000859 0.0001013 -0.0000315 0.0001067 -0.0000758 0.0002816 -0.0002204 0.0005788 -0.0000666 0.0002146 -0.0001378 0.0002849 -0.0000579 0.0006666 -0.0000232 0.0003907 -0.0060909 0.0075821 -0.0008673 -0.0211154 -0.0021520 0.0145641 0.0084241 -0.0089458 0.0026612 0.0040131 -0.0192461 0.0278242 0.0011062 0.0012399 0.0082958 -0.0020971 -0.0266881 0.0231391 0.0098270 -0.0101425 -0.0165801 0.0365817 0.0032211 -0.0007684 0.0000175 -0.0001485 0.0000081 -0.0002200 -0.0001620 -0.0002083 -0.0000091 0.0002674 -0.0000030 -0.0001232 0.0000909 -0.0005018 0.0000216 -0.0002349 0.0001005 -0.0005841 0.0000561 -0.0003548 0.0000312 -0.0004631 0.0000070 -0.0003706 0.0000189 -0.0002885 0.0000069 -0.0000693 0.0000255 -0.0002453 0.0000016 0.0000374 -0.0000272 -0.0003681 -0.0000750 -0.0001415 -0.0001388 -0.0000428 -0.0002198 0.0003644 -0.0000101 -0.0001375 -0.0000745 0.0001155 -0.0000744 0.0002154 -0.0001284 0.0002553 -0.0005304 0.0008033 -0.0002117 0.0001866 -0.0001419 0.0003836 -0.0001500 0.0002859 -0.0000539 0.0002230 -0.0000133 0.0000611 -0.0000044 0.0001019 0.0000109 0.0000052 -0.0001444 0.0006608 -0.0002508 0.0005770 0.0000068 0.0001750 -0.0000436 0.0002056
-0.0000815 0.0006659 -0.0000767 0.0004363 -0.0000542 0.0008346 -0.0000360 0.0006093 -0.0001389 0.0006583 -0.0000926 0.0004513 -0.0001383 0.0002853 -0.0002448 0.0005796 -0.0000152 0.0000610 -0.0000881 0.0002684 0.0000176 0.0000146 -0.0001980 0.0003648 -0.0001173 0.0002392 -0.0000781 0.0001293 -0.0000963 0.0002216 -0.0000824 0.0000877 -0.0000186 0.0000234 -0.0000676 0.0002027 -0.0002243 0.0004147 -0.0000607 0.0001502 -0.0001380 0.0001690 -0.0000714 0.0005986 -0.0000115 0.0002617 0.0030951 -0.0009926 -0.0072576 -0.0003489 -0.0052555 0.0187247 0.0025032 0.0045043 0.0057215 -0.0122335 0.0016945 0.0098376 -0.0028637 0.0041566 0.0006203 0.0078621 -0.0256445 0.0170038 -0.0014905 0.0016886 -0.0142628 0.0348421 -0.0131494 0.0129437 0.0000135 0.0000827 0.0000165 -0.0000141 -0.0001781 -0.0000312 -0.0000046 0.0004267 -0.0000301 0.0002040 0.0000543 -0.0001550 0.0000024 0.0000763 0.0000702 -0.0002293 0.0000410 -0.0001178 0.0000180 -0.0002562 -0.0000060 -0.0001620 0.0000306 -0.0001272 0.0000081 0.0000667 0.0000181 -0.0001186 0.0000061 0.0001713 -0.0000500 -0.0001588 -0.0000955 0.0001290 -0.0001655 0.0002054 -0.0002544 0.0006858 -0.0000120 0.0001111 -0.0000881 0.0004230 -0.0000884 0.0003589 -0.0001465 0.0005424 -0.0005560 0.0010964 -0.0002381 0.0003302 -0.0001704 0.0005617 -0.0001528 0.0004553 -0.0000760 0.0003184 -0.0000048 0.0001540 -0.0000379 0.0002065 -0.0000275 0.0001129 -0.0002053 0.0007032 -0.0002296 0.0005544 -0.0000088 0.0001591 -0.0000570 0.0002067
-0.0000881 0.0006250 -0.0000669 0.0003531 -0.0000515 0.0008432 -0.0000301 0.0006783 -0.0001340 0.0007466 -0.0000919 0.0004760 -0.0001671 0.0004259 -0.0002634 0.0006740 -0.0000312 0.0001161 -0.0000827 0.0002307 -0.0000442 0.0001391 -0.0001399 0.0002835 -0.0001233 0.0003364 -0.0000880 0.0002006 -0.0000995 0.0003120 -0.0001047 0.0001664 -0.0000423 0.0001211 -0.0000796 0.0002711 -0.0002027 0.0005483 -0.0000555 0.0001954 -0.0001424 0.0002724 -0.0000682 0.0008102 -0.0000238 0.0004569 -0.0050455 0.0086917 -0.0021617 -0.0047351 0.0001741 0.0120024 0.0043406 -0.0009873 0.0112537 -0.0285471 0.0068683 -0.0062363 0.0050747 -0.0045787 -0.0146331 0.0198154 -0.0057268 0.0067681 0.0021776 -0.0057896 -0.0052723 0.0076642 0.0013524 -0.0059469 0.0000139 0.0000716 0.0000132 -0.0000026 -0.0001688 -0.0000300 -0.0000103 0.0004241 -0.0000360 0.0001122 0.0000542 -0.0002252 0.0000051 -0.0000075 0.0000690 -0.0002902 0.0000390 -0.0001553 0.0000262 -0.0002645 -0.0000400 -0.0001559 0.0000418 -0.0001578 0.0000101 0.0000403 0.0000218 -0.0001280 0.0000083 0.0001269 -0.0000452 -0.0001911 -0.0001178 0.0000689 -0.0001590 0.0000731 -0.0002744 0.0005735 -0.0000095 0.0000494 -0.0000836 0.0002733 -0.0000879 0.0002959 -0.0001497 0.0004149 -0.0005558 0.0008965 -0.0002738 0.0001964 -0.0001754 0.0004128 -0.0001381 0.0002173 -0.0000671 0.0000897 0.0000038 -0.0001010 -0.0000656 0.0000073 -0.0000309 -0.0000549 -0.0002200 0.0005015 -0.0001975 0.0003007 -0.0000078 -0.0001162 -0.0000587 -0.0000431
-0.0000867 0.0006091 -0.0000547 0.0003564 -0.0000542 0.0007947 -0.0000362 0.0006488 -0.0001214 0.0006812 -0.0000945 0.0004853 -0.0001600 0.0004912 -0.0002598 0.0007183 -0.0000510 0.0000522 -0.0000791 0.0002347 -0.0000890 0.0000921 -0.0001105 0.0002151 -0.0001301 0.0003583 -0.0000912 0.0002713 -0.0000954 0.0003582 -0.0000901 0.0001273 -0.0000540 0.0000676 -0.0000715 0.0002647 -0.0001835 0.0004593 -0.0000623 0.0001345 -0.0001408 0.0002039 -0.0000639 0.0007322 -0.0000240 0.0003767 0.0001452 0.0018885 0.0115104 -0.0273469 0.0072314 0.0003199 0.0089343 -0.0289056 0.0033025 -0.0129036 0.0063514 -0.0190648 0.0073102 -0.0082386 -0.0204917 0.0190154 -0.0015087 0.0012005 0.0078417 -0.0152678 0.0068916 -0.0349848 0.0058221 -0.0188851 0.0000290 -0.0001482 0.0000322 -0.0001880 -0.0001553 -0.0002912 -0.0000084 0.0002922 -0.0000016 -0.0002322 0.0000876 -0.0005541 0.0000224 -0.0003259 0.0000957 -0.0006128 0.0000610 -0.0003801 0.0000363 -0.0004346 -0.0000367 -0.0003379 0.0000534 -0.0003088 0.0000079 -0.0000842 0.0000289 -0.0002449 -0.0000016 -0.0000077 -0.0000239 -0.0003699 -0.0001223 -0.0001770 -0.0001153 -0.0002048 -0.0002515 0.0002536 -0.0000050 -0.0001804 -0.0000710 -0.0000404 -0.0000764 0.0001387 -0.0001397 0.0001213 -0.0005576 0.0005923 -0.0002689 0.0000185 -0.0001557 0.0002354 -0.0001026 0.0000298 -0.0000483 0.0000222 -0.0000018 -0.0001885 -0.0000493 -0.0000562 -0.0000377 -0.0001109 -0.0001858 0.0004511 -0.0002052 0.0002829 -0.0000003 -0.0000806 -0.0000694 -0.0000027
-0.0000745 0.0004007 -0.0000496 0.0002058 -0.0000579 0.0006043 -0.0000451 0.0004562 -0.0001080 0.0004532 -0.0000773 0.0003463 -0.0001376 0.0003805 -0.0002588 0.0006185 -0.0000176 -0.0001701 -0.0000917 0.0001651 -0.0000715 -0.0001671 -0.0001149 0.0000620 -0.0001300 0.0002760 -0.0000787 0.0002416 -0.0000812 0.0003126 -0.0000853 0.0000033 -0.0000391 -0.0001322 -0.0000607 0.0001288 -0.0001816 0.0002012 -0.0000714 -0.0000130 -0.0001349 0.0000107 -0.0000663 0.0004628 -0.0000150 0.0001140 0.0008590 -0.0027465 0.0000796 -0.0003981 -0.0027022 0.0006850 0.0095987 -0.0282091 -0.0153086 0.0171847 0.0015700 -0.0025440 0.0022913 -0.0005313 -0.0170101 0.0188670 -0.0057062 0.0093033 0.0085582 -0.0146097 0.0204900 -0.0405895 -0.0023848 0.0039082 0.0000291 -0.0001219 0.0000347 -0.0001760 -0.0001670 -0.0003755 0.0000042 0.0003260 0.0000114 -0.0001511 0.0000897 -0.0004700 0.0000114 -0.0002264 0.0000977 -0.0005228 0.0000597 -0.0003220 0.0000425 -0.0004123 -0.0000179 -0.0003122 0.0000300 -0.0002633 0.0000077 -0.0000607 0.0000206 -0.0002210 -0.0000031 0.0000426 -0.0000332 -0.0003086 -0.0001347 -0.0000698 -0.0001174 -0.0000737 -0.0002511 0.0003770 -0.0000116 -0.0000949 -0.0000771 0.0001170 -0.0000708 0.0001784 -0.0001398 0.0002380 -0.0005761 0.0007826 -0.0002554 0.0001314 -0.0001628 0.0003954 -0.0001005 0.0002632 -0.0000602 0.0002653 0.0000106 0.0000616 -0.0000503 0.0001822 0.0000254 -0.0000235 -0.0001872 0.0006244 -0.0002095 0.0004866 -0.0000243 0.0002131 -0.0000836 0.0002640
-0.0000803 0.0003386 -0.0000562 0.0001296 -0.0000739 0.0005457 -0.0000617 0.0004420 -0.0001165 0.0004710 -0.0000915 0.0003480 -0.0001291 0.0004754 -0.0002824 0.0006605 -0.0000189 -0.0001345 -0.0000930 0.0001350 -0.0000726 -0.0000895 -0.0000575 -0.0000520 -0.0001321 0.0003261 -0.0000840 0.0002810 -0.0000734 0.0003616 -0.0001035 0.0000164 -0.0000394 -0.0001005 -0.0000675 0.0001646 -0.0001900 0.0003238 -0.0000734 0.0000069 -0.0001398 0.0000774 -0.0000704 0.0005390 -0.0000227 0.0002095 -0.0088017 0.0037099 -0.0031759 0.0068902 -0.0171129 0.0134030 0.0109900 -0.0229726 -0.0056234 0.0111296 0.0054256 -0.0081588 -0.0015477 0.0006557 -0.0143320 0.0203928 -0.0104170 0.0158356 0.0165084 -0.0218104 0.0207241 -0.0382573 -0.0006777 0.0001779 0.0000135 0.0000969 0.0000139 0.0000223 -0.0001755 -0.0001782 0.0000076 0.0004606 -0.0000136 0.0001678 0.0000678 -0.0001419 -0.0000005 0.0000854 0.0000759 -0.0001821 0.0000357 -0.0000843 0.0000353 -0.0002174 -0.0000250 -0.0001073 0.0000303 -0.0001183 0.0000124 0.0000496 0.0000112 -0.0001022 0.0000067 0.0001748 -0.0000510 -0.0001151 -0.0001173 0.0001489 -0.0001504 0.0001776 -0.0002746 0.0006679 -0.0000226 0.0001307 -0.0000940 0.0004101 -0.0000729 0.0003024 -0.0001447 0.0005109 -0.0006029 0.0011079 -0.0002770 0.0003974 -0.0001953 0.0006733 -0.0001346 0.0006188 -0.0001006 0.0006191 0.0000049 0.0004224 -0.0000669 0.0005096 -0.0000413 0.0002357 -0.0002423 0.0008706 -0.0002380 0.0007239 -0.0000910 0.0005287 -0.0001141 0.0005159
-0.0000890 0.0002303 -0.0000587 0.0001242 -0.0000890 0.0003478 -0.0001191 0.0002427 -0.0001371 0.0003101 -0.0001268 0.0003471 -0.0001105 0.0004751 -0.0002797 0.0006428 -0.0000262 -0.0001669 -0.0000595 0.0001126 -0.0000786 -0.0001177 -0.0000882 -0.0000577 -0.0001297 0.0003009 -0.0000894 0.0002956 -0.0000641 0.0003387 -0.0000930 -0.0000333 -0.0000408 -0.0001725 -0.0000478 0.0001091 -0.0001881 0.0002537 -0.0000715 -0.0000560 -0.0001410 -0.0000100 -0.0000723 0.0003814 -0.0000180 0.0000778 0.0040524 -0.0123650 0.0059818 -0.0084276 -0.0220036 0.0223126 0.0107617 -0.0194817 -0.0082881 0.0114532 0.0059520 -0.0095703 -0.0043790 0.0008202 -0.0111617 0.0137973 -0.0134951 0.0180656 0.0079855 -0.0097666 0.0077481 -0.0181410 -0.0093839 0.0125446 0.0000067 0.0002565 0.0000065 0.0001988 -0.0001743 -0.0000498 0.0000038 0.0005194 -0.0000386 0.0002610 0.0000369 0.0000073 -0.0000012 0.0001752 0.0000625 -0.0000584 0.0000204 -0.0000010 0.0000383 -0.0001339 -0.0000295 -0.0000179 0.0000198 -0.0000244 0.0000100 0.0000544 0.0000095 -0.0000525 0.0000050 0.0001661 -0.0000513 -0.0000848 -0.0001242 0.0001627 -0.0001617 0.0001382 -0.0003042 0.0006313 -0.0000170 0.0001300 -0.0000850 0.0003128 -0.0000798 0.0002576 -0.0001378 0.0004173 -0.0006165 0.0009066 -0.0002942 0.0002663 -0.0001937 0.0004976 -0.0001433 0.0003544 -0.0000995 0.0003610 -0.0000115 0.0001348 -0.0000588 0.0001970 -0.0001094 0.0001399 -0.0001987 0.0005695 -0.0002150 0.0004015 -0.0000852 0.0001873 -0.0000943 0.0001830
