-0.0000000 -0.0000000 -0.0000000 -0.0000000 -0.0000000 -0.0000000 -0.0000000 -0.0000000 -0.0000000 -0.0000000 -0.0000000 -0.0000000 -0.0000000 -0.0000000 -0.0000000 -0.0000000 -0.0000000 -0.0000000 -0.0000000 -0.0000000 -0.0000000 -0.0000000 -0.0000000 -0.0000000 -0.0000000 -0.0000000 -0.0000000 -0.0000000 -0.0000000 -0.0000000 -0.0000000 -0.0000000 -0.0000000 -0.0000000 -0.0000000 -0.0000000 -0.0000000 -0.0000000 -0.0000000 -0.0000000 -0.0000000 -0.0000000 -0.0000000 -0.0000000 -0.0000000 -0.0000000 -0.0000000 -0.0000000 -0.0000000 -0.0000000 -0.0000000 -0.0000000 -0.0000000 -0.0000000 -0.0000000 -0.0000000 -0.0000000 -0.0000000 -0.0000000 -0.0000000 -0.0000000 -0.0000000 -0.0000000 -0.0000000 -0.0000000 -0.0000000 -0.0000000 -0.0000000 -0.0000000 -0.0000000 -0.0000000 -0.0000000 -0.0000000 -0.0000000 -0.0000000 -0.0000000 -0.0000000 -0.0000000 -0.0000000 -0.0000000 -0.0000000 -0.0000000 -0.0000000 -0.0000000 -0.0000000 -0.0000000 -0.0000000 -0.0000000 -0.0000000 -0.0000000 -0.0000000 -0.0000000 -0.0000000 -0.0000000 -0.0000000 -0.0000000 -0.0000000 -0.0000000 -0.0000000 -0.0000000 -0.0000000 -0.0000000 -0.0000000 -0.0000000 -0.0000000 -0.0000000 -0.0000000 -0.0000000 -0.0000000 -0.0000000 -0.0000000 -0.0000000 -0.0000000 -0.0000000 -0.0000000 -0.0000000 -0.0000000 -0.0000000 -0.0000000 -0.0000000 -0.0000000 -0.0000000 -0.0000000 -0.0000000 -0.0000000 -0.0000000 -0.0000000 -0.0000000 -0.0000000 -0.0000000 -0.0000000 -0.0000000 -0.0000000 -0.0000000 -0.0000000 -0.0000000 -0.0000000 -0.0000000 -0.0000000 -0.0000000
-0.0000000 -0.0000000 -0.0000000 -0.0000000 -0.0000000 -0.0000000 -0.0000000 -0.0000000 -0.0000000 -0.0000000 -0.0000000 -0.0000000 -0.0000000 -0.0000000 -0.0000000 -0.0000000 -0.0000000 -0.0000000 -0.0000000 -0.0000000 -0.0000000 -0.0000000 -0.0000000 -0.0000000 -0.0000000 -0.0000000 -0.0000000 -0.0000000 -0.0000000 -0.0000000 -0.0000000 -0.0000000 -0.0000000 -0.0000000 -0.0000000 -0.0000000 -0.0000000 -0.0000000 -0.0000000 -0.0000000 -0.0000000 -0.0000000 -0.0000000 -0.0000000 -0.0000000 -0.0000000 -0.0000000 -0.0000000 -0.0000000 -0.0000000 -0.0000000 -0.0000000 -0.0000000 -0.0000000 -0.0000000 -0.0000000 -0.0000000 -0.0000000 -0.0000000 -0.0000000 -0.0000000 -0.0000000 -0.0000000 -0.0000000 -0.0000000 -0.0000000 -0.0000000 -0.0000000 -0.0000000 -0.0000000 -0.0000000 -0.0000000 -0.0000000 -0.0000000 -0.0000000 -0.0000000 -0.0000000 -0.0000000 -0.0000000 -0.0000000 -0.0000000 -0.0000000 -0.0000000 -0.0000000 -0.0000000 -0.0000000 -0.0000000 -0.0000000 -0.0000000 -0.0000000 -0.0000000 -0.0000000 -0.0000000 -0.0000000 -0.0000000 -0.0000000 -0.0000000 -0.0000000 -0.0000000 -0.0000000 -0.0000000 -0.0000000 -0.0000000 -0.0000000 -0.0000000 -0.0000000 -0.0000000 -0.0000000 -0.0000000 -0.0000000 -0.0000000 -0.0000000 -0.0000000 -0.0000000 -0.0000000 -0.0000000 -0.0000000 -0.0000000 -0.0000000 -0.0000000 -0.0000000 -0.0000000 -0.0000000 -0.0000000 -0.0000000 -0.0000000 -0.0000000 -0.0000000 -0.0000000 -0.0000000 -0.0000000 -0.0000000 -0.0000000 -0.0000000 -0.0000000 -0.0000000 -0.0000000 -0.0000000 -0.0000000 -0.0000000
-0.0000156 0.0000713 -0.0000165 0.0001215 0.0000767 0.0001876 0.0000349 0.0003581 -0.0000692 0.0000293 0.0000330 0.0002030 0.0000864 0.0004316 0.0000040 -0.0000081 -0.0000010 0.0000354 -0.0000443 0.0001257 -0.0000204 0.0000276 0.0000041 0.0000332 0.0000083 -0.0000647 0.0000776 0.0003026 -0.0000334 0.0000310 0.0000145 -0.0001369 -0.0000297 -0.0000346 0.0000536 0.0004124 -0.0000489 0.0000399 0.0000062 0.0000416 -0.0000205 0.0000932 -0.0000736 0.0000848 0.0000249 0.0003112 -0.0011590 -0.0013928 -0.0017309 -0.0013784 -0.0006697 -0.0018939 0.0000049 0.0000217 -0.0011212 -0.0013245 -0.0000657 -0.0001703 -0.0000824 0.0000819 0.0046437 -0.0053364 0.0002535 0.0000733 -0.0000646 -0.0002243 -0.0006357 0.0022834 0.0000017 -0.0000104 0.0000091 -0.0000567 -0.0000214 -0.0000423 0.0000277 0.0000167 -0.0000054 -0.0000915 -0.0000002 -0.0001070 0.0000034 -0.0000710 0.0000119 -0.0000651 0.0000008 -0.0000959 0.0000063 -0.0000629 0.0000140 -0.0000756 0.0000176 -0.0000522 -0.0000557 -0.0000442 0.0000121 -0.0000025 0.0000167 -0.0000453 -0.0000043 -0.0000073 0.0000073 -0.0000645 0.0000486 -0.0000240 0.0000220 -0.0000953 0.0000066 -0.0000179 -0.0000041 -0.0000321 -0.0000108 -0.0000594 0.0000712 0.0000113 -0.0000012 -0.0000508 -0.0000709 -0.0000110 0.0001066 0.0000167 -0.0000132 -0.0000210 0.0000344 0.0000033 -0.0000135 0.0000217 0.0000743 -0.0000924 -0.0000020 -0.0000251 -0.0015545 0.0017898 0.0000317 0.0000397 -0.0000135 0.0000772 -0.0000044 0.0001056 -0.0000009 0.0000579
-0.0000177 0.0000953 -0.0000425 0.0000606 -0.0000111 -0.0002316 0.0000275 0.0002742 -0.0000219 0.0001109 0.0000407 0.0001129 0.0000152 0.0002693 0.0000400 0.0000277 -0.0000014 -0.0000377 0.0000072 -0.0000210 -0.0000059 -0.0000198 0.0000351 0.0001265 0.0000216 0.0000246 0.0000415 0.0001243 0.0000166 0.0000789 0.0000409 0.0000998 -0.0000262 -0.0000997 0.0000458 0.0003260 -0.0000349 -0.0000414 -0.0000047 0.0000113 -0.0000182 -0.0000085 -0.0000219 0.0001619 0.0000075 0.0002055 0.0000432 -0.0001723 0.0006357 0.0012248 0.0004842 -0.0006195 -0.0000182 -0.0002106 -0.0004496 -0.0000558 -0.0001046 -0.0001670 0.0001973 0.0003386 0.0137282 -0.0171928 0.0001616 0.0009489 0.0000232 -0.0000898 -0.0017997 0.0034172 0.0001296 0.0007349 0.0000141 0.0001376 -0.0000070 -0.0000446 0.0000971 0.0003988 0.0000071 -0.0000148 -0.0000310 -0.0000043 0.0000036 -0.0000272 0.0000173 0.0000262 -0.0000130 0.0000031 0.0000297 0.0000151 -0.0000001 0.0000226 0.0000340 0.0000733 -0.0000646 0.0000504 0.0000134 0.0000608 0.0000104 -0.0000032 -0.0000124 0.0000172 -0.0000010 0.0000272 0.0000256 0.0000566 0.0000307 -0.0000127 -0.0000105 -0.0000224 -0.0000071 0.0000289 -0.0000061 -0.0000626 0.0000804 0.0000492 -0.0000065 -0.0000264 -0.0001109 -0.0001738 -0.0006824 0.0007841 -0.0000771 -0.0001231 0.0000124 0.0000502 0.0000096 0.0000629 0.0000835 -0.0000475 -0.0000744 -0.0001177 -0.0001774 0.0014964 0.0000373 0.0001220 0.0000027 0.0001111 0.0000486 0.0001442 0.0000191 0.0000786
-0.0000171 0.0000192 -0.0000131 -0.0000598 -0.0002206 -0.0004283 -0.0000834 -0.0000155 -0.0000051 0.0000553 -0.0000859 -0.0001551 -0.0001552 -0.0003110 0.0000026 0.0002297 0.0000007 -0.0000070 0.0000588 -0.0000512 -0.0000045 0.0000197 0.0000623 0.0003480 0.0000085 0.0002436 -0.0000700 -0.0002376 0.0000472 0.0001746 0.0000334 0.0005230 0.0000295 0.0001321 -0.0000388 -0.0000973 0.0000227 0.0000277 -0.0000279 0.0000974 -0.0000406 -0.0000828 0.0000839 0.0001960 -0.0000830 -0.0001901 0.0012625 0.0015560 0.0031864 0.0043685 0.0012966 0.0013144 -0.0000121 -0.0003864 0.0007291 0.0014407 -0.0001585 -0.0002842 0.0003962 0.0002540 0.0027319 0.0049306 -0.0001789 0.0019866 0.0000732 0.0001226 -0.0019197 0.0023057 0.0002365 0.0015060 0.0000282 0.0002609 0.0000217 -0.0000936 0.0001604 0.0005760 0.0000192 0.0000155 -0.0000496 -0.0000778 -0.0000078 -0.0000500 0.0000072 0.0000291 -0.0000244 -0.0000739 0.0000392 0.0000234 -0.0000246 -0.0000527 0.0000389 0.0000528 -0.0000705 0.0000197 0.0000143 0.0000432 0.0000040 -0.0000844 -0.0000202 -0.0000445 -0.0000093 -0.0000118 0.0000055 0.0000624 0.0000178 -0.0000043 -0.0000610 -0.0000632 -0.0000051 -0.0000009 -0.0000102 -0.0001234 0.0001058 0.0000454 -0.0000052 -0.0000459 -0.0001692 -0.0003588 -0.0002243 0.0012159 -0.0000975 -0.0003614 0.0000496 -0.0000972 0.0000403 -0.0000099 0.0000249 0.0000121 -0.0001824 -0.0004938 0.0003122 0.0014055 0.0000590 0.0000595 0.0000298 0.0000053 0.0001234 -0.0000498 0.0000548 -0.0000667
-0.0000095 -0.0003197 0.0000505 0.0002940 -0.0005488 -0.0008092 -0.0003414 -0.0006262 -0.0000868 -0.0004108 -0.0001846 -0.0005360 -0.0003292 -0.0012382 0.0000453 0.0002820 0.0000133 0.0000231 0.0000801 -0.0001733 -0.0000399 -0.0000242 0.0000033 0.0002390 -0.0000460 0.0004057 -0.0002234 -0.0007557 0.0000437 0.0000611 0.0000264 0.0005051 0.0000884 0.0002320 -0.0000896 -0.0007345 0.0000591 0.0000715 -0.0000209 0.0000191 -0.0000764 -0.0003026 0.0001656 -0.0000849 -0.0002292 -0.0007893 0.0010406 0.0011596 0.0039294 0.0024784 0.0013596 0.0011938 0.0000340 -0.0000518 0.0008758 0.0013123 -0.0000739 0.0000304 0.0002695 0.0002763 -0.0022207 0.0104951 -0.0002586 0.0017148 0.0000219 0.0003419 -0.0052984 0.0028903 0.0001924 0.0012958 0.0000484 0.0001147 0.0000170 -0.0001257 0.0001188 0.0002866 0.0000235 -0.0001450 -0.0000312 -0.0002139 0.0000016 -0.0001547 -0.0000103 -0.0001584 -0.0000097 -0.0002571 0.0000424 -0.0000282 0.0000114 -0.0002012 0.0000338 -0.0000965 0.0000002 -0.0002408 -0.0000309 -0.0001026 -0.0000097 -0.0003612 -0.0000140 -0.0000823 -0.0000040 -0.0001377 0.0000430 -0.0000250 0.0000429 -0.0000336 -0.0000817 -0.0001050 0.0000045 -0.0000622 -0.0000060 -0.0001579 0.0001576 0.0000587 0.0000065 0.0000042 -0.0001258 -0.0002974 0.0013012 0.0005034 -0.0000502 -0.0002743 0.0000981 -0.0000922 0.0000572 0.0001395 0.0000683 0.0000095 -0.0003541 -0.0010478 -0.0010303 0.0017339 0.0000640 0.0001308 0.0000158 0.0001341 0.0002323 -0.0000331 0.0000774 -0.0000162
-0.0000334 -0.0005142 0.0000593 0.0007207 -0.0006609 -0.0009453 -0.0004816 -0.0007120 -0.0001591 -0.0006557 -0.0001688 -0.0005595 -0.0003049 -0.0012640 0.0000673 0.0001610 0.0000164 0.0000716 -0.0000029 -0.0002194 -0.0000654 0.0000088 -0.0001759 -0.0001338 -0.0001360 0.0002384 -0.0002839 -0.0008302 0.0000037 -0.0000370 0.0000707 0.0004685 0.0000117 0.0001195 -0.0000702 -0.0005716 0.0000160 0.0001797 -0.0000352 0.0000517 -0.0001057 -0.0002803 0.0001218 -0.0001151 -0.0002122 -0.0006221 0.0009924 0.0010739 0.0037036 0.0004073 0.0012599 0.0015635 0.0000094 -0.0000735 0.0011685 0.0008336 -0.0000354 0.0001584 0.0001358 0.0004444 -0.0035665 0.0056362 0.0004571 0.0008389 0.0000657 0.0003733 -0.0012925 0.0007236 0.0003354 0.0013674 0.0000686 0.0002476 -0.0000114 0.0000310 0.0001206 0.0004103 0.0000582 0.0000079 -0.0000162 -0.0000164 -0.0000113 -0.0000396 -0.0000417 -0.0001263 -0.0000221 -0.0000963 0.0000534 0.0001269 0.0000131 -0.0000144 0.0000189 -0.0000491 -0.0000230 -0.0002886 -0.0000294 -0.0001159 -0.0000412 -0.0004819 -0.0000018 0.0000778 -0.0000249 -0.0000128 0.0000366 0.0000266 0.0000240 0.0001629 -0.0000830 -0.0000628 0.0000042 0.0000856 0.0000334 -0.0000298 0.0001831 0.0001702 0.0000082 0.0001130 -0.0001055 -0.0001595 0.0004869 0.0012976 -0.0000547 -0.0001721 0.0000696 -0.0000105 0.0001130 0.0003248 0.0002373 -0.0000196 -0.0005093 -0.0014671 -0.0047923 0.0030422 0.0000165 0.0002426 -0.0000139 0.0001722 0.0002649 -0.0000929 0.0001064 0.0000402
-0.0000323 -0.0004648 0.0000674 0.0006912 -0.0006570 -0.0009919 -0.0004714 -0.0007212 -0.0001831 -0.0006085 -0.0001865 -0.0004333 -0.0002949 -0.0011327 0.0000456 0.0001508 0.0000213 0.0000578 0.0000018 -0.0002456 -0.0000448 -0.0000242 -0.0002148 -0.0003536 -0.0001634 0.0000576 -0.0002897 -0.0008819 -0.0000133 -0.0000789 0.0000937 0.0004331 -0.0000197 0.0000671 -0.0000665 -0.0004963 0.0000188 0.0002434 -0.0000241 0.0000695 -0.0001128 -0.0003378 0.0001016 -0.0001101 -0.0001347 -0.0004729 0.0011922 0.0016287 0.0035214 0.0009658 0.0012563 0.0021623 0.0001151 0.0000648 0.0009863 0.0017859 -0.0000396 0.0000085 0.0002120 0.0003047 0.0098595 -0.0151485 0.0004037 0.0007755 0.0001214 0.0004841 0.0009291 0.0023098 0.0006909 0.0013610 0.0000854 0.0003065 0.0000129 0.0001075 0.0001418 0.0003842 0.0000477 0.0000834 -0.0000233 0.0000080 0.0000305 0.0000325 -0.0000199 -0.0000710 -0.0000340 -0.0001536 0.0000648 0.0000691 -0.0000184 -0.0000905 -0.0000108 -0.0001242 -0.0000608 -0.0004442 0.0001978 -0.0001940 -0.0000442 -0.0006411 -0.0000566 -0.0000985 -0.0000271 -0.0000719 -0.0000125 -0.0000738 0.0000106 0.0000715 -0.0001172 -0.0001502 0.0000204 0.0001006 0.0000484 0.0000053 0.0000473 0.0000807 -0.0000008 0.0000162 -0.0001308 -0.0001870 -0.0009430 0.0023017 -0.0000721 -0.0002088 0.0000115 -0.0001116 0.0001377 0.0003052 0.0001698 -0.0000015 -0.0004158 -0.0012454 -0.0009047 -0.0011230 0.0000229 0.0001730 -0.0000278 0.0000142 0.0002085 -0.0002794 0.0001034 0.0000423
-0.0000366 -0.0004922 0.0000840 0.0008214 -0.0005243 -0.0007860 -0.0004221 -0.0006763 -0.0000804 -0.0005406 -0.0001148 0.0000339 -0.0002339 -0.0006698 -0.0000405 0.0000461 0.0000283 0.0000478 -0.0000001 -0.0000784 -0.0000538 -0.0001322 -0.0001959 -0.0005157 -0.0002258 -0.0004923 -0.0001897 -0.0004769 -0.0001137 -0.0004269 0.0000714 0.0000430 -0.0000424 0.0000679 0.0000451 -0.0001630 -0.0000232 0.0002309 0.0000372 0.0000468 -0.0001353 -0.0004082 -0.0000658 -0.0002252 0.0000106 0.0004099 0.0011354 0.0017981 0.0020607 0.0017455 0.0007626 0.0014055 0.0003710 0.0011205 0.0007982 0.0021917 0.0001202 0.0004498 0.0002001 -0.0001066 0.0140138 -0.0119017 -0.0000931 0.0004543 0.0001290 0.0004501 0.0012634 0.0015194 0.0005992 -0.0000306 0.0000940 0.0001656 0.0000199 0.0000693 0.0001672 0.0002470 0.0000056 0.0001180 -0.0000310 -0.0001365 0.0001079 0.0000911 0.0000420 -0.0000538 -0.0000537 -0.0003614 0.0000635 -0.0000958 -0.0000242 -0.0003267 -0.0000337 -0.0003272 -0.0001078 -0.0006136 0.0004421 -0.0003098 -0.0000170 -0.0007527 -0.0001379 -0.0005655 -0.0000128 -0.0002457 -0.0000496 -0.0002779 -0.0000067 -0.0001974 -0.0001280 -0.0002616 0.0000367 -0.0000189 0.0000430 -0.0000427 -0.0001860 -0.0001854 -0.0000142 -0.0001048 -0.0002469 -0.0003429 0.0001068 0.0012803 -0.0000881 -0.0003245 0.0000511 -0.0001193 0.0001054 0.0003869 -0.0000089 0.0001278 -0.0001664 -0.0004724 -0.0024224 0.0000959 0.0000932 0.0001519 -0.0000474 0.0000724 0.0001084 -0.0001576 0.0000769 0.0001450
-0.0000773 -0.0004481 -0.0000061 0.0011419 -0.0001094 -0.0000863 0.0000650 0.0006594 -0.0000015 -0.0007480 0.0000782 0.0006746 0.0004526 0.0007240 -0.0000927 -0.0003646 -0.0000033 -0.0000878 -0.0000958 0.0005794 -0.0001149 -0.0005564 -0.0000906 -0.0005727 0.0002406 -0.0005370 0.0001617 0.0008283 -0.0003528 -0.0008461 0.0002189 -0.0004708 -0.0001270 0.0000171 0.0002718 0.0007761 -0.0001969 0.0000592 0.0000219 -0.0001230 -0.0002098 -0.0004547 -0.0000645 0.0006638 -0.0002983 -0.0001497 -0.0000845 0.0002917 0.0008323 0.0015614 -0.0003445 -0.0013325 0.0002202 0.0008451 0.0005471 0.0007710 0.0001032 0.0004105 0.0000064 -0.0001541 0.0122060 -0.0080024 0.0002209 -0.0003519 0.0000656 0.0002849 0.0028015 -0.0026060 0.0003420 -0.0008838 0.0000611 0.0002433 -0.0000235 0.0001343 0.0001621 0.0003257 -0.0000303 0.0003069 -0.0000279 -0.0000385 0.0001183 0.0003009 0.0000477 0.0000706 -0.0000751 -0.0002805 0.0000599 0.0000117 -0.0000289 -0.0002526 -0.0000483 -0.0003257 -0.0000389 -0.0005673 0.0004887 -0.0002751 -0.0000183 -0.0006676 -0.0001643 -0.0006715 -0.0000111 -0.0001296 -0.0000894 -0.0002742 -0.0000463 -0.0001711 -0.0001282 -0.0001972 0.0000259 0.0000081 0.0000364 0.0000387 -0.0003115 -0.0002775 -0.0000298 -0.0000700 -0.0002819 -0.0005403 0.0000830 0.0010045 -0.0001669 -0.0004126 0.0000764 -0.0001078 0.0000681 0.0004325 -0.0000110 0.0001695 -0.0000251 0.0000288 -0.0012508 -0.0007823 0.0001333 0.0000775 -0.0000518 0.0000744 0.0000696 -0.0000878 0.0000617 0.0001190
-0.0000978 -0.0002482 -0.0001153 0.0017188 0.0000148 0.0002557 0.0006833 0.0022544 -0.0000161 -0.0009927 0.0001512 0.0009189 0.0012656 0.0013601 -0.0000715 -0.0005885 -0.0000955 -0.0001978 -0.0003253 0.0008202 -0.0002368 -0.0007788 -0.0002080 -0.0006256 0.0011475 0.0013060 0.0001953 0.0008744 -0.0003608 -0.0005855 0.0003145 -0.0002390 -0.0001012 0.0001144 0.0001638 0.0009188 -0.0002330 0.0002218 -0.0000214 -0.0000508 -0.0003028 -0.0003961 0.0002899 0.0016756 -0.0007476 -0.0018735 -0.0005399 -0.0003742 0.0024521 0.0038660 -0.0001290 -0.0019943 -0.0000742 -0.0000914 0.0006446 0.0005919 -0.0001820 -0.0004065 0.0004888 -0.0003374 0.0141688 -0.0206814 0.0005099 0.0000578 0.0001005 0.0003735 0.0012221 -0.0047826 0.0003865 -0.0002216 0.0000541 0.0002311 0.0000326 0.0000776 0.0001198 0.0002364 -0.0000420 0.0003104 -0.0000443 -0.0000568 0.0001104 0.0003588 0.0000261 -0.0000156 -0.0000671 -0.0003148 0.0000696 0.0000203 -0.0000386 -0.0003021 -0.0000365 -0.0003662 0.0000340 -0.0004912 0.0004278 -0.0003431 -0.0000371 -0.0007553 -0.0001470 -0.0006799 -0.0000203 -0.0001807 -0.0000973 -0.0002766 -0.0000315 -0.0002165 -0.0001178 -0.0001742 0.0000193 -0.0000499 0.0000338 0.0000514 -0.0003183 -0.0003090 -0.0000390 -0.0000684 -0.0001366 -0.0005905 0.0005870 0.0004836 -0.0001498 -0.0003765 0.0000582 -0.0001381 0.0001187 0.0003357 0.0000965 0.0000550 0.0000018 -0.0000268 0.0042269 -0.0051243 0.0001315 -0.0000116 -0.0000531 -0.0000213 0.0001105 -0.0001859 0.0000533 -0.0000111
-0.0000742 -0.0003612 -0.0000524 0.0010883 -0.0004281 -0.0004388 0.0003751 0.0012869 -0.0001219 -0.0010671 -0.0000085 0.0002859 0.0007513 -0.0002795 -0.0001170 -0.0003544 -0.0000939 -0.0003322 -0.0002855 -0.0002277 -0.0001476 -0.0005916 -0.0002383 -0.0006869 0.0009170 0.0017856 -0.0003427 -0.0010723 -0.0000950 -0.0002241 0.0000510 0.0000248 0.0000526 0.0001516 -0.0001546 -0.0003918 -0.0000338 0.0002219 0.0000358 -0.0000003 -0.0003000 -0.0006209 0.0002162 0.0004250 -0.0003332 -0.0009832 -0.0004726 -0.0006434 0.0021853 0.0041948 -0.0005853 -0.0015424 0.0001116 0.0002794 0.0002088 0.0001933 -0.0001898 -0.0005344 0.0005526 -0.0000770 0.0021097 -0.0128671 0.0003756 0.0008421 0.0001619 0.0004691 0.0006107 -0.0031832 0.0006060 0.0005197 0.0000787 0.0001466 0.0000814 -0.0000017 0.0000747 0.0000448 -0.0000221 0.0001831 -0.0000343 -0.0001315 0.0001165 0.0002973 -0.0000095 -0.0002046 -0.0000359 -0.0003946 0.0001090 -0.0000238 -0.0000530 -0.0003474 -0.0000218 -0.0004142 0.0000328 -0.0004186 0.0003466 -0.0004387 -0.0000476 -0.0009248 -0.0001196 -0.0006357 -0.0000251 -0.0002710 -0.0000471 -0.0003114 -0.0000134 -0.0002828 -0.0000809 -0.0001620 0.0000297 -0.0001166 0.0000333 0.0000074 -0.0002684 -0.0003149 -0.0000440 -0.0000821 -0.0000667 -0.0002940 0.0009201 0.0002702 -0.0000657 -0.0000716 0.0001230 -0.0000311 0.0001246 0.0004404 0.0000110 0.0001417 -0.0000459 -0.0001526 0.0033693 -0.0036978 0.0001317 0.0000986 -0.0000695 0.0000925 0.0001373 -0.0000420 0.0000339 0.0000793
-0.0000256 -0.0006912 0.0000876 0.0005790 -0.0008196 -0.0011132 -0.0004285 -0.0004159 -0.0002280 -0.0011328 -0.0001323 -0.0003902 -0.0002436 -0.0015092 -0.0001343 -0.0000455 -0.0000281 -0.0002616 -0.0001148 -0.0007793 -0.0000811 -0.0004734 -0.0002367 -0.0009849 -0.0000734 0.0003650 -0.0006811 -0.0021595 0.0000273 0.0000554 -0.0000977 0.0000862 0.0000824 0.0001967 -0.0001868 -0.0010403 0.0000778 0.0003366 0.0000953 0.0000672 -0.0002916 -0.0008897 -0.0000533 -0.0007858 0.0000185 0.0002343 -0.0035149 -0.0056780 -0.0016554 -0.0022558 -0.0041373 -0.0038212 0.0003016 0.0005231 -0.0032090 -0.0026936 -0.0000853 -0.0002627 0.0001341 0.0011724 -0.0007083 -0.0032739 0.0006919 0.0013258 0.0000404 0.0003877 -0.0005094 0.0002015 0.0008403 0.0009017 0.0000809 0.0002877 0.0000616 0.0001055 0.0000223 0.0000695 -0.0000052 0.0002147 -0.0000268 0.0000421 0.0001266 0.0003672 -0.0000517 -0.0001537 -0.0000142 -0.0002279 0.0001395 0.0000975 -0.0000277 -0.0002408 -0.0000192 -0.0002796 0.0000365 -0.0003000 0.0002803 -0.0004224 -0.0000574 -0.0009076 -0.0001083 -0.0006135 -0.0000119 -0.0002287 -0.0000379 -0.0002404 -0.0000121 -0.0002621 -0.0001104 -0.0001054 0.0000331 -0.0000777 0.0000313 0.0000012 -0.0002249 -0.0002947 -0.0000493 -0.0001189 -0.0000938 -0.0001395 0.0013453 0.0000256 -0.0000874 -0.0000132 0.0001416 -0.0000500 0.0000848 0.0004778 -0.0001148 0.0001891 -0.0001418 -0.0003286 0.0009634 -0.0007150 0.0000840 0.0001125 -0.0000765 0.0000884 0.0001451 -0.0000594 0.0000442 0.0000399
-0.0000045 -0.0010727 0.0001245 0.0012413 -0.0009373 -0.0016026 -0.0006748 -0.0012387 -0.0002251 -0.0017076 -0.0001598 -0.0004389 -0.0002782 -0.0016929 -0.0001237 -0.0002281 0.0000021 -0.0002755 -0.0001570 -0.0008666 -0.0001097 -0.0006463 -0.0003564 -0.0015963 -0.0003646 -0.0005782 -0.0006858 -0.0022380 -0.0000072 -0.0001292 -0.0000961 -0.0000044 0.0000375 0.0000112 -0.0001157 -0.0010813 0.0000703 0.0003811 0.0001048 0.0000553 -0.0003003 -0.0010331 -0.0000553 -0.0009858 0.0000195 0.0001592 -0.0063385 -0.0089095 -0.0044332 -0.0065106 -0.0056906 -0.0053625 0.0002999 0.0003542 -0.0050770 -0.0041642 0.0000832 0.0000909 0.0002384 0.0015709 -0.0017123 0.0024639 0.0007352 0.0017424 -0.0000529 0.0002565 0.0000723 -0.0015620 0.0008167 0.0005148 0.0000885 0.0002980 0.0000672 0.0001141 0.0000359 0.0001524 0.0000332 0.0002373 -0.0000297 0.0000915 0.0001117 0.0003309 -0.0000750 -0.0002072 0.0000221 -0.0001901 0.0001488 0.0000924 0.0000053 -0.0002567 -0.0000137 -0.0002301 -0.0000277 -0.0002527 0.0001826 -0.0004240 -0.0000853 -0.0008846 -0.0001254 -0.0009142 -0.0000162 -0.0002336 -0.0000169 -0.0002070 -0.0000272 -0.0003667 -0.0001342 -0.0001183 0.0000345 -0.0000625 0.0000292 -0.0000342 -0.0002002 -0.0004830 -0.0000373 -0.0001227 -0.0001607 -0.0000861 0.0010593 0.0014658 -0.0001302 -0.0001152 0.0000250 -0.0001041 0.0000709 0.0003977 -0.0001589 0.0001358 -0.0002866 -0.0010679 0.0016058 -0.0009195 0.0000623 0.0000192 -0.0000882 -0.0000344 0.0001661 -0.0002961 0.0000878 -0.0001629
0.0000031 -0.0012267 0.0001173 0.0012330 -0.0009165 -0.0017813 -0.0007006 -0.0015859 -0.0001954 -0.0020175 -0.0001855 -0.0004204 -0.0002792 -0.0019268 -0.0001470 -0.0003984 0.0000245 -0.0003484 -0.0001705 -0.0009554 -0.0000584 -0.0006170 -0.0003396 -0.0018194 -0.0003822 -0.0008767 -0.0006933 -0.0023242 -0.0000377 -0.0003166 -0.0001282 -0.0000648 0.0000256 -0.0001465 -0.0000884 -0.0010505 0.0000543 0.0002689 0.0000725 0.0000053 -0.0002714 -0.0008639 -0.0000708 -0.0010677 -0.0000127 -0.0000358 -0.0057712 -0.0086706 -0.0042822 -0.0062954 -0.0049120 -0.0058178 0.0001274 -0.0001473 -0.0042021 -0.0046447 0.0001400 0.0001540 0.0004100 0.0018156 -0.0108870 0.0125877 0.0009681 0.0023836 -0.0000095 0.0003312 0.0003556 0.0012870 0.0008296 0.0004635 0.0000896 0.0002445 0.0000729 0.0001002 0.0000861 0.0002338 0.0001079 0.0003123 -0.0000202 0.0001777 0.0000988 0.0003155 -0.0000904 -0.0002855 0.0000407 -0.0001607 0.0001017 0.0000510 0.0000063 -0.0001719 -0.0000299 -0.0002268 -0.0000628 -0.0004558 -0.0000167 -0.0006345 -0.0001547 -0.0007793 -0.0001771 -0.0016210 -0.0000578 -0.0001248 -0.0000163 -0.0001607 -0.0001305 -0.0005335 -0.0001494 -0.0002027 0.0000157 -0.0000195 0.0000281 0.0000264 -0.0005888 -0.0008734 -0.0000036 0.0000737 -0.0003044 0.0000548 0.0016811 0.0040294 -0.0001166 0.0000632 -0.0000047 0.0001141 0.0000696 0.0006582 -0.0002271 0.0003292 -0.0004693 -0.0022831 -0.0003962 -0.0003815 0.0001789 0.0005160 -0.0000911 -0.0000632 0.0002518 0.0000257 0.0001179 -0.0002068
0.0000185 -0.0012175 0.0001010 0.0012060 -0.0008420 -0.0016788 -0.0006761 -0.0016460 -0.0001680 -0.0021141 -0.0001553 -0.0003890 -0.0002608 -0.0019064 -0.0001466 -0.0004382 0.0000246 -0.0003624 -0.0001678 -0.0009393 -0.0000214 -0.0004910 -0.0003402 -0.0017538 -0.0003546 -0.0008968 -0.0006530 -0.0022842 -0.0000624 -0.0003412 -0.0001387 -0.0001692 0.0000146 -0.0001598 -0.0000695 -0.0010386 0.0000515 0.0002007 0.0000539 -0.0000504 -0.0002579 -0.0007747 -0.0000780 -0.0010892 0.0000017 -0.0000839 -0.0073684 -0.0104730 -0.0055805 -0.0084876 -0.0072219 -0.0058412 -0.0000493 -0.0006077 -0.0050355 -0.0056950 0.0000057 -0.0002051 0.0008037 0.0014953 -0.0057255 0.0032511 0.0009127 0.0028946 0.0000286 0.0003281 0.0017044 0.0013626 0.0007245 0.0002869 0.0002612 0.0005580 -0.0002746 -0.0006662 0.0000515 -0.0000211 0.0002101 0.0017191 -0.0000920 0.0000858 0.0003486 0.0012354 0.0002032 0.0006399 0.0000275 -0.0001038 0.0001312 0.0001623 0.0000271 -0.0001856 0.0000634 -0.0000237 0.0001362 0.0000252 0.0009624 0.0016425 0.0000153 0.0003928 0.0003590 -0.0022842 -0.0000452 -0.0001643 -0.0000216 -0.0001758 -0.0003264 -0.0012107 -0.0001255 -0.0001260 -0.0000313 -0.0001667 0.0000410 0.0000455 -0.0014346 -0.0017311 0.0000417 0.0002096 -0.0003887 -0.0001797 0.0020891 0.0050866 -0.0001540 -0.0001525 -0.0000346 0.0001360 0.0000836 0.0005837 -0.0001431 0.0002639 -0.0004055 -0.0021820 -0.0023228 -0.0001680 0.0002967 0.0008083 -0.0000220 -0.0001503 0.0003402 0.0002953 0.0001371 -0.0001321
0.0000323 -0.0012123 0.0000974 0.0011844 -0.0007755 -0.0016069 -0.0006023 -0.0016377 -0.0001221 -0.0021666 -0.0001188 -0.0003796 -0.0002518 -0.0017584 -0.0000821 -0.0004134 0.0000342 -0.0003837 -0.0001522 -0.0008860 -0.0000047 -0.0004505 -0.0002945 -0.0017215 -0.0003077 -0.0007613 -0.0006051 -0.0021412 -0.0000420 -0.0002363 -0.0001418 -0.0001962 -0.0000010 -0.0000929 -0.0000588 -0.0009178 0.0000546 0.0001444 0.0000548 -0.0000449 -0.0002416 -0.0006640 -0.0000644 -0.0009853 0.0000253 -0.0000752 -0.0082196 -0.0106949 -0.0060776 -0.0101097 -0.0081554 -0.0050113 -0.0000996 -0.0007587 -0.0057008 -0.0058262 -0.0000461 -0.0003121 0.0006666 0.0014705 0.0064254 -0.0032749 0.0009450 0.0026883 0.0000445 0.0003330 -0.0000371 0.0001750 0.0006404 0.0002513 0.0004843 0.0008381 -0.0006614 -0.0017563 -0.0000845 -0.0006988 0.0002769 0.0028234 -0.0001694 -0.0002365 0.0005702 0.0020161 0.0004680 0.0014486 0.0000351 -0.0001505 0.0001681 0.0002452 0.0000675 -0.0003862 0.0001678 0.0001217 0.0003581 0.0006621 0.0019123 0.0038935 0.0002386 0.0013618 0.0008753 -0.0024478 0.0000260 -0.0002892 0.0000162 -0.0002347 -0.0004940 -0.0018838 -0.0000835 0.0000529 -0.0000340 -0.0003998 0.0000315 -0.0000459 -0.0018298 -0.0024119 0.0000570 0.0001812 -0.0003239 -0.0004661 0.0024451 0.0037203 -0.0001973 -0.0004554 -0.0000104 -0.0000441 0.0000924 0.0000626 0.0000047 -0.0000645 -0.0001709 -0.0008636 -0.0018134 -0.0005335 0.0003391 0.0006000 0.0000362 -0.0001636 0.0003211 0.0001812 0.0001369 0.0000251
0.0000618 -0.0011705 0.0000999 0.0011781 -0.0007102 -0.0015624 -0.0005703 -0.0015581 -0.0000726 -0.0021726 -0.0000621 -0.0003439 -0.0002180 -0.0016286 -0.0000203 -0.0004179 0.0000444 -0.0003700 -0.0001250 -0.0008164 0.0000092 -0.0004072 -0.0002030 -0.0017130 -0.0002857 -0.0006439 -0.0005475 -0.0019823 -0.0000301 -0.0001255 -0.0001233 -0.0001855 -0.0000180 -0.0000823 -0.0000258 -0.0008344 0.0000610 0.0001227 0.0000610 -0.0000167 -0.0002038 -0.0006346 -0.0000358 -0.0009376 0.0000448 -0.0001126 -0.0080996 -0.0109969 -0.0058112 -0.0111839 -0.0070133 -0.0058545 -0.0001103 -0.0008117 -0.0058011 -0.0058271 -0.0000371 -0.0003888 0.0007228 0.0014535 0.0033492 0.0045121 0.0013746 0.0023805 0.0000477 0.0003231 0.0011139 0.0004161 0.0006427 0.0002571 0.0005103 0.0009272 -0.0006545 -0.0018748 -0.0000950 -0.0007001 0.0002672 0.0026261 -0.0002088 -0.0001834 0.0005225 0.0020240 0.0004078 0.0013731 0.0000357 -0.0000640 0.0001281 0.0002927 0.0000537 -0.0002716 0.0001621 0.0001316 0.0004157 0.0007362 0.0017967 0.0036672 0.0001996 0.0011664 0.0008125 -0.0023227 0.0000296 -0.0001417 0.0000091 -0.0001462 -0.0004956 -0.0018589 -0.0000892 0.0001333 -0.0000222 -0.0003897 -0.0000119 -0.0000374 -0.0018011 -0.0023344 0.0000394 0.0002643 -0.0002184 -0.0003014 0.0038767 0.0017865 -0.0001811 -0.0003871 0.0000974 -0.0000116 0.0000168 -0.0001149 0.0000160 -0.0001004 -0.0000528 -0.0002200 -0.0036840 0.0016041 0.0002854 0.0005285 0.0000517 -0.0001839 0.0003087 0.0001229 0.0001249 0.0000556
0.0001058 -0.0012053 0.0001039 0.0013741 -0.0006913 -0.0016334 -0.0005618 -0.0015624 -0.0000852 -0.0021884 -0.0000498 -0.0003162 -0.0001798 -0.0015434 -0.0000253 -0.0004421 0.0000306 -0.0003653 -0.0001362 -0.0007651 0.0000123 -0.0004136 -0.0002350 -0.0017507 -0.0002714 -0.0006310 -0.0005077 -0.0018780 -0.0000197 -0.0000577 -0.0001134 -0.0001339 -0.0000148 -0.0001030 0.0000157 -0.0007575 0.0000591 0.0001380 0.0000585 0.0000092 -0.0001982 -0.0006067 -0.0000143 -0.0008368 0.0000290 -0.0000807 -0.0077354 -0.0113546 -0.0055333 -0.0112581 -0.0069822 -0.0056497 -0.0001154 -0.0007154 -0.0068752 -0.0046911 -0.0000169 -0.0003152 0.0007122 0.0014501 -0.0025563 0.0038342 0.0015701 0.0022687 0.0000317 0.0003567 0.0054156 -0.0015352 0.0005909 0.0003225 0.0005129 0.0008969 -0.0006452 -0.0018197 -0.0000580 -0.0006472 0.0002471 0.0024155 -0.0002197 -0.0002199 0.0005000 0.0019594 0.0003756 0.0012661 0.0000269 -0.0001192 0.0001530 0.0002824 0.0000387 -0.0003029 0.0001707 0.0001201 0.0004257 0.0007860 0.0016857 0.0033919 0.0001699 0.0009370 0.0007938 -0.0019452 0.0000151 -0.0001534 0.0000214 -0.0001364 -0.0004504 -0.0017504 -0.0000541 -0.0000414 -0.0000266 -0.0004171 -0.0000119 -0.0001741 -0.0017182 -0.0023490 0.0000536 0.0002148 -0.0002259 -0.0006467 0.0031231 0.0011294 -0.0002225 -0.0009487 0.0000809 -0.0000237 0.0000806 -0.0001061 0.0000174 -0.0000202 -0.0001818 -0.0008017 0.0004211 -0.0001366 0.0002775 0.0007816 0.0000966 -0.0000913 0.0004168 -0.0003318 0.0000974 -0.0003037
0.0001208 -0.0011867 0.0001071 0.0012955 -0.0006576 -0.0016783 -0.0005450 -0.0015942 -0.0000690 -0.0021219 -0.0000995 -0.0002710 -0.0001673 -0.0015094 -0.0000425 -0.0003772 0.0000179 -0.0003418 -0.0001882 -0.0007139 0.0000184 -0.0003496 -0.0002539 -0.0016996 -0.0002569 -0.0007255 -0.0005080 -0.0017562 -0.0000192 -0.0000177 -0.0001204 -0.0000929 -0.0000342 -0.0001445 0.0000329 -0.0007674 0.0000366 0.0001681 0.0000304 -0.0000129 -0.0002003 -0.0005232 -0.0000043 -0.0009250 0.0000372 -0.0001580 -0.0070640 -0.0106491 -0.0055613 -0.0090995 -0.0068900 -0.0048788 -0.0001275 -0.0006518 -0.0069503 -0.0040145 0.0000645 -0.0000476 0.0005749 0.0011823 -0.0025408 0.0125515 0.0011864 0.0018320 0.0000778 0.0003737 0.0001956 0.0024587 0.0006268 0.0003953 0.0004878 0.0007308 -0.0006603 -0.0016410 -0.0000619 -0.0009768 0.0001204 0.0018963 -0.0002665 -0.0004864 0.0004744 0.0016012 0.0003653 0.0010986 -0.0000291 -0.0003327 0.0001687 0.0001897 -0.0000700 -0.0007447 0.0001277 -0.0002064 0.0003442 0.0006825 0.0015428 0.0027602 0.0001421 0.0003620 0.0009403 0.0001476 0.0000265 -0.0003425 0.0000864 -0.0001590 -0.0003280 -0.0015782 -0.0000204 -0.0003050 -0.0000828 -0.0005341 -0.0000146 -0.0004768 -0.0012747 -0.0026510 0.0000976 0.0000925 -0.0004604 -0.0010590 -0.0003433 -0.0009594 -0.0002401 -0.0013699 0.0001312 0.0000185 0.0002235 0.0001146 0.0001159 0.0001450 -0.0004640 -0.0021336 0.0044768 -0.0014882 0.0003861 0.0015247 0.0001346 0.0001520 0.0006611 -0.0008331 -0.0000498 -0.0008589
0.0001105 -0.0011517 0.0001006 0.0007327 -0.0005871 -0.0017429 -0.0005363 -0.0017892 0.0000273 -0.0020998 -0.0000642 -0.0002978 -0.0001674 -0.0015941 -0.0000427 -0.0004056 0.0000103 -0.0003486 -0.0001845 -0.0007699 0.0000413 -0.0002335 -0.0001734 -0.0015887 -0.0002869 -0.0009396 -0.0004858 -0.0017230 -0.0000644 -0.0001025 -0.0001391 -0.0001619 -0.0000576 -0.0002038 0.0000140 -0.0010046 0.0000357 0.0000927 -0.0000245 -0.0001072 -0.0001504 -0.0004920 -0.0000031 -0.0011357 0.0000551 -0.0003421 -0.0049368 -0.0080142 -0.0039018 -0.0061312 -0.0035116 -0.0040083 -0.0000763 -0.0004866 -0.0035997 -0.0031680 0.0001985 0.0004678 0.0004380 0.0002735 -0.0016310 0.0110590 0.0005714 0.0008469 0.0001459 0.0006532 -0.0017511 0.0024931 0.0005915 0.0003323 0.0003993 0.0007659 -0.0004614 -0.0012087 -0.0000201 -0.0008871 -0.0000765 0.0008891 -0.0004072 -0.0005973 0.0003047 0.0009405 0.0003203 0.0009995 -0.0001214 -0.0002675 0.0001326 0.0001406 -0.0002883 -0.0010612 -0.0000193 -0.0005410 0.0002477 0.0007628 0.0011406 0.0015491 -0.0000039 -0.0004955 0.0013161 0.0031382 -0.0000119 -0.0002154 0.0001077 0.0000276 -0.0002430 -0.0014270 -0.0000379 -0.0002142 -0.0001544 -0.0004181 -0.0000172 -0.0005080 -0.0009748 -0.0030892 0.0001223 0.0001942 -0.0005489 -0.0006572 -0.0031575 -0.0051444 -0.0002023 -0.0008440 0.0001316 0.0003948 0.0002314 0.0004500 0.0001370 0.0004655 -0.0005913 -0.0027674 0.0002687 0.0012309 0.0004580 0.0020582 0.0000553 0.0001085 0.0007910 -0.0009064 -0.0001707 -0.0012217
0.0001003 -0.0010545 0.0000867 -0.0000078 -0.0004778 -0.0016480 -0.0005569 -0.0020182 0.0000612 -0.0019495 -0.0000056 -0.0003689 -0.0001854 -0.0016532 -0.0000598 -0.0003439 0.0000034 -0.0003483 -0.0001543 -0.0007632 0.0000690 -0.0000387 -0.0000772 -0.0013108 -0.0003332 -0.0010695 -0.0004764 -0.0015753 -0.0001208 -0.0002168 -0.0002105 -0.0002527 -0.0000609 -0.0001781 -0.0000265 -0.0010896 0.0000221 -0.0000193 -0.0000740 -0.0001735 -0.0001213 -0.0003880 -0.0000147 -0.0012411 0.0000569 -0.0004466 -0.0016342 -0.0039996 -0.0002891 -0.0037554 -0.0013834 -0.0011092 -0.0000719 -0.0006085 -0.0005492 -0.0013996 0.0002340 0.0005277 0.0001688 -0.0004675 -0.0062775 0.0043402 0.0003486 -0.0000038 0.0001722 0.0008029 0.0001757 0.0009257 0.0004539 -0.0001813 0.0003559 0.0007349 -0.0002541 -0.0008503 -0.0000301 -0.0008210 -0.0001830 0.0000137 -0.0004540 -0.0007230 0.0001409 0.0003130 0.0002753 0.0008957 -0.0001358 -0.0002107 0.0000784 -0.0000272 -0.0004098 -0.0012563 -0.0001319 -0.0007143 0.0002350 0.0008405 0.0008113 0.0007855 -0.0001043 -0.0009413 0.0015301 0.0043453 -0.0000515 -0.0002101 0.0000718 0.0001081 -0.0002708 -0.0015087 -0.0000223 -0.0001834 -0.0001618 -0.0002773 0.0000196 -0.0004639 -0.0009780 -0.0033725 0.0001090 0.0001061 -0.0004034 -0.0005558 -0.0047008 -0.0065871 -0.0001663 -0.0007640 0.0000607 0.0004257 0.0002023 0.0004004 0.0001471 0.0005457 -0.0005841 -0.0027603 -0.0017624 0.0035474 0.0005192 0.0021401 0.0000048 -0.0001719 0.0007617 -0.0009090 -0.0001704 -0.0012521
0.0001326 -0.0010073 0.0000939 -0.0002912 -0.0003403 -0.0014299 -0.0005907 -0.0021378 0.0000973 -0.0018924 0.0000486 -0.0003522 -0.0002170 -0.0017120 -0.0000671 -0.0003478 0.0000260 -0.0003168 -0.0001190 -0.0006842 0.0001360 0.0001854 0.0000743 -0.0009798 -0.0003275 -0.0011232 -0.0004210 -0.0013371 -0.0001738 -0.0003707 -0.0003131 -0.0006419 -0.0000191 -0.0002081 -0.0000298 -0.0010018 -0.0000219 -0.0002971 -0.0000714 -0.0002958 -0.0001036 -0.0002413 -0.0000218 -0.0013319 -0.0000003 -0.0007045 -0.0008690 -0.0025473 -0.0007552 -0.0055986 -0.0010288 -0.0014031 -0.0000395 -0.0002317 -0.0005872 -0.0011677 0.0003311 0.0008481 -0.0000196 -0.0003729 -0.0171841 0.0199283 -0.0003034 -0.0005790 0.0001115 0.0007091 -0.0002952 0.0016614 0.0003591 -0.0011827 0.0003300 0.0005951 -0.0002347 -0.0007708 -0.0000003 -0.0007022 -0.0002235 -0.0001268 -0.0004311 -0.0008623 0.0001021 0.0000860 0.0002721 0.0008863 -0.0001274 -0.0003021 0.0000520 -0.0002067 -0.0004416 -0.0013802 -0.0001375 -0.0008260 0.0002644 0.0007768 0.0007751 0.0007849 -0.0000770 -0.0008439 0.0015380 0.0043798 -0.0000469 -0.0003336 0.0000542 0.0000272 -0.0002861 -0.0014959 -0.0000433 -0.0002233 -0.0001575 -0.0002766 0.0000350 -0.0005045 -0.0009751 -0.0034702 0.0000928 -0.0000226 -0.0003571 -0.0005991 -0.0039406 -0.0085570 -0.0000908 -0.0008926 0.0000986 0.0002443 0.0001502 0.0003145 0.0003711 0.0003661 -0.0005436 -0.0026329 0.0004915 0.0020857 0.0005330 0.0021099 -0.0000232 -0.0002529 0.0007140 -0.0008733 -0.0001675 -0.0010617
0.0001769 -0.0006594 0.0000842 -0.0006073 -0.0001319 -0.0009541 -0.0005784 -0.0019705 0.0001482 -0.0016150 0.0001537 -0.0003551 -0.0002959 -0.0017202 -0.0000117 -0.0004234 0.0000044 -0.0003427 -0.0000714 -0.0004580 0.0002599 0.0007367 0.0001634 -0.0004916 -0.0002429 -0.0006599 -0.0003011 -0.0010115 -0.0002165 -0.0004232 -0.0004215 -0.0010419 0.0000286 -0.0001937 -0.0000573 -0.0009549 -0.0001065 -0.0006089 -0.0000634 -0.0003265 -0.0000935 -0.0000708 -0.0000281 -0.0013882 -0.0000833 -0.0009810 -0.0016729 -0.0025051 -0.0047085 -0.0114604 -0.0009764 -0.0026124 0.0001248 0.0008634 -0.0007856 -0.0012294 0.0005764 0.0016731 -0.0000552 0.0004245 -0.0131891 0.0141607 -0.0007520 -0.0014549 0.0000046 0.0001851 0.0012056 0.0011616 0.0001317 -0.0012274 0.0002747 0.0007502 -0.0002317 -0.0006635 0.0001281 -0.0001385 -0.0002158 -0.0000264 -0.0004386 -0.0006581 0.0000516 0.0000409 0.0002549 0.0009911 -0.0001539 -0.0001140 0.0000512 -0.0002287 -0.0004441 -0.0011676 -0.0001286 -0.0006921 0.0002472 0.0009280 0.0007216 0.0007964 -0.0000638 -0.0005380 0.0014702 0.0043633 -0.0000703 -0.0001623 0.0000822 0.0001380 -0.0003070 -0.0012950 -0.0000219 -0.0000803 -0.0001374 -0.0001467 0.0000615 -0.0003527 -0.0008797 -0.0032445 0.0000866 0.0000928 -0.0001576 0.0002244 -0.0061918 -0.0081720 0.0000521 0.0000934 0.0001378 0.0005081 0.0000029 0.0003116 0.0002883 0.0005082 -0.0004158 -0.0018391 -0.0020907 0.0009185 0.0005000 0.0022581 -0.0000035 0.0000105 0.0006236 -0.0002636 -0.0001468 -0.0006672
0.0001703 -0.0001843 0.0000578 -0.0019183 0.0001605 -0.0003136 -0.0004080 -0.0015071 0.0001933 -0.0011091 0.0002421 -0.0005695 -0.0003583 -0.0016643 0.0000673 -0.0003947 -0.0000282 -0.0004284 0.0000008 -0.0003372 0.0003976 0.0013357 0.0003006 0.0003588 -0.0001236 0.0000116 -0.0001850 -0.0006686 -0.0002333 -0.0004135 -0.0004809 -0.0010278 0.0000596 -0.0002061 -0.0001068 -0.0010669 -0.0001314 -0.0008480 -0.0001161 -0.0003540 -0.0000352 0.0000807 -0.0000130 -0.0014783 -0.0001018 -0.0011342 -0.0004120 -0.0005826 -0.0047798 -0.0174436 -0.0010042 -0.0000189 0.0001010 0.0015062 0.0006259 0.0002032 0.0007140 0.0022202 -0.0000831 0.0011912 -0.0062563 0.0144517 -0.0001876 -0.0022514 -0.0000852 0.0000575 -0.0020637 0.0052809 -0.0002728 -0.0002879 0.0002038 0.0009575 -0.0001793 -0.0004845 0.0000351 -0.0000948 -0.0001948 0.0003808 -0.0004021 -0.0002763 -0.0000178 0.0001601 0.0002355 0.0012326 -0.0001873 0.0001800 0.0000005 -0.0001351 -0.0003819 -0.0006760 -0.0001295 -0.0003444 0.0001625 0.0010553 0.0006747 0.0009077 -0.0000622 -0.0000588 0.0013840 0.0041598 -0.0001179 0.0000228 0.0000841 0.0003589 -0.0002918 -0.0011605 -0.0000376 0.0001283 -0.0000900 0.0000965 0.0000489 -0.0000700 -0.0008561 -0.0031040 0.0000398 0.0002205 0.0002063 0.0014209 -0.0068976 -0.0068291 0.0002341 0.0014475 0.0000712 0.0006625 -0.0001298 0.0001666 0.0000523 0.0006035 -0.0000293 -0.0002961 -0.0036506 0.0012922 0.0003877 0.0019888 0.0000386 0.0000781 0.0004448 0.0001680 -0.0000983 -0.0003242
0.0001317 0.0002864 0.0000647 -0.0030312 0.0003454 0.0003244 -0.0002277 -0.0009628 0.0001953 -0.0004008 0.0002316 -0.0006432 -0.0003759 -0.0013581 0.0001143 -0.0001766 -0.0000242 -0.0002441 0.0000383 -0.0000930 0.0004147 0.0017774 0.0003890 0.0010421 -0.0001100 0.0003107 -0.0001216 -0.0003308 -0.0002247 -0.0002219 -0.0004384 -0.0005392 0.0000281 0.0000487 -0.0001594 -0.0009276 -0.0001343 -0.0007620 -0.0001766 -0.0001985 0.0000316 0.0003892 -0.0000042 -0.0013999 -0.0000469 -0.0009008 0.0009170 0.0012795 -0.0028586 -0.0184151 -0.0005907 0.0019633 -0.0001623 0.0011116 0.0010311 0.0013765 0.0006518 0.0020579 0.0002036 0.0008663 0.0020113 0.0011409 -0.0002444 -0.0026061 -0.0000917 0.0003204 -0.0037881 0.0055838 -0.0005387 -0.0000742 0.0001331 0.0006053 -0.0001733 -0.0004047 -0.0002577 -0.0008659 -0.0002006 0.0009122 -0.0003057 -0.0002044 -0.0000049 0.0003584 0.0002606 0.0014085 -0.0001883 0.0001329 -0.0000482 -0.0000804 -0.0002280 -0.0004524 -0.0000441 -0.0000877 0.0000293 0.0006995 0.0008049 0.0012947 -0.0000065 0.0003261 0.0013066 0.0037274 -0.0000628 -0.0001755 0.0000696 0.0002689 -0.0002880 -0.0012942 -0.0000886 0.0001355 -0.0000426 0.0000964 0.0000010 0.0000057 -0.0009974 -0.0032654 -0.0000189 0.0000758 0.0003572 0.0017822 -0.0021384 -0.0087057 0.0003159 0.0016659 -0.0000308 0.0003429 -0.0001720 0.0000737 0.0000701 0.0003268 0.0002519 0.0007803 -0.0034859 0.0005655 0.0002565 0.0013701 0.0000462 -0.0000295 0.0002489 0.0001576 -0.0000728 -0.0000981
0.0001573 0.0004516 0.0000734 -0.0030480 0.0003585 0.0004133 -0.0001797 -0.0008676 0.0002139 -0.0000945 0.0001747 -0.0006736 -0.0003228 -0.0011558 0.0000924 -0.0000914 -0.0000199 -0.0002450 -0.0000178 0.0000167 0.0003780 0.0016510 0.0004303 0.0009432 -0.0001417 0.0003034 -0.0001463 -0.0002088 -0.0002077 -0.0000439 -0.0003501 -0.0001506 -0.0000166 0.0002111 -0.0001680 -0.0007882 -0.0001210 -0.0005364 -0.0001866 -0.0000547 0.0000503 0.0004067 0.0000083 -0.0012831 0.0000442 -0.0005268 0.0003802 0.0006796 -0.0025618 -0.0142780 -0.0004752 0.0015885 -0.0003606 0.0004222 0.0008126 0.0012498 0.0004585 0.0014591 0.0006192 0.0007012 0.0191142 -0.0376112 -0.0004125 -0.0022561 -0.0000302 0.0006923 -0.0013923 0.0010158 -0.0004067 0.0003218 0.0001158 0.0000993 -0.0002524 -0.0005478 -0.0003660 -0.0013151 -0.0001764 0.0013697 -0.0002505 -0.0003676 0.0000757 0.0005266 0.0003004 0.0014024 -0.0001594 -0.0000877 0.0000020 -0.0000760 -0.0000696 -0.0004089 0.0000997 0.0001592 -0.0000337 0.0001893 0.0010265 0.0017579 0.0000951 0.0006605 0.0012214 0.0031194 0.0000521 -0.0003825 0.0000882 0.0000570 -0.0003021 -0.0015625 -0.0000834 0.0000242 -0.0000124 -0.0001334 -0.0000355 -0.0001259 -0.0011356 -0.0033306 -0.0000529 -0.0001360 0.0003709 0.0015782 -0.0018883 -0.0072769 0.0003289 0.0013772 -0.0000845 0.0001313 -0.0001746 0.0000423 0.0000296 0.0002519 0.0003320 0.0010551 -0.0069809 0.0021795 0.0002052 0.0010171 0.0000538 0.0002072 0.0001994 0.0003791 -0.0000892 0.0002386
0.0002062 0.0004870 0.0000606 -0.0026886 0.0002824 0.0003313 -0.0001498 -0.0008022 0.0002429 0.0000950 0.0001529 -0.0006323 -0.0002403 -0.0010169 0.0000837 -0.0000475 -0.0000506 -0.0001309 -0.0000767 0.0001026 0.0003305 0.0014807 0.0003759 0.0008101 -0.0001398 0.0003779 -0.0002091 -0.0001228 -0.0001962 0.0002341 -0.0003178 0.0002208 -0.0000900 0.0002933 -0.0001410 -0.0005895 -0.0000871 -0.0001252 -0.0002169 0.0002056 0.0000477 0.0006170 0.0000071 -0.0010505 0.0000944 -0.0002220 -0.0004323 -0.0005048 -0.0017325 -0.0101519 -0.0000506 0.0005797 -0.0004647 0.0002664 0.0008574 0.0009534 0.0002717 0.0009873 0.0003372 0.0011662 0.0044247 -0.0094312 -0.0005150 -0.0017439 0.0000455 0.0010353 -0.0004631 0.0000133 -0.0001497 0.0006384 0.0000516 -0.0000249 -0.0004168 -0.0007678 -0.0004155 -0.0014444 -0.0001462 0.0022513 -0.0002171 -0.0002315 0.0001188 0.0007838 0.0003250 0.0015333 -0.0001342 0.0000047 0.0000837 0.0001826 0.0000190 -0.0001193 0.0001880 0.0005047 0.0000128 0.0000065 0.0012894 0.0025809 0.0001911 0.0012680 0.0013014 0.0022591 0.0001083 -0.0002121 0.0001066 0.0000544 -0.0003892 -0.0017552 -0.0000878 0.0000642 -0.0000095 -0.0002319 -0.0000866 -0.0001692 -0.0014070 -0.0032819 -0.0000895 -0.0001311 0.0002593 0.0016096 -0.0020492 -0.0049246 0.0002861 0.0014941 -0.0000764 0.0003287 -0.0001260 0.0002733 0.0000302 0.0003740 0.0003040 0.0012308 -0.0071438 0.0031497 0.0001456 0.0008820 0.0000780 0.0005453 0.0001910 0.0007102 -0.0001003 0.0005639
0.0002052 0.0005160 0.0000544 -0.0024796 0.0001842 0.0002394 -0.0001043 -0.0007179 0.0001873 0.0002321 0.0001680 -0.0006733 -0.0001665 -0.0008970 0.0000776 -0.0000271 -0.0001005 -0.0001135 -0.0000575 0.0000580 0.0002687 0.0012921 0.0002026 0.0007301 -0.0001675 0.0002592 -0.0002818 -0.0001396 -0.0001768 0.0003844 -0.0002977 0.0005935 -0.0001506 0.0003766 -0.0001740 -0.0006003 -0.0000937 0.0001113 -0.0002578 0.0003478 0.0000270 0.0006669 0.0000077 -0.0009577 0.0001261 -0.0001602 0.0004198 0.0002530 0.0008775 -0.0065058 0.0008780 0.0010030 -0.0004787 0.0001653 0.0013361 0.0016080 0.0000898 0.0004722 -0.0003345 0.0012880 0.0084015 -0.0142104 -0.0013722 -0.0021619 0.0000771 0.0013549 -0.0002153 0.0015425 -0.0001023 0.0006467 -0.0000296 0.0000711 -0.0006622 -0.0009823 -0.0004119 -0.0013523 -0.0001732 0.0032634 -0.0001842 0.0001925 0.0001790 0.0011312 0.0003017 0.0016922 -0.0001394 0.0002635 0.0000348 0.0000978 0.0000650 0.0001759 0.0002612 0.0008333 -0.0000015 0.0001068 0.0016370 0.0034948 0.0002761 0.0015625 0.0013066 0.0020715 0.0001156 0.0000200 0.0001145 0.0001949 -0.0004355 -0.0016024 -0.0000896 0.0001306 -0.0000295 -0.0001614 -0.0000980 -0.0001019 -0.0014111 -0.0030672 -0.0001061 -0.0000830 0.0000951 0.0011947 -0.0003431 -0.0046509 0.0001262 0.0011991 -0.0000895 0.0003004 -0.0000625 0.0004965 0.0001012 0.0003715 0.0002333 0.0010358 -0.0020007 -0.0012482 0.0000976 0.0007716 0.0000781 0.0005801 0.0001263 0.0007897 -0.0000709 0.0005581
0.0002247 0.0003832 0.0000904 -0.0019707 0.0000980 0.0000850 -0.0001222 -0.0007744 0.0001187 0.0002167 0.0000829 -0.0006428 -0.0001121 -0.0008208 0.0000611 -0.0000974 -0.0001137 -0.0001150 -0.0000830 0.0000346 0.0002072 0.0010493 0.0001153 0.0005775 -0.0001910 0.0001763 -0.0003275 -0.0001426 -0.0001806 0.0004372 -0.0002855 0.0007153 -0.0001615 0.0005493 -0.0002087 -0.0004531 -0.0001086 0.0003698 -0.0002493 0.0004403 0.0000147 0.0006885 0.0000093 -0.0007324 0.0001255 0.0000425 0.0006982 0.0002157 0.0021849 -0.0035674 0.0011191 0.0008809 -0.0004463 0.0000573 0.0011120 0.0020551 -0.0000542 0.0001036 -0.0006013 0.0008627 0.0044778 -0.0048989 -0.0013929 -0.0030354 0.0000869 0.0015424 0.0020016 -0.0044041 -0.0001009 0.0004637 -0.0000699 -0.0002558 -0.0003491 -0.0005792 -0.0003362 -0.0011912 -0.0002814 0.0027711 -0.0001446 0.0003479 0.0002618 0.0011290 0.0003201 0.0017074 -0.0001392 0.0002363 -0.0000724 -0.0004011 0.0001020 0.0001458 0.0003156 0.0009072 -0.0000737 0.0001036 0.0018118 0.0037176 0.0003071 0.0012630 0.0012084 0.0023025 0.0000972 -0.0000736 0.0001361 0.0001522 -0.0003956 -0.0014532 -0.0001143 0.0000322 -0.0000472 -0.0002217 -0.0000835 -0.0001289 -0.0011947 -0.0028919 -0.0001100 -0.0001579 0.0000904 0.0006943 -0.0009760 -0.0040127 0.0000471 0.0007866 -0.0000744 0.0000898 -0.0000565 0.0004929 -0.0000786 0.0004747 0.0002113 0.0008040 0.0000018 -0.0024802 0.0000898 0.0005969 0.0000381 0.0004611 0.0001308 0.0006106 -0.0000673 0.0004344
0.0002504 0.0002229 0.0001072 -0.0016413 0.0000841 -0.0000640 -0.0001415 -0.0008588 0.0001388 0.0001080 0.0000119 -0.0005909 -0.0000979 -0.0007589 0.0000323 -0.0001249 -0.0001352 -0.0001441 -0.0001200 -0.0000028 0.0001641 0.0008733 0.0001303 0.0004832 -0.0001733 0.0000784 -0.0003352 -0.0001398 -0.0001797 0.0003995 -0.0002709 0.0005814 -0.0001552 0.0005861 -0.0002326 -0.0004302 -0.0001364 0.0003685 -0.0001984 0.0004022 0.0000375 0.0005597 0.0000140 -0.0006812 0.0001265 0.0000942 0.0010560 0.0005953 0.0030126 0.0012429 0.0019285 0.0008580 -0.0003905 -0.0001537 0.0015099 0.0024398 -0.0002591 -0.0005064 -0.0004398 0.0002319 -0.0039496 -0.0002791 -0.0010472 -0.0030262 0.0000936 0.0012364 -0.0001575 -0.0034637 0.0000143 0.0003609 -0.0000812 -0.0007646 0.0001184 -0.0000976 -0.0002763 -0.0011717 -0.0003355 0.0016559 -0.0000862 0.0003031 0.0002983 0.0009474 0.0003577 0.0015838 -0.0001090 0.0001060 -0.0000761 -0.0005200 0.0001125 0.0000746 0.0003334 0.0008269 -0.0000615 -0.0000362 0.0017498 0.0034604 0.0002721 0.0008588 0.0011787 0.0019248 0.0000974 -0.0002658 0.0001094 0.0000476 -0.0003863 -0.0016329 -0.0001350 -0.0000796 -0.0000290 -0.0003315 -0.0000804 -0.0001668 -0.0012068 -0.0029159 -0.0001160 -0.0002467 0.0000261 0.0007233 -0.0042204 -0.0017663 0.0000906 0.0008392 -0.0001109 0.0002431 -0.0000563 0.0005291 -0.0000551 0.0004547 0.0001649 0.0010139 -0.0044313 0.0025609 0.0000773 0.0006489 0.0000111 0.0005695 0.0001452 0.0007170 -0.0000690 0.0005631
0.0002729 0.0000345 0.0001126 -0.0016235 0.0001089 -0.0002586 -0.0001296 -0.0008905 0.0001309 0.0000633 0.0000235 -0.0006265 -0.0000871 -0.0006187 -0.0000049 -0.0001112 -0.0000970 -0.0001642 -0.0000877 -0.0001530 0.0001477 0.0006057 0.0004583 0.0013481 -0.0001264 0.0000142 -0.0003143 -0.0000102 -0.0001578 0.0003446 -0.0002783 0.0005546 -0.0001003 0.0007455 -0.0002988 -0.0005072 -0.0001159 0.0001956 -0.0001550 0.0003580 0.0000549 0.0002858 0.0000370 -0.0005811 0.0001358 0.0000539 0.0021626 0.0022645 0.0043957 0.0071107 0.0026039 0.0019436 -0.0003669 -0.0000890 0.0021270 0.0033591 -0.0004479 -0.0009273 -0.0006328 0.0002009 0.0064396 -0.0107406 -0.0009569 -0.0029139 0.0000445 0.0012289 -0.0033934 0.0012132 0.0000838 0.0007306 -0.0000579 -0.0006667 0.0001012 -0.0000930 -0.0002524 -0.0009721 -0.0003122 0.0012862 -0.0000474 0.0005719 0.0002729 0.0010215 0.0003142 0.0014884 -0.0001039 0.0003213 -0.0000551 -0.0003312 0.0001021 0.0003519 0.0003538 0.0009924 0.0000534 0.0000490 0.0016285 0.0030913 0.0002323 0.0006956 0.0010269 0.0020232 0.0000912 -0.0000659 0.0000815 0.0002197 -0.0003697 -0.0015186 -0.0002050 0.0000811 -0.0000176 -0.0001365 -0.0000713 -0.0000419 -0.0010906 -0.0027444 -0.0001165 -0.0001402 -0.0000835 0.0007320 -0.0017838 -0.0027590 0.0000366 0.0010302 -0.0000843 0.0005027 -0.0000453 0.0007477 0.0000607 0.0004956 0.0000964 0.0009925 -0.0038780 0.0012608 0.0000147 0.0009010 -0.0000331 0.0008296 0.0002054 0.0007940 -0.0000282 0.0006830
0.0003145 -0.0001261 0.0001626 -0.0008156 0.0000361 -0.0004530 -0.0001349 -0.0007407 0.0000982 0.0000887 -0.0000277 -0.0004948 -0.0000570 -0.0004228 -0.0000713 -0.0001315 -0.0000804 0.0000365 -0.0001147 -0.0000926 0.0000774 0.0004797 0.0004235 0.0016103 -0.0001506 -0.0000368 -0.0003285 0.0001140 -0.0001804 0.0003819 -0.0003012 0.0006480 -0.0001228 0.0009673 -0.0003206 -0.0003773 -0.0001282 0.0004047 -0.0001265 0.0004984 0.0000279 0.0003105 0.0000609 -0.0003268 0.0000890 0.0000941 0.0016246 0.0009461 0.0033852 0.0085957 0.0007292 0.0010209 -0.0004272 -0.0001618 0.0004627 0.0013112 -0.0005337 -0.0010410 -0.0005917 0.0000074 0.0070449 0.0001894 -0.0014477 -0.0022343 -0.0000228 0.0014974 -0.0058419 0.0029298 0.0001088 0.0012092 -0.0000234 -0.0005217 0.0000485 0.0000246 -0.0002030 -0.0007042 -0.0002627 0.0008720 -0.0000230 0.0006742 0.0002637 0.0010297 0.0002751 0.0013546 -0.0001017 0.0004340 -0.0000024 -0.0002722 0.0001294 0.0004440 0.0003619 0.0010786 0.0000359 0.0001056 0.0015258 0.0027683 0.0002124 0.0005511 0.0009060 0.0022639 0.0000652 -0.0000282 0.0001019 0.0003226 -0.0003116 -0.0014145 -0.0001714 0.0001226 -0.0000218 0.0000190 -0.0000337 0.0000354 -0.0008869 -0.0025735 -0.0001003 -0.0000846 -0.0001479 0.0005605 0.0014263 -0.0040265 -0.0000276 0.0007958 0.0000226 0.0003782 0.0000078 0.0007979 -0.0000200 0.0005660 -0.0000303 0.0004028 0.0012213 -0.0030222 0.0000347 0.0008460 -0.0000438 0.0008544 0.0002713 0.0006642 0.0000124 0.0006218
0.0003339 -0.0003429 0.0002078 0.0005428 -0.0001588 -0.0007895 -0.0002149 -0.0007592 0.0000446 -0.0001613 -0.0001314 -0.0003468 -0.0000362 -0.0005809 -0.0001596 -0.0002250 -0.0001239 0.0001447 -0.0001877 0.0000317 0.0000239 0.0003838 -0.0001267 0.0003165 -0.0002573 -0.0002440 -0.0004648 -0.0001949 -0.0002281 0.0003394 -0.0002776 0.0006329 -0.0002331 0.0010192 -0.0002743 -0.0002005 -0.0002137 0.0007773 -0.0000896 0.0006598 -0.0000079 0.0004331 0.0000633 -0.0001362 0.0000228 0.0002375 -0.0019353 -0.0061342 -0.0016097 0.0037747 -0.0028080 -0.0034452 -0.0004316 -0.0001047 -0.0033097 -0.0039031 -0.0006940 -0.0011954 -0.0003349 -0.0000421 0.0069272 0.0050823 -0.0012565 -0.0013110 -0.0000483 0.0017449 -0.0080178 0.0068637 0.0001970 0.0016655 0.0000444 -0.0004480 0.0001194 0.0000187 -0.0001260 -0.0005330 -0.0001627 0.0004602 0.0000233 0.0006446 0.0002965 0.0010833 0.0002572 0.0011327 -0.0000549 0.0004341 0.0000368 -0.0002188 0.0001787 0.0004911 0.0003666 0.0010168 0.0000206 -0.0000558 0.0014583 0.0025775 0.0001799 0.0002635 0.0009371 0.0020330 0.0000417 -0.0001114 0.0000948 0.0002754 -0.0002670 -0.0015055 -0.0001238 0.0000778 -0.0000033 0.0000632 0.0000474 0.0001203 -0.0009391 -0.0026137 -0.0000524 -0.0000558 -0.0002085 0.0003663 -0.0004088 -0.0014342 -0.0000235 0.0004477 0.0000060 0.0002388 0.0001050 0.0007109 -0.0001435 0.0005678 -0.0001285 -0.0001955 -0.0004360 -0.0016742 0.0000123 0.0006517 -0.0000620 0.0007358 0.0002684 0.0006004 0.0000161 0.0005310
0.0003054 -0.0006310 0.0002218 0.0020888 -0.0005042 -0.0013489 -0.0003788 -0.0010592 -0.0000897 -0.0007256 -0.0001564 -0.0001258 -0.0000305 -0.0007691 -0.0001880 -0.0003012 -0.0001020 0.0002526 -0.0002270 0.0000410 -0.0000213 0.0001458 -0.0004383 -0.0005959 -0.0003428 -0.0004222 -0.0005883 -0.0004087 -0.0002262 0.0003195 -0.0001855 0.0007124 -0.0003284 0.0010430 -0.0001718 -0.0000207 -0.0002704 0.0009832 -0.0000212 0.0006658 -0.0000720 0.0002932 0.0000506 -0.0001282 0.0000277 0.0004257 -0.0080237 -0.0164934 -0.0077474 -0.0063391 -0.0064220 -0.0083708 -0.0003290 0.0001701 -0.0074672 -0.0083291 -0.0007942 -0.0014775 -0.0001217 0.0000091 0.0014687 0.0065721 0.0000943 -0.0011379 -0.0000228 0.0017704 -0.0011316 0.0010418 0.0004082 0.0019817 0.0001022 -0.0003308 0.0001332 -0.0000115 -0.0001021 -0.0004398 -0.0001003 0.0002966 0.0000647 0.0008451 0.0003265 0.0012953 0.0002433 0.0010564 -0.0000031 0.0006709 0.0000644 0.0000231 0.0001871 0.0007828 0.0003693 0.0010668 0.0000446 -0.0000541 0.0013331 0.0023797 0.0000936 0.0000910 0.0010477 0.0015029 0.0000035 0.0000909 0.0000594 0.0002709 -0.0003463 -0.0015850 -0.0001399 0.0001934 0.0000057 0.0001598 0.0000852 0.0002940 -0.0012633 -0.0027148 -0.0000269 0.0000733 -0.0002378 0.0004020 -0.0009170 0.0005288 -0.0000633 0.0006975 -0.0000444 0.0004504 0.0001117 0.0008689 -0.0000945 0.0006315 -0.0001699 -0.0004285 -0.0008369 -0.0027011 -0.0000787 0.0006686 -0.0000903 0.0007100 0.0002786 0.0007168 0.0000091 0.0006268
0.0003069 -0.0007266 0.0002323 0.0031967 -0.0007986 -0.0018336 -0.0004657 -0.0012577 -0.0001268 -0.0010973 -0.0000432 0.0000515 0.0000297 -0.0007637 -0.0001140 -0.0003155 -0.0000710 0.0003053 -0.0003161 -0.0000375 -0.0001101 -0.0001656 -0.0006108 -0.0010838 -0.0003933 -0.0005763 -0.0006544 -0.0004163 -0.0002050 0.0004182 -0.0001428 0.0007569 -0.0004028 0.0010369 -0.0001214 0.0001427 -0.0002928 0.0010435 0.0000075 0.0005442 -0.0001411 0.0000825 0.0000303 -0.0001771 0.0000437 0.0005426 -0.0112800 -0.0210147 -0.0095422 -0.0155713 -0.0079841 -0.0098961 -0.0002425 0.0004370 -0.0091227 -0.0103868 -0.0007479 -0.0013803 -0.0000144 0.0001765 -0.0022030 0.0055748 0.0001905 -0.0006797 -0.0000559 0.0019456 0.0007003 0.0003621 0.0006433 0.0021528 0.0001083 -0.0002085 0.0001481 0.0000012 -0.0001047 -0.0004046 -0.0000608 0.0001942 0.0000761 0.0009009 0.0003169 0.0013346 0.0002163 0.0009240 0.0000107 0.0008254 0.0000823 0.0001093 0.0001679 0.0008567 0.0003533 0.0010419 0.0000224 0.0001663 0.0011535 0.0020298 0.0000250 -0.0001311 0.0010752 0.0010688 0.0000036 0.0000886 0.0000208 0.0002268 -0.0004090 -0.0016981 -0.0001473 0.0002050 -0.0000018 0.0001034 0.0000731 0.0002965 -0.0014601 -0.0027996 -0.0000263 0.0000296 -0.0002190 0.0003584 0.0013639 -0.0002941 -0.0000821 0.0005673 -0.0000831 0.0003641 0.0000975 0.0006796 0.0000762 0.0004486 -0.0001569 -0.0005888 0.0034470 -0.0061635 -0.0000662 0.0005152 -0.0000761 0.0004206 0.0002438 0.0006349 0.0000193 0.0005323
0.0003374 -0.0005323 0.0001891 0.0031233 -0.0008508 -0.0018883 -0.0004702 -0.0012428 -0.0001077 -0.0010622 0.0000413 0.0000371 0.0000763 -0.0007167 -0.0000661 -0.0002277 -0.0000888 0.0002943 -0.0003555 -0.0000526 -0.0001212 -0.0002498 -0.0005539 -0.0010658 -0.0004284 -0.0006720 -0.0006834 -0.0003938 -0.0002238 0.0004141 -0.0001842 0.0006864 -0.0004055 0.0009543 -0.0001232 0.0000962 -0.0002997 0.0009818 -0.0000276 0.0004175 -0.0001292 0.0000279 0.0000073 -0.0002338 0.0000547 0.0005202 -0.0113834 -0.0205697 -0.0103159 -0.0150541 -0.0063097 -0.0115312 -0.0001918 0.0005165 -0.0087754 -0.0110203 -0.0006449 -0.0011544 -0.0003260 0.0004203 -0.0126801 0.0277264 -0.0011643 0.0004720 -0.0000966 0.0019915 -0.0035435 0.0054119 0.0006519 0.0021299 0.0001167 -0.0002514 0.0002070 -0.0001485 -0.0001021 -0.0004882 -0.0000147 -0.0000803 0.0001026 0.0007322 0.0003015 0.0011632 0.0001807 0.0005482 0.0000524 0.0007361 0.0000821 0.0000595 0.0001998 0.0007522 0.0003300 0.0009022 0.0001118 0.0002925 0.0009656 0.0015520 -0.0000440 -0.0005261 0.0010392 0.0007834 0.0000247 -0.0000809 -0.0000319 0.0001252 -0.0004205 -0.0018795 -0.0001586 0.0001362 -0.0000052 0.0000042 0.0000692 0.0002225 -0.0015495 -0.0028983 -0.0000166 -0.0001027 -0.0001479 0.0000831 -0.0000425 0.0004727 -0.0000957 0.0002444 -0.0000708 0.0001305 0.0001100 0.0003597 0.0000246 0.0003481 -0.0001057 -0.0007428 0.0002498 -0.0030879 -0.0000505 0.0003209 -0.0000963 0.0001456 0.0001941 0.0004465 0.0000165 0.0003271
0.0003465 -0.0004671 0.0001418 0.0024932 -0.0007859 -0.0018306 -0.0004950 -0.0013144 -0.0001275 -0.0010036 0.0000451 -0.0001156 0.0000190 -0.0007517 -0.0000628 -0.0002031 -0.0001293 0.0002205 -0.0003301 -0.0001211 -0.0001226 -0.0002373 -0.0005018 -0.0009336 -0.0004553 -0.0007298 -0.0006620 -0.0004579 -0.0002586 0.0002658 -0.0002410 0.0004763 -0.0003859 0.0008044 -0.0001548 -0.0000955 -0.0002898 0.0008233 -0.0000649 0.0002798 -0.0001093 0.0000450 -0.0000043 -0.0002808 0.0000535 0.0004284 -0.0115327 -0.0189733 -0.0106639 -0.0123651 -0.0069153 -0.0113119 -0.0001898 0.0004393 -0.0093907 -0.0106413 -0.0005655 -0.0010409 -0.0003208 0.0003554 -0.0267765 0.0448195 -0.0013201 0.0007838 -0.0001023 0.0020189 -0.0047393 0.0049758 0.0006049 0.0020585 0.0001668 -0.0002271 0.0002095 -0.0002795 -0.0000536 -0.0003351 0.0000888 -0.0003431 0.0001651 0.0007846 0.0002674 0.0010239 0.0000995 0.0001207 0.0000939 0.0008367 0.0001115 0.0001321 0.0002261 0.0009499 0.0003161 0.0008781 0.0001864 0.0004468 0.0007186 0.0010002 -0.0001614 -0.0008362 0.0010095 0.0005614 0.0000082 0.0001186 -0.0000375 0.0001504 -0.0004081 -0.0019492 -0.0001022 0.0001228 -0.0000093 0.0000699 0.0000514 0.0002573 -0.0015807 -0.0028091 -0.0000163 -0.0000670 -0.0000608 0.0001114 -0.0023832 0.0027201 -0.0000894 0.0006029 -0.0000238 0.0003284 0.0000381 0.0005711 -0.0000819 0.0004000 -0.0000856 -0.0007599 -0.0037132 0.0006204 -0.0000145 0.0003668 -0.0001620 0.0002180 0.0001641 0.0006528 0.0000015 0.0005105
0.0003643 -0.0003713 0.0001335 0.0023031 -0.0007445 -0.0017572 -0.0005503 -0.0013639 -0.0001107 -0.0009559 -0.0000309 -0.0002115 -0.0000383 -0.0008576 -0.0000696 -0.0001896 -0.0001729 0.0002049 -0.0003364 -0.0000664 -0.0001369 -0.0001003 -0.0005721 -0.0008532 -0.0004640 -0.0006900 -0.0006275 -0.0005302 -0.0003002 0.0001903 -0.0002876 0.0003184 -0.0004079 0.0007417 -0.0001793 -0.0001445 -0.0003094 0.0007964 -0.0001078 0.0002527 -0.0001055 0.0001428 -0.0000133 -0.0002713 0.0000263 0.0003751 -0.0109447 -0.0184608 -0.0110241 -0.0105935 -0.0092096 -0.0097669 -0.0002386 0.0003106 -0.0098533 -0.0103445 -0.0004374 -0.0008176 -0.0005695 0.0006726 -0.0378915 0.0381847 -0.0007450 0.0000275 -0.0000995 0.0018880 -0.0007582 -0.0013640 0.0006168 0.0018290 0.0001452 0.0001166 0.0001695 -0.0001942 0.0000382 0.0000582 0.0002448 -0.0002300 0.0001972 0.0009137 0.0002261 0.0010214 -0.0000107 -0.0001323 0.0000971 0.0009947 0.0001086 0.0002126 0.0002303 0.0010532 0.0003089 0.0009058 0.0002104 0.0005723 0.0006779 0.0007579 -0.0001300 -0.0007730 0.0010142 0.0009879 0.0000483 0.0002042 0.0000222 0.0000757 -0.0001974 -0.0013226 -0.0000536 0.0001416 -0.0000015 0.0000421 0.0000105 0.0001784 -0.0006516 -0.0023855 0.0000420 0.0001093 0.0001495 0.0001689 -0.0009298 0.0025336 -0.0000329 0.0005780 -0.0000044 0.0002874 0.0000080 0.0004032 -0.0000799 0.0002144 0.0000829 -0.0001703 0.0009295 -0.0014489 0.0000096 0.0002702 -0.0001100 0.0002718 0.0001214 0.0006755 0.0000382 0.0006830
0.0003628 -0.0003398 0.0001104 0.0017792 -0.0006771 -0.0017650 -0.0005373 -0.0014364 -0.0000819 -0.0010336 -0.0000270 -0.0003321 -0.0000481 -0.0009321 -0.0000759 -0.0002640 -0.0001814 0.0001459 -0.0003115 -0.0001316 -0.0001026 -0.0000000 -0.0004559 -0.0005600 -0.0004441 -0.0007487 -0.0006165 -0.0005577 -0.0003313 0.0000603 -0.0003329 0.0002425 -0.0003783 0.0005737 -0.0002434 -0.0002225 -0.0003088 0.0006407 -0.0001578 0.0001755 -0.0000642 0.0001000 -0.0000117 -0.0003438 0.0000261 0.0002089 -0.0112890 -0.0165599 -0.0110743 -0.0123834 -0.0087600 -0.0095796 -0.0002320 0.0002159 -0.0086691 -0.0107675 -0.0002813 -0.0005821 -0.0006839 0.0006028 -0.0042376 -0.0204237 -0.0005199 -0.0003231 -0.0001284 0.0017594 0.0008373 -0.0028283 0.0006260 0.0018075 -0.0000741 0.0002574 -0.0000053 -0.0001730 0.0000777 -0.0000845 0.0004023 0.0001426 0.0001921 0.0006931 0.0001960 0.0008785 -0.0000574 -0.0003654 0.0001042 0.0007549 0.0000614 0.0001102 0.0002709 0.0008964 0.0003145 0.0009474 0.0002323 0.0004607 0.0009090 0.0009518 0.0000551 -0.0005365 0.0010042 0.0015704 0.0001333 0.0001025 0.0000558 -0.0000790 0.0000849 -0.0006277 0.0000006 0.0001053 0.0000180 -0.0000514 -0.0000366 -0.0000413 0.0004502 -0.0026612 0.0000773 0.0001190 0.0003649 0.0001598 0.0016262 0.0012148 0.0000414 0.0003700 -0.0000555 0.0000995 0.0000046 -0.0000851 -0.0001882 0.0001121 0.0003323 0.0009538 -0.0012988 0.0017689 -0.0000020 0.0000851 -0.0000260 0.0003363 0.0000289 0.0006343 0.0001400 0.0008661
0.0003412 -0.0002191 0.0000952 0.0010962 -0.0005976 -0.0016237 -0.0004855 -0.0013486 -0.0000823 -0.0008511 -0.0000281 -0.0003898 -0.0000986 -0.0008331 -0.0001081 -0.0002494 -0.0001806 0.0001934 -0.0002865 -0.0001417 -0.0001036 0.0001746 -0.0004176 -0.0001981 -0.0004222 -0.0008409 -0.0006329 -0.0005683 -0.0003433 -0.0000050 -0.0003408 0.0002720 -0.0003770 0.0005160 -0.0003028 -0.0001901 -0.0002821 0.0006106 -0.0001772 0.0002040 -0.0000624 0.0001589 -0.0000075 -0.0003585 0.0000196 0.0001638 -0.0122951 -0.0145385 -0.0109271 -0.0129650 -0.0086495 -0.0088661 -0.0002484 0.0001013 -0.0079264 -0.0105995 -0.0002769 -0.0006084 -0.0000603 -0.0003984 -0.0045849 -0.0026138 -0.0000360 -0.0007222 -0.0001477 0.0017247 -0.0014627 0.0034339 0.0006846 0.0018657 -0.0003297 0.0001602 -0.0001764 -0.0003048 0.0000567 -0.0004820 0.0004485 0.0006023 0.0001900 0.0005561 0.0001881 0.0009289 0.0000099 -0.0002250 0.0000813 0.0005614 0.0000436 0.0000946 0.0002846 0.0008668 0.0003732 0.0011642 0.0001392 0.0004287 0.0012796 0.0017588 0.0002287 -0.0001907 0.0010234 0.0014061 0.0002614 0.0001445 0.0000937 -0.0001245 0.0002385 -0.0002848 0.0000552 -0.0000665 0.0000378 -0.0000247 -0.0000996 -0.0002752 0.0009851 -0.0036518 0.0001120 -0.0002426 0.0004844 0.0004981 0.0008438 0.0022807 0.0001139 0.0008373 -0.0000420 0.0002293 -0.0000537 -0.0002029 -0.0002102 0.0001800 0.0004854 0.0020005 -0.0024596 0.0032250 -0.0000893 0.0000407 -0.0000456 0.0005862 -0.0001054 0.0007134 0.0001772 0.0013516
0.0003516 -0.0002162 0.0000992 0.0012584 -0.0006095 -0.0017323 -0.0004914 -0.0013673 -0.0000636 -0.0009359 -0.0001054 -0.0003970 -0.0000831 -0.0009014 -0.0001499 -0.0003935 -0.0001786 0.0001544 -0.0003212 -0.0002268 -0.0001071 0.0000803 -0.0004780 -0.0003533 -0.0004276 -0.0009818 -0.0006585 -0.0007404 -0.0003498 -0.0000982 -0.0003153 0.0002492 -0.0004268 0.0003703 -0.0002566 -0.0002319 -0.0002827 0.0006055 -0.0001443 0.0001793 -0.0000779 0.0000939 0.0000032 -0.0003877 -0.0000192 0.0001448 -0.0114309 -0.0149074 -0.0107379 -0.0100128 -0.0074798 -0.0092220 -0.0002675 -0.0001710 -0.0085663 -0.0097646 -0.0003916 -0.0009385 -0.0000258 -0.0004571 0.0070469 -0.0155536 0.0002425 -0.0006717 -0.0001394 0.0016611 -0.0036455 0.0058154 0.0006786 0.0020386 -0.0004848 0.0001452 -0.0002420 -0.0004315 0.0000197 -0.0005311 0.0003821 0.0011111 0.0001764 0.0006126 0.0002416 0.0012274 0.0000713 0.0001189 0.0000153 0.0005565 0.0000333 0.0001493 0.0002796 0.0007890 0.0004024 0.0013478 0.0000514 0.0003928 0.0015871 0.0026424 0.0003266 0.0000121 0.0009979 0.0014173 0.0003709 0.0000776 0.0001093 -0.0001877 0.0002468 -0.0002143 0.0001574 -0.0002299 0.0000670 -0.0000233 -0.0000228 -0.0003092 0.0010861 -0.0042306 0.0001845 -0.0007068 0.0006645 0.0005929 -0.0009801 0.0033713 0.0001243 0.0007985 -0.0000123 0.0001768 -0.0000744 -0.0003463 0.0000541 -0.0000676 0.0006067 0.0026152 -0.0009999 0.0005294 -0.0002892 -0.0002990 -0.0000066 0.0005898 -0.0002667 0.0002738 0.0001719 0.0014528
0.0003724 -0.0003508 0.0001193 0.0018647 -0.0006630 -0.0020014 -0.0005031 -0.0014061 -0.0000592 -0.0010703 -0.0001040 -0.0004144 -0.0000237 -0.0010267 -0.0001322 -0.0005803 -0.0001727 0.0001808 -0.0004076 -0.0002607 -0.0001424 -0.0000698 -0.0005470 -0.0007115 -0.0004562 -0.0010492 -0.0006794 -0.0009308 -0.0003452 -0.0000783 -0.0002763 0.0002169 -0.0004787 0.0003105 -0.0002166 -0.0002162 -0.0002927 0.0006804 -0.0001352 0.0002186 -0.0001050 0.0000940 0.0000059 -0.0003391 -0.0000356 0.0001715 -0.0109660 -0.0157552 -0.0100776 -0.0086268 -0.0067967 -0.0094985 -0.0002684 -0.0002868 -0.0093309 -0.0092028 -0.0004952 -0.0012211 -0.0004220 -0.0001786 0.0142057 -0.0332374 0.0004376 -0.0003755 -0.0001346 0.0016448 -0.0023828 0.0049310 0.0006844 0.0022339 -0.0004859 0.0000358 -0.0002628 -0.0005179 -0.0000411 -0.0006522 0.0004532 0.0011533 0.0002431 0.0006583 0.0002931 0.0012992 0.0000045 -0.0001887 -0.0000080 0.0003631 0.0000840 0.0002509 0.0002404 0.0006654 0.0004253 0.0012960 0.0001279 0.0002743 0.0012787 0.0028558 -0.0000618 -0.0006545 0.0003266 -0.0028157 0.0003656 -0.0002416 0.0001206 -0.0002265 -0.0002062 -0.0019596 0.0001232 -0.0005943 0.0000710 -0.0000677 0.0000838 -0.0002844 -0.0001180 -0.0052385 0.0001042 -0.0012770 0.0007797 0.0002205 -0.0012946 0.0032446 0.0001187 0.0003413 0.0000030 0.0000372 -0.0000235 -0.0005291 0.0001033 -0.0002157 0.0006380 0.0027589 -0.0014558 -0.0010266 -0.0003615 -0.0006736 0.0000666 0.0003777 -0.0003798 -0.0000853 0.0001842 0.0012448
0.0003747 -0.0004232 0.0001221 0.0022132 -0.0007030 -0.0021449 -0.0004821 -0.0014400 -0.0000076 -0.0012139 -0.0000235 -0.0004681 -0.0000129 -0.0010472 -0.0001552 -0.0006824 -0.0001576 0.0002246 -0.0004452 -0.0003068 -0.0002044 -0.0001435 -0.0005650 -0.0008921 -0.0004480 -0.0011628 -0.0006837 -0.0010564 -0.0003409 -0.0000974 -0.0002231 0.0001459 -0.0004938 0.0002485 -0.0001806 -0.0002562 -0.0003006 0.0006848 -0.0001499 0.0002081 -0.0001275 0.0000237 0.0000088 -0.0003207 -0.0000232 0.0001463 -0.0116844 -0.0156785 -0.0097961 -0.0084424 -0.0091489 -0.0079687 -0.0002423 -0.0003025 -0.0087076 -0.0099366 -0.0005351 -0.0013567 -0.0002280 -0.0005489 0.0124279 -0.0258222 0.0003354 -0.0003545 -0.0001134 0.0016129 -0.0017495 0.0044265 0.0007188 0.0021662 -0.0004312 0.0000011 -0.0002532 -0.0006033 -0.0001678 -0.0010329 0.0005652 0.0013191 0.0003366 0.0007511 0.0003399 0.0013152 -0.0001135 -0.0007082 0.0000290 0.0002709 0.0001823 0.0004273 0.0002446 0.0007474 0.0004616 0.0012369 0.0001626 0.0002280 0.0008320 0.0025876 -0.0004392 -0.0010965 -0.0000794 -0.0073174 0.0003612 -0.0003435 0.0001509 -0.0002660 -0.0005017 -0.0031383 0.0000076 -0.0008940 0.0000635 -0.0001237 0.0000696 -0.0002756 -0.0003996 -0.0051869 -0.0000329 -0.0014131 0.0008504 0.0001439 0.0004787 0.0019828 0.0001218 0.0005330 0.0000170 0.0001826 -0.0000087 -0.0004731 -0.0000285 -0.0000911 0.0005391 0.0027768 -0.0002806 -0.0002870 -0.0002879 -0.0006639 0.0000458 0.0004045 -0.0004930 -0.0000102 0.0001877 0.0014719
0.0003695 -0.0004369 0.0001129 0.0021565 -0.0006692 -0.0020981 -0.0004279 -0.0014370 -0.0000236 -0.0011551 -0.0000083 -0.0004480 0.0000064 -0.0010622 -0.0001437 -0.0007449 -0.0001445 0.0002396 -0.0004426 -0.0003542 -0.0002346 -0.0001995 -0.0005195 -0.0009808 -0.0004316 -0.0011755 -0.0006976 -0.0010827 -0.0003144 -0.0000456 -0.0002421 0.0001386 -0.0005134 0.0002440 -0.0002030 -0.0002164 -0.0002989 0.0006588 -0.0001528 0.0002327 -0.0001109 0.0000330 0.0000110 -0.0002271 -0.0000070 0.0001676 -0.0110842 -0.0157557 -0.0102361 -0.0077850 -0.0098075 -0.0072054 -0.0002305 -0.0002561 -0.0086821 -0.0099227 -0.0005220 -0.0014396 0.0003328 -0.0010490 0.0156526 -0.0242670 -0.0001312 -0.0001322 -0.0000766 0.0015920 -0.0036039 0.0051216 0.0006742 0.0021178 -0.0005700 -0.0008780 -0.0004920 -0.0013521 -0.0002689 -0.0011932 0.0003827 0.0014543 0.0002948 0.0004606 0.0003668 0.0013296 -0.0002052 -0.0009899 -0.0000661 0.0000517 0.0000730 0.0001640 0.0002748 0.0009379 0.0003299 0.0009739 -0.0000263 -0.0000435 0.0016336 0.0021428 0.0007260 0.0007575 0.0012736 0.0074426 0.0009746 -0.0002980 0.0004726 -0.0005425 0.0017276 0.0038942 0.0002924 -0.0011882 0.0002753 -0.0000752 0.0003970 0.0000348 0.0000047 -0.0048423 -0.0002910 -0.0014736 0.0009050 0.0002648 0.0006873 0.0019711 0.0001093 0.0003718 -0.0000069 0.0001189 -0.0000935 -0.0008928 -0.0000618 -0.0004595 0.0004824 0.0028204 0.0006955 -0.0004298 -0.0004783 -0.0010402 0.0000308 0.0003969 -0.0008261 -0.0006091 0.0002157 0.0017578
0.0003651 -0.0004114 0.0001068 0.0020559 -0.0006055 -0.0019602 -0.0003912 -0.0013632 -0.0001202 -0.0009797 -0.0000327 -0.0004287 0.0000461 -0.0010191 -0.0000576 -0.0007688 -0.0001432 0.0002409 -0.0004409 -0.0003942 -0.0002368 -0.0002844 -0.0004952 -0.0010350 -0.0004086 -0.0011432 -0.0006725 -0.0010527 -0.0002665 0.0000293 -0.0002590 0.0001309 -0.0005208 0.0002168 -0.0002270 -0.0002028 -0.0002980 0.0006005 -0.0001322 0.0001976 -0.0000901 -0.0000105 0.0000133 -0.0001860 0.0000275 0.0001381 -0.0098882 -0.0161869 -0.0104659 -0.0080838 -0.0080740 -0.0085384 -0.0002454 -0.0001880 -0.0096380 -0.0087809 -0.0005311 -0.0015259 0.0003125 -0.0011215 0.0159345 -0.0270523 -0.0003702 0.0001351 -0.0000391 0.0014915 -0.0013937 0.0030040 0.0006664 0.0019487 -0.0000232 -0.0027380 -0.0005415 -0.0035556 -0.0002573 -0.0010283 -0.0000030 0.0004553 0.0000765 -0.0001575 0.0004423 0.0014725 -0.0002495 -0.0009750 -0.0007124 -0.0011139 -0.0001538 -0.0003686 0.0001546 0.0017059 -0.0004148 -0.0007318 -0.0000940 -0.0003399 0.0031197 0.0032088 0.0030003 0.0071446 0.0012508 0.0191700 0.0009840 -0.0022435 0.0009547 -0.0002343 0.0034682 0.0095531 -0.0001824 -0.0035322 0.0013350 0.0004214 0.0007443 -0.0003165 -0.0009934 -0.0076538 -0.0004819 -0.0018330 0.0008830 0.0004730 -0.0006439 0.0024269 0.0001407 -0.0000153 0.0000261 -0.0000121 -0.0001416 -0.0014572 -0.0001462 -0.0008715 0.0005010 0.0027677 0.0022208 -0.0021221 -0.0007352 -0.0015573 0.0000945 0.0003949 -0.0010862 -0.0012587 0.0002274 0.0017950
0.0003594 -0.0003970 0.0000939 0.0019330 -0.0005436 -0.0018260 -0.0003499 -0.0012785 -0.0000717 -0.0010100 -0.0000073 -0.0004503 0.0000635 -0.0009282 -0.0000682 -0.0007223 -0.0001425 0.0001988 -0.0004053 -0.0004466 -0.0002353 -0.0003980 -0.0005197 -0.0010434 -0.0003865 -0.0010450 -0.0006495 -0.0009906 -0.0002354 0.0000913 -0.0002552 0.0001054 -0.0004919 0.0002301 -0.0002379 -0.0001615 -0.0002924 0.0005713 -0.0001169 0.0001830 -0.0001080 -0.0000046 0.0000155 -0.0000340 0.0000417 0.0002347 -0.0095435 -0.0160436 -0.0105386 -0.0085200 -0.0056431 -0.0106475 -0.0001817 -0.0001783 -0.0086696 -0.0090355 -0.0005380 -0.0015319 -0.0001616 -0.0007547 0.0188595 -0.0498282 -0.0000873 -0.0002160 -0.0000635 0.0014610 0.0009340 -0.0009686 0.0007117 0.0018121 0.0006695 -0.0031217 -0.0002019 -0.0046506 -0.0001757 -0.0008647 0.0000912 0.0003063 0.0000174 -0.0000531 0.0005718 0.0017551 -0.0003739 -0.0010517 -0.0012853 -0.0020488 0.0000151 -0.0000646 0.0000770 0.0021893 -0.0007122 -0.0016313 -0.0000248 -0.0001845 0.0033110 0.0050308 0.0024331 0.0066979 -0.0004724 0.0143076 0.0006355 -0.0042416 0.0011632 0.0002188 0.0022249 0.0044845 -0.0010569 -0.0056427 0.0016715 0.0006895 0.0008110 -0.0008062 -0.0020744 -0.0104253 -0.0004554 -0.0027239 0.0009040 0.0005785 0.0008376 0.0010424 0.0001509 0.0001796 0.0001313 0.0002271 -0.0000493 -0.0013232 -0.0000898 -0.0007790 0.0004504 0.0026582 -0.0008563 -0.0007880 -0.0007963 -0.0016467 0.0000859 0.0005025 -0.0010250 -0.0012169 0.0002203 0.0016482
0.0003498 -0.0003759 0.0000780 0.0018300 -0.0004745 -0.0017191 -0.0003010 -0.0012003 -0.0000322 -0.0010601 0.0000418 -0.0004924 0.0000553 -0.0008118 -0.0000796 -0.0006825 -0.0001581 0.0001716 -0.0003949 -0.0004547 -0.0001929 -0.0005055 -0.0004948 -0.0010075 -0.0003804 -0.0009574 -0.0005998 -0.0009771 -0.0002062 0.0001412 -0.0002418 0.0000686 -0.0004927 0.0001650 -0.0002216 -0.0002259 -0.0002772 0.0004847 -0.0001245 0.0001284 -0.0001128 -0.0000710 0.0000292 -0.0000785 0.0000543 0.0001970 -0.0096728 -0.0156892 -0.0108617 -0.0078747 -0.0059234 -0.0098830 -0.0001369 -0.0002808 -0.0077030 -0.0094725 -0.0005191 -0.0016733 -0.0005134 -0.0003686 -0.0072555 -0.0079250 -0.0002483 -0.0004458 -0.0000813 0.0013773 -0.0005100 0.0003249 0.0006959 0.0017738 0.0007309 -0.0024251 -0.0000406 -0.0037567 -0.0001191 -0.0009843 0.0006365 0.0018424 0.0002144 0.0003849 0.0005946 0.0017521 -0.0003343 -0.0002311 -0.0013004 -0.0020126 0.0004026 0.0006105 -0.0000762 0.0015050 -0.0001404 -0.0006216 0.0001257 0.0000588 0.0027002 0.0065281 -0.0004303 0.0004094 -0.0006260 -0.0031775 0.0009555 -0.0041140 0.0014948 0.0002601 -0.0001113 -0.0055125 -0.0010547 -0.0054638 0.0009969 0.0005086 0.0008169 -0.0007533 -0.0029575 -0.0085649 -0.0004648 -0.0032608 0.0007871 0.0002850 -0.0000050 0.0014823 0.0001225 -0.0000089 0.0002201 0.0002175 0.0000649 -0.0012377 0.0001115 -0.0007613 0.0003732 0.0021302 -0.0023488 -0.0023565 -0.0007543 -0.0017835 0.0001059 0.0003935 -0.0009365 -0.0011823 0.0002209 0.0013959
0.0003599 -0.0004169 0.0000741 0.0018067 -0.0004116 -0.0016752 -0.0002595 -0.0011468 -0.0000102 -0.0011290 0.0000381 -0.0005255 0.0000621 -0.0007254 -0.0000293 -0.0007546 -0.0001512 0.0001163 -0.0003935 -0.0005515 -0.0001901 -0.0005836 -0.0004768 -0.0010643 -0.0003601 -0.0009547 -0.0005586 -0.0010029 -0.0001694 0.0001572 -0.0002039 0.0000183 -0.0004765 0.0000533 -0.0001810 -0.0003523 -0.0002468 0.0003820 -0.0001312 0.0000615 -0.0001091 -0.0001600 0.0000427 -0.0000820 0.0000675 0.0001530 -0.0098965 -0.0151275 -0.0112108 -0.0070717 -0.0068905 -0.0085820 -0.0001580 -0.0002042 -0.0078926 -0.0094980 -0.0005085 -0.0016472 -0.0005947 -0.0001495 -0.0160094 0.0046562 -0.0002716 -0.0001518 -0.0000644 0.0013256 -0.0012561 0.0009668 0.0006232 0.0018317 0.0007450 -0.0021013 0.0000225 -0.0032315 -0.0000996 -0.0011467 0.0008693 0.0025346 0.0003119 0.0004172 0.0005910 0.0016245 -0.0002124 0.0006576 -0.0013546 -0.0019967 0.0005812 0.0008511 -0.0002982 0.0009083 0.0001190 -0.0001864 0.0003411 0.0001418 0.0023723 0.0070473 -0.0011468 -0.0005950 -0.0008301 -0.0089559 0.0009633 -0.0041085 0.0018010 0.0004804 -0.0004676 -0.0078397 -0.0010045 -0.0055195 0.0007982 0.0004606 0.0007456 -0.0008509 -0.0032949 -0.0066884 -0.0004267 -0.0029153 0.0006330 0.0000214 -0.0015548 0.0020626 0.0001633 -0.0004614 0.0001566 0.0001381 0.0000684 -0.0012653 0.0001428 -0.0008283 0.0002703 0.0015559 -0.0025131 -0.0039005 -0.0006923 -0.0018241 0.0001411 0.0003207 -0.0008740 -0.0010519 0.0002227 0.0013439
0.0003686 -0.0004380 0.0000755 0.0017244 -0.0003569 -0.0015999 -0.0002344 -0.0010545 0.0000825 -0.0012206 0.0000132 -0.0004955 0.0000872 -0.0006807 0.0000051 -0.0008000 -0.0001375 0.0000849 -0.0003761 -0.0006125 -0.0002261 -0.0005660 -0.0004119 -0.0010623 -0.0003283 -0.0009821 -0.0005202 -0.0009531 -0.0001426 0.0001462 -0.0001831 -0.0000421 -0.0004673 -0.0000018 -0.0001527 -0.0004410 -0.0002311 0.0003184 -0.0001210 -0.0000017 -0.0000936 -0.0002232 0.0000567 -0.0001471 0.0000968 0.0000884 -0.0096648 -0.0152708 -0.0113230 -0.0072052 -0.0069928 -0.0085049 -0.0001630 -0.0003308 -0.0085511 -0.0091816 -0.0004948 -0.0016822 -0.0005447 -0.0003371 -0.0311048 0.0144802 0.0001025 -0.0002741 -0.0000712 0.0012288 -0.0019021 0.0012685 0.0006687 0.0016829 0.0006927 -0.0018695 -0.0000159 -0.0029460 -0.0001159 -0.0011366 0.0008257 0.0022493 0.0002838 0.0005225 0.0006104 0.0016976 -0.0002103 0.0006002 -0.0013572 -0.0018657 0.0006119 0.0009516 -0.0003047 0.0009337 0.0001436 -0.0000611 0.0003069 0.0002675 0.0022101 0.0064716 -0.0012903 -0.0011433 -0.0008554 -0.0088995 0.0009370 -0.0039499 0.0018299 0.0006908 -0.0004962 -0.0076667 -0.0010280 -0.0053398 0.0008214 0.0005221 0.0007041 -0.0007329 -0.0030884 -0.0060880 -0.0004073 -0.0027042 0.0006184 0.0000237 -0.0009938 0.0018494 0.0001697 -0.0005360 0.0001433 0.0001544 0.0000326 -0.0011845 0.0002639 -0.0009817 0.0001361 0.0010336 -0.0029116 -0.0042476 -0.0007085 -0.0017877 0.0001284 0.0002667 -0.0008396 -0.0009817 0.0002587 0.0013086
0.0003637 -0.0004683 0.0000681 0.0015994 -0.0003244 -0.0015610 -0.0001987 -0.0010360 0.0000752 -0.0012401 0.0000276 -0.0005435 0.0001340 -0.0006878 0.0000144 -0.0008591 -0.0001429 0.0000159 -0.0003586 -0.0006902 -0.0002113 -0.0006647 -0.0003567 -0.0011798 -0.0003133 -0.0010582 -0.0004896 -0.0009162 -0.0001203 0.0000668 -0.0001797 -0.0001440 -0.0004527 -0.0001240 -0.0001327 -0.0005121 -0.0002386 0.0002412 -0.0001090 -0.0000988 -0.0000613 -0.0003381 0.0000757 -0.0002223 0.0001290 -0.0000027 -0.0100946 -0.0148348 -0.0106690 -0.0078392 -0.0065461 -0.0086434 -0.0001673 -0.0004116 -0.0086423 -0.0087795 -0.0005080 -0.0016482 -0.0002386 -0.0004008 0.0000646 -0.0019470 -0.0001284 -0.0001645 -0.0000679 0.0013487 -0.0008160 0.0015817 0.0007014 0.0016402 0.0006275 -0.0020306 -0.0000145 -0.0028942 -0.0002201 -0.0014613 0.0006859 0.0015186 0.0002298 0.0003042 0.0006245 0.0016040 -0.0002357 0.0000110 -0.0013103 -0.0020300 0.0005098 0.0006145 -0.0002064 0.0008404 0.0000259 -0.0003762 0.0001588 0.0001327 0.0022284 0.0052300 -0.0010629 -0.0019856 -0.0004338 -0.0035661 0.0009398 -0.0038350 0.0017211 0.0006593 -0.0001187 -0.0054200 -0.0011287 -0.0050672 0.0008956 0.0004506 0.0007166 -0.0004119 -0.0017651 -0.0029933 -0.0002737 -0.0017877 0.0006249 0.0000156 -0.0002453 0.0019578 0.0002193 -0.0004710 0.0001423 0.0000714 0.0000415 -0.0013173 0.0002399 -0.0011442 0.0001379 0.0005360 0.0017016 -0.0077799 -0.0007340 -0.0016891 0.0001717 0.0001620 -0.0008196 -0.0009961 0.0003017 0.0012968
0.0003719 -0.0004461 0.0000671 0.0016221 -0.0002820 -0.0014846 -0.0001612 -0.0009671 0.0000892 -0.0011503 0.0000788 -0.0005045 0.0001766 -0.0006372 -0.0000049 -0.0009402 -0.0001379 -0.0000231 -0.0003345 -0.0007504 -0.0002059 -0.0007570 -0.0004075 -0.0013388 -0.0002999 -0.0011453 -0.0004547 -0.0008567 -0.0001110 0.0000107 -0.0001818 -0.0002658 -0.0004529 -0.0002138 -0.0001006 -0.0005213 -0.0002290 0.0001891 -0.0001130 -0.0001294 -0.0000535 -0.0003711 0.0000880 -0.0002472 0.0001478 -0.0000317 -0.0094085 -0.0151180 -0.0099214 -0.0077120 -0.0064982 -0.0083993 -0.0001128 -0.0005870 -0.0077370 -0.0091104 -0.0004871 -0.0017123 -0.0002372 -0.0004776 0.0043717 -0.0063614 -0.0002305 -0.0004994 -0.0000069 0.0011789 -0.0040266 0.0041909 0.0006185 0.0016189 0.0005888 -0.0024038 0.0000133 -0.0030347 -0.0004151 -0.0020512 0.0003821 0.0004732 0.0001723 -0.0000987 0.0006127 0.0013429 -0.0003088 -0.0007693 -0.0012794 -0.0023847 0.0003148 0.0001383 -0.0001436 0.0004734 -0.0001297 -0.0009385 0.0000381 -0.0001678 0.0023933 0.0034668 -0.0005392 -0.0025775 0.0004055 0.0046702 0.0009948 -0.0037517 0.0015119 0.0003127 0.0008745 -0.0010617 -0.0010656 -0.0048081 0.0009795 0.0002767 0.0007714 -0.0002051 -0.0000282 -0.0007234 -0.0001783 -0.0012346 0.0006885 0.0002234 -0.0010077 0.0027676 0.0003612 -0.0000825 0.0000564 0.0000810 -0.0000400 -0.0014950 -0.0000510 -0.0010244 0.0001894 0.0006975 0.0071164 -0.0101003 -0.0007354 -0.0013271 0.0001832 0.0002630 -0.0008252 -0.0007764 0.0003221 0.0015326
0.0003789 -0.0004911 0.0000671 0.0016045 -0.0002323 -0.0014740 -0.0000973 -0.0009507 0.0002251 -0.0012137 0.0001183 -0.0005161 0.0001706 -0.0005788 0.0000138 -0.0010716 -0.0001249 -0.0000938 -0.0003723 -0.0007953 -0.0002182 -0.0008488 -0.0003782 -0.0014730 -0.0002674 -0.0012219 -0.0004009 -0.0009539 -0.0000956 -0.0000320 -0.0001532 -0.0003549 -0.0004608 -0.0003118 -0.0000736 -0.0005624 -0.0002081 0.0001202 -0.0001168 -0.0001830 -0.0000411 -0.0004165 0.0001100 -0.0002988 0.0001523 -0.0000837 -0.0080128 -0.0160001 -0.0102986 -0.0069054 -0.0082205 -0.0066008 -0.0001041 -0.0007331 -0.0080699 -0.0087299 -0.0004720 -0.0017888 -0.0000358 -0.0009652 -0.0118237 0.0031866 -0.0001110 -0.0005395 0.0000068 0.0011911 -0.0087705 0.0081491 0.0005878 0.0016667 0.0005670 -0.0023960 -0.0000249 -0.0030427 -0.0005532 -0.0022828 0.0001602 0.0004621 0.0000860 -0.0001416 0.0005261 0.0012563 -0.0002835 -0.0006724 -0.0012766 -0.0023792 0.0001901 0.0000223 -0.0001697 0.0003231 -0.0002233 -0.0009916 -0.0000381 -0.0001359 0.0026864 0.0030196 -0.0000966 -0.0021145 0.0010501 0.0092086 0.0010397 -0.0035887 0.0013429 -0.0000753 0.0015867 0.0018023 -0.0006648 -0.0042049 0.0010749 0.0003240 0.0009065 -0.0000755 0.0008455 -0.0024351 -0.0000728 -0.0012870 0.0007855 0.0006361 -0.0007438 0.0024574 0.0004499 0.0002000 0.0000860 -0.0000917 -0.0001500 -0.0016445 -0.0000868 -0.0010612 0.0002908 0.0010242 0.0046222 -0.0052223 -0.0006906 -0.0012726 0.0002087 0.0002619 -0.0009130 -0.0008843 0.0003242 0.0016130
0.0003806 -0.0003755 0.0000605 0.0016792 -0.0002102 -0.0013303 -0.0000572 -0.0008186 0.0002323 -0.0011614 0.0000755 -0.0005494 0.0001952 -0.0005459 0.0000475 -0.0010454 -0.0001202 -0.0000236 -0.0003976 -0.0007201 -0.0002477 -0.0007558 -0.0004002 -0.0014985 -0.0002309 -0.0011301 -0.0003830 -0.0009977 -0.0000684 0.0000531 -0.0001599 -0.0002858 -0.0004392 -0.0003119 -0.0000799 -0.0004698 -0.0001863 0.0001742 -0.0001172 -0.0001551 -0.0000636 -0.0003146 0.0001142 -0.0002606 0.0001698 -0.0000663 -0.0087679 -0.0150945 -0.0104136 -0.0068248 -0.0069513 -0.0082987 -0.0001723 -0.0007031 -0.0082159 -0.0085607 -0.0004523 -0.0018492 0.0001169 -0.0013079 0.0023907 -0.0036593 0.0000968 -0.0006182 0.0000060 0.0011277 -0.0045990 0.0063453 0.0005314 0.0016264 0.0006926 -0.0024031 0.0000330 -0.0034074 -0.0003033 -0.0014733 0.0002559 0.0005918 0.0000666 -0.0003626 0.0004901 0.0009765 -0.0004199 -0.0010376 -0.0012777 -0.0027459 0.0002021 -0.0000945 -0.0001629 0.0001074 -0.0001578 -0.0007775 0.0000534 -0.0001422 0.0027607 0.0039938 -0.0001334 -0.0020914 0.0007123 0.0076556 0.0010034 -0.0038396 0.0012377 -0.0003473 0.0013407 0.0009816 -0.0001969 -0.0037831 0.0011620 0.0004384 0.0011020 0.0000203 0.0013039 -0.0037654 0.0001275 -0.0013621 0.0009464 0.0007756 -0.0002919 0.0018957 0.0005083 0.0003240 0.0001474 -0.0002242 -0.0001262 -0.0016912 -0.0000000 -0.0011155 0.0003601 0.0011618 -0.0008605 -0.0019864 -0.0006620 -0.0014108 0.0002444 0.0002201 -0.0009703 -0.0011017 0.0003188 0.0015368
0.0003814 -0.0003866 0.0000501 0.0016674 -0.0001998 -0.0012935 -0.0000264 -0.0008044 0.0002167 -0.0012395 0.0000654 -0.0006151 0.0002250 -0.0005677 0.0000722 -0.0010612 -0.0001169 -0.0000429 -0.0003452 -0.0008308 -0.0002241 -0.0008032 -0.0004005 -0.0015333 -0.0001924 -0.0011028 -0.0003733 -0.0010337 -0.0000487 0.0000903 -0.0001277 -0.0003205 -0.0004410 -0.0003520 -0.0000485 -0.0005189 -0.0001602 0.0001121 -0.0001164 -0.0002149 -0.0000772 -0.0003557 0.0001237 -0.0002961 0.0001864 -0.0001023 -0.0093322 -0.0146681 -0.0096477 -0.0078081 -0.0056800 -0.0095101 -0.0001862 -0.0007603 -0.0078346 -0.0090055 -0.0004306 -0.0019111 0.0001262 -0.0014005 -0.0025163 0.0109068 0.0000402 -0.0006603 0.0000443 0.0009918 -0.0039870 0.0051427 0.0005768 0.0014894 0.0008539 -0.0022786 0.0001018 -0.0036539 -0.0002937 -0.0015405 0.0003911 0.0006192 0.0000982 -0.0003798 0.0004869 0.0007675 -0.0004830 -0.0012055 -0.0012737 -0.0030876 0.0002644 -0.0001570 -0.0001489 -0.0000742 -0.0000530 -0.0006904 0.0001480 -0.0001419 0.0026845 0.0046230 -0.0003597 -0.0026311 -0.0000626 0.0037340 0.0008960 -0.0041458 0.0011832 -0.0002660 0.0008324 -0.0009042 -0.0001627 -0.0037026 0.0011825 0.0004986 0.0011891 0.0000748 0.0011872 -0.0041925 0.0002050 -0.0015525 0.0010885 0.0008290 -0.0016490 0.0027239 0.0005647 0.0007353 0.0000956 -0.0000012 -0.0000669 -0.0014317 0.0000960 -0.0009679 0.0002901 0.0011944 0.0031295 -0.0061916 -0.0006836 -0.0013240 0.0002696 0.0002604 -0.0009205 -0.0010201 0.0003081 0.0014823
0.0003800 -0.0004003 0.0000434 0.0015550 -0.0001741 -0.0011912 0.0000153 -0.0007468 0.0002336 -0.0011207 0.0000907 -0.0006176 0.0002169 -0.0004937 0.0000877 -0.0009936 -0.0000947 0.0000332 -0.0003639 -0.0007585 -0.0002066 -0.0007119 -0.0004323 -0.0013943 -0.0001916 -0.0009290 -0.0003744 -0.0009650 -0.0000340 0.0002622 -0.0000810 -0.0002884 -0.0004491 -0.0002058 -0.0000166 -0.0003732 -0.0001521 0.0002521 -0.0001243 -0.0001001 -0.0000621 -0.0001933 0.0001260 -0.0001959 0.0001874 0.0000127 -0.0088773 -0.0148321 -0.0088184 -0.0088761 -0.0070053 -0.0073457 -0.0001150 -0.0007761 -0.0086206 -0.0082600 -0.0004255 -0.0018813 0.0003579 -0.0017959 0.0013640 0.0051865 0.0000626 -0.0005434 0.0000422 0.0009718 -0.0005904 0.0036886 0.0006733 0.0013907 0.0008599 -0.0020261 0.0001441 -0.0034606 -0.0005353 -0.0023444 0.0001983 0.0012793 0.0000846 -0.0002687 0.0004937 0.0008162 -0.0001420 -0.0002434 -0.0012614 -0.0030954 0.0003070 -0.0001097 -0.0001557 -0.0001775 0.0000032 -0.0007160 0.0000858 -0.0000200 0.0025376 0.0048711 -0.0006832 -0.0033006 -0.0006236 -0.0010196 0.0007968 -0.0042943 0.0011773 -0.0000608 0.0003056 -0.0026363 -0.0004320 -0.0039113 0.0011716 0.0004191 0.0010935 -0.0001484 0.0003206 -0.0053636 0.0002558 -0.0022446 0.0010360 0.0006504 -0.0005436 0.0016052 0.0005175 0.0006017 0.0000781 0.0000156 -0.0000258 -0.0012450 0.0002084 -0.0009443 0.0002219 0.0009984 -0.0015731 -0.0020536 -0.0007499 -0.0013129 0.0002673 0.0002342 -0.0008964 -0.0009884 0.0003003 0.0013895
0.0003776 -0.0003871 0.0000350 0.0014942 -0.0001408 -0.0011481 0.0000289 -0.0007149 0.0002046 -0.0010891 0.0001076 -0.0006559 0.0002373 -0.0004678 0.0000830 -0.0009837 -0.0000938 0.0000201 -0.0003651 -0.0007598 -0.0002256 -0.0007363 -0.0004416 -0.0014314 -0.0001611 -0.0009196 -0.0003710 -0.0009724 -0.0000231 0.0002663 -0.0000895 -0.0002929 -0.0004436 -0.0002239 -0.0000154 -0.0003837 -0.0001398 0.0002355 -0.0001181 -0.0001363 -0.0000536 -0.0002154 0.0001301 -0.0001969 0.0001973 0.0000194 -0.0085833 -0.0145669 -0.0088893 -0.0088051 -0.0065919 -0.0077504 -0.0000996 -0.0007794 -0.0090593 -0.0072480 -0.0004255 -0.0018925 0.0002914 -0.0017559 0.0236828 -0.0324419 0.0003335 -0.0009439 0.0000226 0.0008961 -0.0027338 0.0052672 0.0005839 0.0014665 0.0008805 -0.0018935 0.0001933 -0.0034240 -0.0003900 -0.0019516 0.0000877 0.0017053 0.0000656 -0.0003973 0.0005081 0.0007457 -0.0000005 0.0002077 -0.0012276 -0.0031599 0.0003996 -0.0000033 -0.0001670 -0.0003913 0.0000790 -0.0006707 0.0001878 -0.0000620 0.0023120 0.0053676 -0.0011073 -0.0039482 -0.0009417 -0.0066784 0.0005449 -0.0045763 0.0010563 -0.0001180 -0.0004318 -0.0048950 -0.0006073 -0.0042946 0.0011423 0.0003245 0.0009893 -0.0004377 -0.0002259 -0.0066963 0.0002180 -0.0031982 0.0008466 0.0005271 0.0012505 0.0001017 0.0004413 0.0001959 0.0000970 -0.0000125 0.0000219 -0.0011799 0.0000468 -0.0008053 0.0001401 0.0007248 -0.0063173 0.0007521 -0.0007591 -0.0013555 0.0002081 0.0002543 -0.0009100 -0.0008691 0.0002734 0.0014037
0.0003610 -0.0003792 0.0000233 0.0014322 -0.0001296 -0.0010862 0.0000461 -0.0006887 0.0001669 -0.0010635 0.0000656 -0.0006529 0.0002463 -0.0004730 0.0000406 -0.0009887 -0.0001122 -0.0000174 -0.0003760 -0.0008112 -0.0002450 -0.0007914 -0.0004737 -0.0015732 -0.0001442 -0.0009154 -0.0003950 -0.0010240 -0.0000293 0.0002647 -0.0001101 -0.0002483 -0.0004651 -0.0001873 -0.0000246 -0.0003653 -0.0001343 0.0002619 -0.0001270 -0.0001187 -0.0000673 -0.0001673 0.0001221 0.0000005 0.0001741 0.0001492 -0.0085658 -0.0142309 -0.0096072 -0.0079993 -0.0057791 -0.0086339 -0.0001158 -0.0006626 -0.0087156 -0.0072741 -0.0004100 -0.0018012 0.0003057 -0.0014066 0.0083822 -0.0111199 -0.0000149 -0.0005496 0.0000420 0.0008513 -0.0084194 0.0060398 0.0004969 0.0015144 0.0008611 -0.0018067 0.0001909 -0.0033220 -0.0003883 -0.0019685 0.0001497 0.0019020 0.0000477 -0.0002421 0.0004733 0.0007683 -0.0000650 0.0001846 -0.0012143 -0.0029336 0.0004303 0.0001015 -0.0001531 -0.0003464 0.0000259 -0.0006371 0.0002426 -0.0001079 0.0022971 0.0047507 -0.0010109 -0.0039005 -0.0007374 -0.0043547 0.0003805 -0.0043970 0.0009028 -0.0002348 -0.0002248 -0.0040708 -0.0005809 -0.0041641 0.0011561 0.0004000 0.0010243 -0.0001705 0.0004497 -0.0061181 0.0001837 -0.0028959 0.0008191 0.0005523 -0.0007854 0.0017955 0.0004169 0.0000020 0.0000769 -0.0000469 0.0000131 -0.0012036 0.0000342 -0.0008825 0.0001196 0.0007632 -0.0029010 0.0003697 -0.0007166 -0.0014603 0.0001986 0.0001290 -0.0009268 -0.0009464 0.0002616 0.0013411
0.0003511 -0.0003438 0.0000280 0.0014329 -0.0001271 -0.0010290 0.0000669 -0.0006117 0.0000978 -0.0009884 0.0000321 -0.0006424 0.0002405 -0.0004971 0.0000655 -0.0010337 -0.0001123 -0.0000046 -0.0003900 -0.0008046 -0.0002221 -0.0007879 -0.0004326 -0.0015659 -0.0001553 -0.0008733 -0.0003951 -0.0010287 -0.0000263 0.0002722 -0.0001118 -0.0002289 -0.0004800 -0.0001492 0.0000232 -0.0003465 -0.0001284 0.0002860 -0.0001434 -0.0001147 -0.0000841 -0.0001495 0.0001197 0.0000457 0.0001787 0.0001764 -0.0089117 -0.0138343 -0.0087948 -0.0080010 -0.0064213 -0.0077258 -0.0000692 -0.0006702 -0.0086276 -0.0069390 -0.0004058 -0.0017639 0.0005398 -0.0013845 -0.0127223 0.0151449 -0.0001059 -0.0002563 0.0000266 0.0008081 -0.0035010 0.0024484 0.0005680 0.0013217 0.0007891 -0.0020289 0.0001635 -0.0032951 -0.0006297 -0.0027928 0.0000026 0.0016904 0.0000278 -0.0003309 0.0004596 0.0006375 -0.0000128 0.0001228 -0.0011889 -0.0029732 0.0003456 -0.0001318 -0.0001286 -0.0004587 -0.0001091 -0.0010191 0.0001442 -0.0003092 0.0024596 0.0033603 -0.0004697 -0.0034546 -0.0000339 0.0018642 0.0004463 -0.0042165 0.0008543 -0.0003564 0.0006212 -0.0009716 -0.0004831 -0.0039592 0.0012235 0.0004116 0.0010491 0.0000461 0.0010839 -0.0047734 0.0002291 -0.0021900 0.0008712 0.0004894 -0.0014914 0.0023086 0.0004066 -0.0001936 0.0000947 -0.0002532 0.0000146 -0.0013311 0.0001547 -0.0011310 0.0002519 0.0008899 -0.0037259 -0.0002478 -0.0007054 -0.0015544 0.0002191 -0.0000274 -0.0009544 -0.0011086 0.0002626 0.0012462
0.0003435 -0.0003420 0.0000322 0.0014391 -0.0001246 -0.0010048 0.0000995 -0.0005406 0.0001287 -0.0010477 0.0000214 -0.0006699 0.0002286 -0.0004950 0.0001168 -0.0010830 -0.0001132 0.0000018 -0.0003980 -0.0008126 -0.0002178 -0.0008194 -0.0003563 -0.0016037 -0.0001392 -0.0008371 -0.0003672 -0.0010931 0.0000026 0.0002628 -0.0000834 -0.0002672 -0.0004773 -0.0001498 0.0000371 -0.0003163 -0.0001248 0.0002910 -0.0001492 -0.0001597 -0.0000773 -0.0001867 0.0001284 0.0000755 0.0001807 0.0001866 -0.0090988 -0.0134591 -0.0085218 -0.0077393 -0.0068002 -0.0070132 -0.0001343 -0.0004447 -0.0080964 -0.0070406 -0.0004102 -0.0015316 0.0008323 -0.0017601 -0.0008071 0.0038189 -0.0004301 -0.0002577 0.0000254 0.0008424 0.0000405 0.0028231 0.0006360 0.0012058 0.0007670 -0.0022104 0.0001534 -0.0033406 -0.0008420 -0.0035009 -0.0001923 0.0013264 0.0000579 -0.0005418 0.0004584 0.0004644 0.0000622 0.0000042 -0.0011548 -0.0031740 0.0003298 -0.0003481 -0.0001060 -0.0006808 -0.0001417 -0.0013207 0.0001237 -0.0005127 0.0025198 0.0028483 -0.0002741 -0.0035641 0.0001774 0.0034965 0.0004683 -0.0043394 0.0008131 -0.0004786 0.0009151 0.0000449 -0.0005111 -0.0039723 0.0012176 0.0003737 0.0010289 0.0000034 0.0009190 -0.0054147 0.0002650 -0.0020990 0.0008282 0.0005077 -0.0013014 0.0020601 0.0003868 -0.0000519 0.0000303 -0.0000914 0.0000024 -0.0011974 0.0000572 -0.0010250 0.0003337 0.0010900 -0.0002823 -0.0044478 -0.0006916 -0.0014946 0.0001815 0.0000286 -0.0009441 -0.0010974 0.0002521 0.0012404
0.0003335 -0.0003177 0.0000233 0.0014998 -0.0001190 -0.0009829 0.0001085 -0.0004659 0.0001502 -0.0010752 0.0000070 -0.0006267 0.0002476 -0.0004842 0.0001108 -0.0010145 -0.0001133 0.0000137 -0.0004295 -0.0007977 -0.0002109 -0.0008278 -0.0003407 -0.0015089 -0.0001075 -0.0007925 -0.0003442 -0.0011016 0.0000201 0.0003046 -0.0000643 -0.0002752 -0.0004653 -0.0001522 0.0000205 -0.0003040 -0.0001138 0.0002770 -0.0001636 -0.0001828 -0.0000704 -0.0002287 0.0001287 0.0000794 0.0001724 0.0001737 -0.0091613 -0.0134702 -0.0084641 -0.0078374 -0.0074121 -0.0065130 -0.0001646 -0.0003760 -0.0060609 -0.0084801 -0.0004001 -0.0014212 0.0002463 -0.0016029 0.0009251 0.0025891 -0.0006866 0.0000354 0.0000183 0.0007845 -0.0004879 0.0023862 0.0006201 0.0011390 0.0007556 -0.0022228 0.0001807 -0.0032340 -0.0010320 -0.0039410 -0.0006653 0.0021713 0.0000934 -0.0005790 0.0004582 0.0003936 0.0002495 0.0004482 -0.0011221 -0.0031255 0.0003350 -0.0003437 -0.0000406 -0.0007846 -0.0001214 -0.0013310 0.0001041 -0.0005601 0.0025676 0.0029437 -0.0003155 -0.0039838 0.0000766 0.0028748 0.0004826 -0.0043641 0.0008140 -0.0005331 0.0008902 -0.0003271 -0.0005230 -0.0039559 0.0011793 0.0003345 0.0010293 -0.0000535 0.0008406 -0.0056994 0.0002790 -0.0022103 0.0008044 0.0002295 -0.0021624 0.0024484 0.0003948 -0.0002780 -0.0000506 -0.0001412 0.0000059 -0.0012322 -0.0000676 -0.0010600 0.0003378 0.0010984 0.0056347 -0.0069568 -0.0007134 -0.0014935 0.0001739 -0.0000291 -0.0009058 -0.0011821 0.0002729 0.0011464
0.0003263 -0.0003083 0.0000176 0.0014622 -0.0001196 -0.0009500 0.0001003 -0.0004477 0.0001503 -0.0010232 0.0000143 -0.0005961 0.0002441 -0.0004733 0.0000871 -0.0009475 -0.0001155 -0.0000000 -0.0003906 -0.0008834 -0.0001863 -0.0008690 -0.0003214 -0.0014756 -0.0000888 -0.0007551 -0.0003607 -0.0010803 0.0000171 0.0002997 -0.0000831 -0.0002571 -0.0004832 -0.0001629 0.0000152 -0.0003013 -0.0001011 0.0002783 -0.0001855 -0.0002071 -0.0000829 -0.0002347 0.0001269 0.0000820 0.0001553 0.0001714 -0.0091295 -0.0131427 -0.0085024 -0.0070294 -0.0072149 -0.0064965 -0.0001490 -0.0003746 -0.0067729 -0.0075388 -0.0003902 -0.0012110 -0.0002141 -0.0007336 0.0046808 -0.0046303 -0.0000699 -0.0000134 -0.0000236 0.0010022 0.0008308 -0.0002359 0.0005820 0.0012924 0.0007206 -0.0023780 0.0002213 -0.0031705 -0.0010495 -0.0041092 -0.0012438 0.0029732 0.0000994 -0.0006826 0.0004742 0.0002792 0.0004580 0.0008655 -0.0010575 -0.0031569 0.0003300 -0.0004276 -0.0000003 -0.0009371 -0.0001423 -0.0014601 0.0001144 -0.0007013 0.0026361 0.0029059 -0.0002731 -0.0042854 0.0000757 0.0029315 0.0004771 -0.0044547 0.0008400 -0.0005638 0.0009227 -0.0003677 -0.0004799 -0.0039648 0.0011600 0.0002401 0.0009999 -0.0001711 0.0007416 -0.0061313 0.0003228 -0.0022548 0.0007538 -0.0000897 -0.0021637 0.0024782 0.0003331 -0.0005884 0.0000305 -0.0003499 0.0001172 -0.0014202 0.0000270 -0.0012760 0.0002914 0.0008848 0.0040736 -0.0070657 -0.0006616 -0.0015563 0.0001890 -0.0000605 -0.0008789 -0.0011599 0.0002728 0.0011349
0.0003063 -0.0001782 0.0000143 0.0012355 -0.0000973 -0.0007744 0.0001079 -0.0003945 0.0001625 -0.0008886 -0.0000073 -0.0005648 0.0002193 -0.0004046 0.0000567 -0.0008024 -0.0001221 0.0000361 -0.0003398 -0.0009027 -0.0001591 -0.0007564 -0.0003083 -0.0013510 -0.0000983 -0.0006837 -0.0003358 -0.0010678 0.0000088 0.0002635 -0.0001335 -0.0002701 -0.0004893 -0.0001638 -0.0000118 -0.0003115 -0.0001028 0.0002708 -0.0002001 -0.0002635 -0.0000643 -0.0001438 0.0001170 0.0000623 0.0001561 0.0001442 -0.0079242 -0.0117619 -0.0092388 -0.0070676 -0.0062136 -0.0063309 -0.0001475 -0.0004342 -0.0087045 -0.0060599 -0.0002457 -0.0009260 -0.0000854 -0.0001333 0.0040041 -0.0060658 -0.0001475 -0.0001281 0.0000140 0.0008487 -0.0008628 0.0024913 0.0005626 0.0009768 0.0006825 -0.0024568 0.0002272 -0.0031054 -0.0009806 -0.0040274 -0.0014552 0.0025833 0.0000987 -0.0006285 0.0004738 0.0003579 0.0004695 0.0008326 -0.0010622 -0.0030414 0.0003045 -0.0004288 -0.0000368 -0.0009353 -0.0002356 -0.0015625 0.0000872 -0.0006391 0.0025835 0.0025887 -0.0002150 -0.0043039 0.0001761 0.0036228 0.0004550 -0.0044523 0.0008237 -0.0004689 0.0010546 0.0002893 -0.0004892 -0.0038967 0.0011702 0.0002550 0.0009482 -0.0002474 0.0004600 -0.0069841 0.0003897 -0.0020558 0.0007224 -0.0001163 -0.0015608 0.0022446 0.0003093 -0.0005757 0.0000582 -0.0002836 0.0001490 -0.0013854 0.0000465 -0.0012018 0.0002102 0.0006202 -0.0040194 -0.0015818 -0.0006049 -0.0015940 0.0001783 -0.0000672 -0.0008569 -0.0011562 0.0002670 0.0010743
0.0002802 -0.0001137 -0.0000047 0.0006608 0.0000005 -0.0006655 0.0001205 -0.0004345 0.0001356 -0.0008176 -0.0000081 -0.0006311 0.0002106 -0.0004315 0.0000788 -0.0007016 -0.0001304 -0.0000250 -0.0003479 -0.0008642 -0.0001388 -0.0005957 -0.0002799 -0.0010924 -0.0000766 -0.0006108 -0.0002866 -0.0010493 -0.0000029 0.0001660 -0.0001930 -0.0004428 -0.0004361 -0.0002165 -0.0000432 -0.0004488 -0.0000898 0.0001216 -0.0002240 -0.0003797 -0.0000283 -0.0001209 0.0001101 0.0000176 0.0001704 0.0000259 -0.0075619 -0.0101520 -0.0091125 -0.0109475 -0.0053174 -0.0058999 -0.0000877 -0.0004301 -0.0080839 -0.0060543 -0.0000952 -0.0006359 0.0001183 -0.0003688 -0.0001230 -0.0053348 -0.0007861 0.0002842 0.0000179 0.0007647 -0.0000249 0.0024175 0.0005054 0.0006351 0.0006409 -0.0026307 0.0001875 -0.0030365 -0.0009763 -0.0041162 -0.0015128 0.0018204 0.0000835 -0.0007443 0.0004764 0.0003258 0.0004139 0.0005720 -0.0010882 -0.0030673 0.0002613 -0.0004890 -0.0001051 -0.0011002 -0.0002849 -0.0017678 0.0001750 -0.0007141 0.0024963 0.0021381 -0.0001543 -0.0043517 0.0002523 0.0044199 0.0004433 -0.0045856 0.0007693 -0.0005427 0.0012399 0.0010692 -0.0004901 -0.0040389 0.0012055 0.0001669 0.0008982 -0.0004234 0.0001303 -0.0078565 0.0004435 -0.0020939 0.0006484 -0.0002747 -0.0022601 0.0026088 0.0003288 -0.0007671 0.0001336 -0.0004901 0.0001443 -0.0014773 0.0001703 -0.0013400 0.0001528 0.0002259 -0.0093111 0.0034945 -0.0005749 -0.0016833 0.0001950 -0.0001507 -0.0007837 -0.0013028 0.0002783 0.0009419
0.0002789 0.0000609 -0.0000275 0.0002108 0.0001097 -0.0003216 0.0001225 -0.0002014 0.0000744 -0.0004348 -0.0000258 -0.0005923 0.0001734 -0.0003752 0.0001275 -0.0004862 -0.0001440 0.0000403 -0.0003415 -0.0006197 -0.0001356 -0.0003745 -0.0002621 -0.0009645 -0.0000453 -0.0003526 -0.0002510 -0.0008671 -0.0000063 0.0002399 -0.0002401 -0.0005092 -0.0003853 -0.0000649 -0.0000532 -0.0003892 -0.0001001 0.0001951 -0.0002201 -0.0002971 -0.0000349 0.0000137 0.0001052 0.0000867 0.0001593 0.0000387 -0.0075691 -0.0099042 -0.0084579 -0.0130504 -0.0049073 -0.0059187 -0.0000840 -0.0003545 -0.0065384 -0.0065749 -0.0000781 -0.0005684 -0.0003428 -0.0003172 -0.0036534 0.0009308 -0.0001572 -0.0002068 -0.0000226 0.0006924 0.0038288 -0.0003128 0.0005054 0.0005467 0.0005784 -0.0028480 0.0001992 -0.0030542 -0.0009490 -0.0042694 -0.0015525 0.0009974 0.0000760 -0.0009712 0.0004954 0.0001981 0.0003916 0.0002055 -0.0010383 -0.0032680 0.0002249 -0.0006352 -0.0001123 -0.0013776 -0.0003256 -0.0020679 0.0002975 -0.0009010 0.0024143 0.0016988 -0.0001084 -0.0046043 0.0002935 0.0050928 0.0004185 -0.0047325 0.0007509 -0.0006995 0.0013817 0.0015141 -0.0005072 -0.0042266 0.0012228 0.0000169 0.0008413 -0.0006210 -0.0000662 -0.0082455 0.0004797 -0.0023577 0.0006614 -0.0004364 -0.0010181 0.0015717 0.0003029 -0.0007663 0.0001713 -0.0005236 0.0001656 -0.0014921 0.0004078 -0.0015031 0.0000573 0.0000606 -0.0018757 -0.0014531 -0.0005216 -0.0016368 0.0002228 -0.0001102 -0.0006625 -0.0012474 0.0002803 0.0009983
0.0002878 0.0000900 -0.0000258 0.0002225 0.0001489 -0.0002538 0.0001663 -0.0000287 0.0000243 -0.0002481 -0.0000608 -0.0005579 0.0001320 -0.0002961 0.0001453 -0.0004310 -0.0001376 0.0000293 -0.0002484 -0.0006706 -0.0001651 -0.0004075 -0.0001749 -0.0010015 -0.0000284 -0.0002597 -0.0002126 -0.0008013 0.0000420 0.0003557 -0.0002380 -0.0003562 -0.0003645 -0.0000121 -0.0000367 -0.0003954 -0.0000923 0.0002134 -0.0002026 -0.0002563 -0.0000425 -0.0000429 0.0001239 0.0001107 0.0001688 -0.0000201 -0.0069521 -0.0101125 -0.0076319 -0.0096173 -0.0059713 -0.0053597 -0.0000849 -0.0003631 -0.0055204 -0.0067544 -0.0001669 -0.0007623 -0.0003259 -0.0006126 -0.0033543 0.0091133 0.0002641 -0.0001087 -0.0000077 0.0005845 0.0026941 -0.0010869 0.0005885 0.0006913 0.0005674 -0.0027436 0.0002539 -0.0029973 -0.0009265 -0.0041497 -0.0015407 0.0005454 0.0000723 -0.0008622 0.0004947 0.0003073 0.0003478 0.0000854 -0.0010196 -0.0031512 0.0002039 -0.0005632 -0.0001252 -0.0013539 -0.0003593 -0.0021153 0.0002865 -0.0007513 0.0023086 0.0014471 -0.0001331 -0.0047195 0.0003021 0.0052317 0.0003914 -0.0045732 0.0007196 -0.0006455 0.0014231 0.0016973 -0.0005242 -0.0042107 0.0012215 0.0000756 0.0007997 -0.0006140 -0.0001700 -0.0083456 0.0004910 -0.0023564 0.0007122 -0.0002915 0.0004394 0.0008887 0.0002490 -0.0004597 0.0001063 -0.0002856 0.0001718 -0.0013251 0.0003141 -0.0013038 0.0000038 0.0000259 0.0066215 -0.0079047 -0.0005551 -0.0015428 0.0001803 -0.0000924 -0.0006234 -0.0012368 0.0002832 0.0009645
0.0002987 0.0000696 0.0000043 0.0006842 0.0001062 -0.0003386 0.0002476 0.0001488 0.0000543 -0.0002310 -0.0001170 -0.0005074 0.0001226 -0.0002647 0.0000931 -0.0004781 -0.0001378 0.0001568 -0.0003025 -0.0006025 -0.0001956 -0.0004373 -0.0002300 -0.0010367 -0.0000217 -0.0001778 -0.0002200 -0.0007732 0.0000908 0.0006025 -0.0002000 -0.0001092 -0.0004264 0.0001134 -0.0000453 -0.0001214 -0.0001021 0.0004800 -0.0002136 -0.0000555 -0.0000441 0.0001182 0.0001171 0.0003216 0.0001421 0.0001249 -0.0072322 -0.0096505 -0.0075733 -0.0060761 -0.0061984 -0.0049202 -0.0001357 -0.0001853 -0.0065351 -0.0053497 -0.0002245 -0.0008121 0.0003662 -0.0012864 -0.0025408 0.0063981 -0.0000579 0.0005214 0.0000214 0.0005706 0.0015252 0.0006938 0.0005693 0.0009242 0.0005787 -0.0026607 0.0002229 -0.0028955 -0.0008907 -0.0040722 -0.0015054 0.0001524 0.0000717 -0.0009159 0.0004866 0.0003009 0.0003092 -0.0001391 -0.0010074 -0.0031675 0.0002081 -0.0005849 -0.0001339 -0.0014452 -0.0003300 -0.0022061 0.0003075 -0.0007684 0.0022139 0.0013209 -0.0001951 -0.0049366 0.0002860 0.0048039 0.0003895 -0.0045565 0.0007032 -0.0007021 0.0013843 0.0015516 -0.0005066 -0.0043874 0.0012204 0.0000536 0.0007794 -0.0006919 -0.0002033 -0.0084300 0.0004902 -0.0024494 0.0006386 -0.0003326 -0.0006642 0.0013946 0.0002336 -0.0005214 0.0001642 -0.0004252 0.0002289 -0.0014177 0.0002018 -0.0012900 0.0000398 -0.0001014 0.0076036 -0.0097125 -0.0005247 -0.0016263 0.0001487 -0.0001703 -0.0006112 -0.0014009 0.0003060 0.0008084
0.0002985 0.0000725 0.0000133 0.0008791 0.0000889 -0.0003494 0.0003050 0.0003071 0.0000197 -0.0002565 -0.0001233 -0.0004881 0.0001691 -0.0002947 0.0000327 -0.0004803 -0.0001361 0.0001776 -0.0003706 -0.0005824 -0.0001636 -0.0005414 -0.0002900 -0.0011083 -0.0000179 -0.0001896 -0.0002260 -0.0007753 0.0001032 0.0006303 -0.0001864 -0.0001281 -0.0004443 0.0001186 -0.0000392 -0.0000773 -0.0001158 0.0005365 -0.0002124 -0.0000777 -0.0000490 0.0001137 0.0001086 0.0003062 0.0001263 0.0001365 -0.0072057 -0.0092471 -0.0081644 -0.0077165 -0.0065692 -0.0042816 -0.0000878 -0.0000850 -0.0084250 -0.0038233 -0.0001492 -0.0006266 0.0002696 -0.0010312 -0.0006627 0.0075876 -0.0002408 0.0002717 0.0000412 0.0004959 0.0006951 0.0027174 0.0004917 0.0007770 0.0005763 -0.0027209 0.0002121 -0.0029066 -0.0008469 -0.0041738 -0.0014687 -0.0003827 0.0000934 -0.0011152 0.0005194 0.0001528 0.0002855 -0.0004965 -0.0009651 -0.0033494 0.0002283 -0.0007693 -0.0000733 -0.0016782 -0.0003471 -0.0024030 0.0003025 -0.0008894 0.0021196 0.0011393 -0.0002322 -0.0052352 0.0003004 0.0044538 0.0003964 -0.0046393 0.0007016 -0.0008309 0.0013719 0.0013700 -0.0005387 -0.0046008 0.0012310 -0.0000665 0.0007557 -0.0008366 -0.0002379 -0.0086220 0.0004744 -0.0026136 0.0006296 -0.0004964 -0.0001444 0.0004408 0.0002372 -0.0006144 0.0002046 -0.0005427 0.0002905 -0.0015161 0.0001286 -0.0012666 0.0000354 -0.0001067 0.0018390 -0.0054348 -0.0005502 -0.0015547 0.0001913 -0.0001589 -0.0005775 -0.0013328 0.0003114 0.0008326
0.0002675 0.0000952 -0.0000205 0.0004126 0.0001749 -0.0002127 0.0003210 0.0003680 -0.0000804 -0.0001623 -0.0001012 -0.0004433 0.0001190 -0.0002157 0.0000575 -0.0004100 -0.0001291 0.0001015 -0.0003057 -0.0006599 -0.0001564 -0.0004735 -0.0003355 -0.0010248 -0.0000070 -0.0001259 -0.0002180 -0.0007139 0.0001026 0.0005315 -0.0002398 -0.0002321 -0.0003978 0.0001402 -0.0000439 -0.0001036 -0.0001062 0.0004630 -0.0002075 -0.0001428 -0.0000387 0.0001392 0.0000993 0.0004053 0.0001326 0.0002122 -0.0072687 -0.0081566 -0.0084989 -0.0119786 -0.0062428 -0.0040334 -0.0000469 0.0000793 -0.0064312 -0.0056652 -0.0000498 -0.0001987 0.0002671 0.0002733 -0.0033833 0.0190831 -0.0002627 0.0002039 0.0000390 0.0005220 0.0023805 -0.0008461 0.0004481 0.0004282 0.0005825 -0.0026183 0.0002395 -0.0028809 -0.0008271 -0.0040812 -0.0014277 -0.0006975 0.0000888 -0.0009629 0.0005182 0.0002307 0.0002394 -0.0005686 -0.0009648 -0.0032231 0.0002316 -0.0007270 -0.0000696 -0.0016234 -0.0003803 -0.0023884 0.0002782 -0.0007891 0.0020335 0.0010210 -0.0002672 -0.0052934 0.0003159 0.0042967 0.0003904 -0.0044652 0.0006447 -0.0007586 0.0013329 0.0013923 -0.0005966 -0.0045162 0.0012116 -0.0000063 0.0007434 -0.0007761 -0.0002525 -0.0085830 0.0004437 -0.0025349 0.0006605 -0.0003458 -0.0007765 0.0014126 0.0002158 -0.0002437 0.0001424 -0.0002485 0.0002463 -0.0012519 -0.0000195 -0.0009910 -0.0000353 0.0000887 -0.0009653 -0.0041383 -0.0005613 -0.0014184 0.0001659 0.0000026 -0.0005779 -0.0011574 0.0002904 0.0009307
0.0002515 0.0001538 -0.0000493 0.0001497 0.0002615 -0.0000382 0.0003033 0.0003922 -0.0000664 -0.0001938 -0.0001152 -0.0003954 0.0000368 -0.0001293 0.0000858 -0.0003478 -0.0001348 0.0000877 -0.0002713 -0.0006341 -0.0001163 -0.0003625 -0.0002874 -0.0009719 -0.0000008 -0.0000041 -0.0001862 -0.0006114 0.0001056 0.0004988 -0.0002963 -0.0002830 -0.0003941 0.0001294 -0.0000409 -0.0001010 -0.0001205 0.0003836 -0.0002186 -0.0001788 -0.0000306 0.0001485 0.0000882 0.0003820 0.0001355 0.0001804 -0.0069507 -0.0068818 -0.0083910 -0.0146606 -0.0060269 -0.0036541 -0.0000547 0.0001680 -0.0056152 -0.0062761 0.0000277 0.0000919 0.0002343 0.0004491 -0.0019629 0.0132815 -0.0000453 -0.0001263 0.0000008 0.0005170 0.0036077 -0.0027231 0.0004254 0.0003855 0.0005768 -0.0024767 0.0002395 -0.0027964 -0.0007922 -0.0039753 -0.0013714 -0.0009252 0.0000710 -0.0009069 0.0004908 0.0002718 0.0002047 -0.0006237 -0.0009611 -0.0031453 0.0002393 -0.0007016 -0.0001082 -0.0016473 -0.0003697 -0.0023679 0.0003127 -0.0007756 0.0019708 0.0009492 -0.0002870 -0.0052899 0.0003115 0.0041768 0.0003977 -0.0044148 0.0006309 -0.0007539 0.0012991 0.0013561 -0.0006211 -0.0044690 0.0011943 0.0000066 0.0007487 -0.0007583 -0.0002324 -0.0084401 0.0004383 -0.0025328 0.0007031 -0.0004080 -0.0000763 0.0013639 0.0002129 -0.0003327 0.0001092 -0.0002486 0.0002449 -0.0012775 0.0001348 -0.0011198 -0.0000152 0.0000065 -0.0014505 -0.0031691 -0.0005043 -0.0015160 0.0001601 -0.0000692 -0.0005763 -0.0012413 0.0002848 0.0008399
0.0002176 0.0002523 -0.0000655 -0.0003698 0.0002857 0.0000307 0.0003015 0.0003676 -0.0000347 -0.0000604 -0.0001287 -0.0004112 0.0000144 -0.0000533 0.0000773 -0.0002598 -0.0001420 0.0000656 -0.0002709 -0.0006302 -0.0000730 -0.0003425 -0.0001824 -0.0009543 -0.0000163 0.0000112 -0.0001606 -0.0005855 0.0001082 0.0004786 -0.0003482 -0.0002188 -0.0003994 0.0001443 -0.0000776 -0.0001867 -0.0001199 0.0003314 -0.0002503 -0.0001990 -0.0000170 0.0001708 0.0000826 0.0002977 0.0001400 0.0000991 -0.0066294 -0.0060000 -0.0087417 -0.0163991 -0.0064033 -0.0029593 0.0000442 0.0003773 -0.0070438 -0.0042452 0.0000975 0.0004639 -0.0000029 -0.0004591 0.0065949 -0.0111294 -0.0000649 0.0000670 -0.0000747 0.0009198 0.0016010 -0.0011979 0.0004403 0.0007032 0.0005946 -0.0025249 0.0002625 -0.0028248 -0.0007523 -0.0040707 -0.0013168 -0.0012035 0.0000856 -0.0010478 0.0004913 0.0001589 0.0001893 -0.0007972 -0.0009162 -0.0032743 0.0002576 -0.0008198 -0.0000925 -0.0018245 -0.0003702 -0.0025038 0.0003034 -0.0008750 0.0019202 0.0007945 -0.0002631 -0.0053379 0.0003296 0.0042520 0.0004084 -0.0044903 0.0006494 -0.0008380 0.0013347 0.0013609 -0.0006364 -0.0045105 0.0011976 -0.0000965 0.0007295 -0.0008175 -0.0002602 -0.0084515 0.0004507 -0.0026274 0.0006605 -0.0005133 0.0006531 0.0008894 0.0001913 -0.0006132 0.0000596 -0.0004047 0.0002529 -0.0014202 0.0002374 -0.0012899 -0.0000045 -0.0001452 -0.0067234 0.0030431 -0.0005315 -0.0015450 0.0001791 -0.0001663 -0.0005338 -0.0013163 0.0002905 0.0007621
0.0002124 0.0004464 -0.0000649 -0.0004855 0.0002686 0.0001359 0.0002643 0.0004461 -0.0000517 0.0001413 -0.0001310 -0.0003486 0.0000360 -0.0000136 0.0000304 -0.0002254 -0.0001349 0.0001628 -0.0003200 -0.0004686 -0.0000857 -0.0002269 -0.0001924 -0.0007948 -0.0000246 0.0000031 -0.0001365 -0.0005292 0.0000898 0.0004739 -0.0003307 -0.0001482 -0.0004225 0.0001840 -0.0000755 -0.0000934 -0.0001352 0.0004576 -0.0002435 -0.0001680 -0.0000242 0.0002447 0.0000664 0.0002914 0.0001280 0.0001331 -0.0066371 -0.0064338 -0.0082391 -0.0168180 -0.0052106 -0.0038370 0.0000343 0.0004215 -0.0058494 -0.0044933 0.0001148 0.0004997 0.0000787 -0.0006985 -0.0001934 -0.0001435 -0.0000578 0.0000492 -0.0001392 0.0009873 -0.0026293 0.0023349 0.0004290 0.0006626 0.0005963 -0.0025157 0.0002861 -0.0028684 -0.0007176 -0.0040198 -0.0012574 -0.0014761 0.0000824 -0.0009595 0.0004693 0.0002180 0.0001574 -0.0008850 -0.0008856 -0.0032363 0.0002392 -0.0007873 -0.0000566 -0.0018060 -0.0003903 -0.0025518 0.0002543 -0.0008149 0.0018500 0.0006244 -0.0002291 -0.0052688 0.0003658 0.0044610 0.0003915 -0.0043666 0.0006489 -0.0008061 0.0013839 0.0015605 -0.0005955 -0.0044834 0.0011818 -0.0000574 0.0007053 -0.0007812 -0.0003092 -0.0084090 0.0004473 -0.0025792 0.0006206 -0.0003551 0.0005289 0.0008127 0.0001921 -0.0003620 0.0000583 -0.0002225 0.0001981 -0.0011880 0.0001432 -0.0011117 -0.0000026 -0.0000823 -0.0020849 -0.0017647 -0.0005952 -0.0012945 0.0001564 0.0000087 -0.0004926 -0.0010834 0.0002908 0.0008959
0.0002393 0.0004086 -0.0000585 -0.0000652 0.0002711 0.0001002 0.0002320 0.0004587 -0.0000636 0.0000353 -0.0000950 -0.0003563 0.0000759 -0.0000765 0.0000175 -0.0003284 -0.0001274 0.0001760 -0.0003445 -0.0004679 -0.0000994 -0.0002773 -0.0002213 -0.0007840 -0.0000332 -0.0000134 -0.0001296 -0.0005396 0.0001082 0.0004473 -0.0002726 -0.0001827 -0.0004447 0.0001104 -0.0000356 -0.0000198 -0.0001702 0.0004858 -0.0002268 -0.0001771 -0.0000616 0.0001723 0.0000690 0.0002681 0.0001113 0.0001082 -0.0067197 -0.0067277 -0.0075183 -0.0164082 -0.0041914 -0.0045953 -0.0000411 0.0004112 -0.0056836 -0.0042431 0.0000612 0.0003763 0.0000766 -0.0005453 -0.0011060 0.0133472 0.0002847 -0.0004994 -0.0001578 0.0009692 -0.0031470 0.0050970 0.0003740 0.0008118 0.0005786 -0.0023233 0.0002733 -0.0027358 -0.0006844 -0.0037486 -0.0011838 -0.0016345 0.0000490 -0.0006641 0.0004490 0.0004232 0.0001087 -0.0008014 -0.0008862 -0.0029838 0.0001951 -0.0006135 -0.0000982 -0.0016530 -0.0004121 -0.0024496 0.0002966 -0.0006448 0.0017691 0.0004654 -0.0001974 -0.0049710 0.0004358 0.0048873 0.0003720 -0.0041597 0.0006278 -0.0007091 0.0014800 0.0020730 -0.0005797 -0.0044070 0.0011694 0.0000710 0.0006776 -0.0007029 -0.0005243 -0.0086601 0.0004818 -0.0025181 0.0006299 -0.0003228 -0.0009266 0.0016357 0.0001523 -0.0003157 0.0000876 -0.0002477 0.0002083 -0.0011412 0.0001020 -0.0010713 0.0000422 -0.0002239 0.0037612 -0.0063267 -0.0005899 -0.0012815 0.0001385 0.0000114 -0.0005077 -0.0010494 0.0003049 0.0008320
0.0002233 0.0004882 -0.0000613 -0.0000299 0.0002747 0.0002783 0.0002599 0.0006843 -0.0001273 0.0003304 -0.0001248 -0.0002526 0.0000399 0.0000563 0.0000411 -0.0001998 -0.0001451 0.0003255 -0.0003116 -0.0003209 -0.0001162 -0.0000878 -0.0002323 -0.0007397 -0.0000557 0.0001199 -0.0001402 -0.0004025 0.0001334 0.0005888 -0.0003132 -0.0000819 -0.0004406 0.0001896 -0.0000794 0.0000556 -0.0001903 0.0005787 -0.0002777 -0.0000233 -0.0000782 0.0003627 0.0000561 0.0002735 0.0001190 0.0001351 -0.0061316 -0.0059253 -0.0072997 -0.0162085 -0.0045953 -0.0029776 -0.0000203 0.0005626 -0.0060582 -0.0032000 0.0000740 0.0004837 -0.0000945 -0.0007509 -0.0078099 0.0251118 0.0003319 -0.0002843 -0.0001579 0.0009258 -0.0005291 0.0013048 0.0003987 0.0008198 0.0005843 -0.0023555 0.0002450 -0.0026924 -0.0006528 -0.0037753 -0.0011080 -0.0021316 0.0000379 -0.0007307 0.0004701 0.0003755 0.0000749 -0.0009756 -0.0008691 -0.0030299 0.0001913 -0.0006967 -0.0001426 -0.0017786 -0.0004435 -0.0025958 0.0002555 -0.0006350 0.0016782 0.0002703 -0.0001770 -0.0048862 0.0004993 0.0050930 0.0003760 -0.0042284 0.0006019 -0.0007061 0.0015354 0.0024239 -0.0006248 -0.0044340 0.0011802 0.0000232 0.0006476 -0.0007929 -0.0006866 -0.0089355 0.0005153 -0.0025949 0.0005638 -0.0003836 -0.0022876 0.0025612 0.0001668 -0.0005448 0.0000442 -0.0003569 0.0002056 -0.0012109 0.0001159 -0.0011152 0.0000040 -0.0003802 0.0041903 -0.0062978 -0.0005155 -0.0014873 0.0001513 -0.0001059 -0.0004896 -0.0011856 0.0003141 0.0006729
0.0002193 0.0005092 -0.0000605 -0.0000714 0.0002505 0.0002729 0.0002736 0.0006795 -0.0001520 0.0003658 -0.0001647 -0.0002290 0.0000168 0.0000859 0.0000066 -0.0001794 -0.0001447 0.0003331 -0.0002742 -0.0003476 -0.0001133 -0.0000646 -0.0001834 -0.0007230 -0.0000534 0.0000781 -0.0001583 -0.0003657 0.0001296 0.0005683 -0.0003243 -0.0000838 -0.0004197 0.0000765 -0.0000509 -0.0000154 -0.0002059 0.0005621 -0.0002879 -0.0000567 -0.0000823 0.0003638 0.0000553 0.0002064 0.0001081 0.0001144 -0.0057955 -0.0053595 -0.0064977 -0.0160820 -0.0045845 -0.0023513 0.0000200 0.0005474 -0.0062327 -0.0026425 0.0001113 0.0005382 -0.0000243 -0.0013713 -0.0247121 0.0275506 0.0002339 -0.0002440 -0.0001809 0.0009226 -0.0006325 -0.0009103 0.0003806 0.0006736 0.0005833 -0.0024946 0.0002247 -0.0027758 -0.0006222 -0.0039245 -0.0010423 -0.0027302 0.0000503 -0.0008902 0.0004949 0.0002955 0.0000572 -0.0011966 -0.0008628 -0.0031317 0.0002192 -0.0008568 -0.0001018 -0.0019430 -0.0004710 -0.0028564 0.0002744 -0.0007643 0.0015544 0.0001477 -0.0002260 -0.0050425 0.0005149 0.0044991 0.0003555 -0.0043071 0.0005803 -0.0006830 0.0014697 0.0022660 -0.0006047 -0.0045485 0.0011807 -0.0000715 0.0006091 -0.0009218 -0.0006771 -0.0088941 0.0004650 -0.0026646 0.0005458 -0.0002902 -0.0017928 0.0024945 0.0002124 -0.0003906 0.0000231 -0.0001687 0.0001637 -0.0010800 0.0001803 -0.0010470 -0.0000085 -0.0003425 -0.0011030 -0.0039512 -0.0005557 -0.0013303 0.0001684 -0.0000208 -0.0004568 -0.0010119 0.0002894 0.0007777
0.0002153 0.0004725 -0.0000624 -0.0000778 0.0002586 0.0002270 0.0002470 0.0006232 -0.0001204 0.0003224 -0.0001828 -0.0002006 0.0000105 0.0000551 0.0000027 -0.0002144 -0.0001467 0.0003518 -0.0003087 -0.0003169 -0.0001432 -0.0000370 -0.0002190 -0.0006455 -0.0000568 0.0001299 -0.0001842 -0.0003246 0.0001394 0.0006035 -0.0003337 -0.0000606 -0.0004410 0.0001700 -0.0000464 0.0001427 -0.0002386 0.0006923 -0.0002652 0.0000423 -0.0000935 0.0005031 0.0000518 0.0004054 0.0000832 0.0003012 -0.0062536 -0.0047370 -0.0065539 -0.0153840 -0.0054305 -0.0014460 -0.0000162 0.0005583 -0.0062317 -0.0021644 0.0001120 0.0005223 -0.0000589 -0.0011148 0.0085432 -0.0331439 -0.0001921 -0.0001204 -0.0002158 0.0009520 -0.0011777 0.0010692 0.0003239 0.0006822 0.0005682 -0.0024037 0.0001622 -0.0026329 -0.0006136 -0.0037600 -0.0009868 -0.0028531 0.0000382 -0.0006174 0.0005005 0.0005093 0.0000294 -0.0010025 -0.0008717 -0.0028564 0.0002479 -0.0006942 -0.0000803 -0.0017218 -0.0005048 -0.0027610 0.0003174 -0.0005969 0.0014494 0.0001395 -0.0002997 -0.0049719 0.0005022 0.0038481 0.0003192 -0.0040963 0.0005735 -0.0005265 0.0014162 0.0021853 -0.0006487 -0.0044686 0.0011561 0.0000388 0.0005658 -0.0008856 -0.0006921 -0.0087502 0.0004100 -0.0025879 0.0005604 -0.0000364 -0.0009113 0.0021575 0.0002076 -0.0000532 0.0000630 0.0000303 0.0002049 -0.0009598 0.0000341 -0.0008517 -0.0000229 -0.0002436 0.0011801 -0.0044609 -0.0006344 -0.0011556 0.0001230 0.0000452 -0.0004443 -0.0009405 0.0002914 0.0007639
0.0001892 0.0004419 -0.0000821 -0.0004243 0.0003146 0.0002856 0.0002797 0.0006290 -0.0001024 0.0003395 -0.0002080 -0.0001652 -0.0000083 0.0000916 0.0000285 -0.0002171 -0.0001735 0.0003536 -0.0003045 -0.0002785 -0.0001332 0.0000182 -0.0002307 -0.0005567 -0.0000590 0.0001526 -0.0001907 -0.0003104 0.0001437 0.0005638 -0.0003601 -0.0000667 -0.0004235 0.0001717 -0.0001064 0.0000555 -0.0002506 0.0006147 -0.0002771 0.0000432 -0.0000883 0.0004973 0.0000447 0.0003444 0.0000883 0.0002586 -0.0051461 -0.0040974 -0.0065341 -0.0156330 -0.0055745 0.0001689 0.0000467 0.0006643 -0.0052699 -0.0017583 0.0001564 0.0005897 -0.0002543 -0.0006156 0.0109089 -0.0110084 -0.0004874 0.0002014 -0.0002385 0.0009483 0.0000911 0.0012035 0.0003797 0.0007320 0.0005331 -0.0024500 0.0001874 -0.0025684 -0.0005976 -0.0037491 -0.0009369 -0.0030735 0.0000167 -0.0005860 0.0005082 0.0005810 0.0000113 -0.0009571 -0.0008662 -0.0027995 0.0002510 -0.0006773 -0.0000534 -0.0016780 -0.0005284 -0.0028146 0.0003871 -0.0005400 0.0013329 0.0001159 -0.0003596 -0.0049327 0.0004204 0.0031761 0.0003004 -0.0041193 0.0005683 -0.0005017 0.0013600 0.0021259 -0.0007813 -0.0045746 0.0011959 0.0000459 0.0004964 -0.0010630 -0.0006714 -0.0088854 0.0002674 -0.0028304 0.0005677 -0.0000798 0.0000369 0.0014985 0.0002180 -0.0001794 0.0001203 -0.0001060 0.0002064 -0.0009626 -0.0000393 -0.0008621 0.0000706 -0.0003540 0.0055500 -0.0057988 -0.0006155 -0.0012377 0.0000631 -0.0000232 -0.0004481 -0.0010468 0.0002977 0.0006226
0.0001794 0.0004703 -0.0000861 -0.0007053 0.0003251 0.0003245 0.0003084 0.0006695 -0.0001045 0.0004032 -0.0001760 -0.0002471 -0.0000037 0.0001007 -0.0000749 -0.0000833 -0.0001887 0.0003637 -0.0002649 -0.0002947 -0.0000987 0.0000301 -0.0002540 -0.0004345 -0.0000609 0.0001143 -0.0001894 -0.0003649 0.0001413 0.0005053 -0.0003333 -0.0000362 -0.0003908 0.0000863 -0.0001147 0.0000041 -0.0002513 0.0005604 -0.0002611 0.0000457 -0.0000725 0.0004643 0.0000452 0.0003769 0.0000724 0.0002733 -0.0048635 -0.0032033 -0.0051671 -0.0149298 -0.0047062 0.0001724 0.0000839 0.0008106 -0.0049734 -0.0014627 0.0001531 0.0006549 -0.0000407 -0.0006616 0.0004164 0.0085091 0.0000664 0.0002736 -0.0002365 0.0010339 -0.0016187 0.0042070 0.0004008 0.0010025 0.0005308 -0.0024469 0.0002900 -0.0026780 -0.0002941 -0.0032085 -0.0005636 -0.0035287 0.0000262 -0.0008145 0.0005160 0.0004621 -0.0001136 -0.0015204 -0.0008637 -0.0029402 0.0002205 -0.0007829 -0.0000535 -0.0017736 -0.0005289 -0.0030110 0.0004783 -0.0006216 0.0011737 0.0000194 -0.0004228 -0.0051273 0.0003515 0.0026062 0.0002840 -0.0042745 0.0005415 -0.0005955 0.0013472 0.0020285 -0.0007616 -0.0047088 0.0012504 -0.0000085 0.0004712 -0.0010891 -0.0004892 -0.0086433 0.0002134 -0.0030334 0.0007074 -0.0001488 -0.0008728 0.0020814 0.0003347 -0.0001828 0.0000610 -0.0001889 0.0001743 -0.0010644 0.0000287 -0.0008777 0.0001468 -0.0005014 -0.0036558 -0.0005606 -0.0005254 -0.0012544 0.0000666 -0.0000350 -0.0005087 -0.0009514 0.0002885 0.0006690
0.0002053 0.0004957 -0.0000679 -0.0003495 0.0002783 0.0002447 0.0002909 0.0006631 -0.0000736 0.0003335 -0.0001736 -0.0002531 -0.0000121 0.0000782 -0.0001116 -0.0001227 -0.0001672 0.0004125 -0.0003029 -0.0003032 -0.0001336 -0.0000105 -0.0003291 -0.0003383 -0.0000703 0.0000399 -0.0001805 -0.0003876 0.0001612 0.0005458 -0.0002745 0.0000462 -0.0004254 0.0000254 -0.0000787 0.0000652 -0.0002633 0.0005937 -0.0002338 0.0000680 -0.0000775 0.0004097 0.0000476 0.0003970 0.0000620 0.0002888 -0.0052601 -0.0031277 -0.0052362 -0.0128967 -0.0043691 -0.0005358 0.0000578 0.0007727 -0.0050064 -0.0013837 0.0000740 0.0004219 0.0001367 -0.0005362 -0.0036243 0.0074812 -0.0002890 0.0009452 -0.0002074 0.0009889 -0.0029578 0.0046863 0.0004475 0.0012565 0.0006139 -0.0018329 0.0002861 -0.0028375 0.0001729 -0.0019077 0.0002105 -0.0035065 0.0000357 -0.0007392 0.0004905 0.0004735 -0.0005489 -0.0028257 -0.0008902 -0.0029484 0.0002459 -0.0006645 -0.0000504 -0.0016131 -0.0004427 -0.0026873 0.0004026 -0.0003877 0.0010849 -0.0000190 -0.0004802 -0.0055156 0.0003920 0.0033217 0.0003301 -0.0040735 0.0005568 -0.0005611 0.0013212 0.0018093 -0.0005600 -0.0040298 0.0012029 0.0001396 0.0006269 -0.0004345 0.0004380 -0.0061952 0.0002417 -0.0022568 0.0007470 0.0003493 -0.0016082 0.0024736 0.0004111 0.0004524 -0.0000031 0.0000764 0.0001376 -0.0010354 0.0000935 -0.0007515 0.0000806 -0.0002258 -0.0044333 -0.0023059 -0.0004676 -0.0010931 0.0000445 0.0000962 -0.0005902 -0.0006470 0.0002690 0.0008627
0.0002130 0.0004604 -0.0000587 -0.0001209 0.0002371 0.0001287 0.0002893 0.0006345 0.0000049 0.0002002 -0.0002272 -0.0002603 -0.0000249 0.0000845 0.0000131 -0.0003169 -0.0001534 0.0004268 -0.0003353 -0.0003506 -0.0001689 -0.0001045 -0.0003815 -0.0004577 -0.0000785 -0.0000169 -0.0001801 -0.0004488 0.0001907 0.0005865 -0.0002396 0.0000879 -0.0004494 -0.0000708 -0.0000647 0.0000309 -0.0002936 0.0005950 -0.0002230 0.0000553 -0.0000913 0.0003330 0.0000492 0.0003684 0.0000546 0.0002587 -0.0053665 -0.0033290 -0.0059251 -0.0106854 -0.0039712 -0.0008128 0.0000856 0.0007180 -0.0049755 -0.0009522 -0.0000242 0.0002875 0.0000195 0.0001046 -0.0038594 -0.0025768 -0.0003863 0.0012366 -0.0002164 0.0012471 0.0003901 0.0015439 0.0005051 0.0014675 0.0005395 -0.0012461 0.0001688 -0.0029730 0.0004556 -0.0008294 0.0006639 -0.0031431 0.0000255 -0.0006343 0.0004546 0.0005276 -0.0010774 -0.0040335 -0.0009270 -0.0030206 0.0002628 -0.0004569 0.0000085 -0.0014671 -0.0002853 -0.0021939 0.0004421 -0.0002201 0.0010192 0.0003509 -0.0006925 -0.0063543 0.0002765 0.0031268 0.0004502 -0.0038061 0.0006166 -0.0005147 0.0008567 -0.0000053 -0.0003087 -0.0033045 0.0011584 0.0002828 0.0007478 -0.0000058 0.0014430 -0.0036199 0.0001409 -0.0019505 0.0007689 0.0008521 -0.0004988 0.0020365 0.0004604 0.0005715 0.0001031 -0.0000253 0.0000875 -0.0011315 0.0000821 -0.0007772 0.0000629 -0.0001190 0.0028847 -0.0060148 -0.0004806 -0.0010956 0.0000204 0.0000627 -0.0006344 -0.0006726 0.0002562 0.0008431
0.0002023 0.0005286 -0.0000592 -0.0000467 0.0002091 0.0001795 0.0002826 0.0007179 -0.0000017 0.0002363 -0.0002151 -0.0002870 0.0000107 0.0000979 0.0000751 -0.0003360 -0.0001609 0.0004764 -0.0003495 -0.0003103 -0.0001568 -0.0001129 -0.0003592 -0.0005227 -0.0000759 0.0000029 -0.0001816 -0.0004248 0.0002061 0.0006243 -0.0002664 0.0001431 -0.0004457 -0.0000869 -0.0000572 0.0000086 -0.0003111 0.0005789 -0.0002135 0.0000583 -0.0001021 0.0003495 0.0000506 0.0003630 0.0000631 0.0002573 -0.0058165 -0.0030822 -0.0057380 -0.0103306 -0.0048395 0.0000644 0.0000859 0.0006451 -0.0046830 -0.0014912 -0.0000610 0.0002055 0.0000389 -0.0000683 -0.0161278 0.0007106 0.0000241 0.0009665 -0.0002225 0.0012350 0.0033212 -0.0006036 0.0004146 0.0014455 0.0003895 -0.0012817 0.0000139 -0.0032862 0.0005233 -0.0000875 0.0005727 -0.0029944 0.0000659 -0.0006326 0.0005043 0.0005592 -0.0013852 -0.0048009 -0.0009355 -0.0033422 0.0002745 -0.0003355 0.0000614 -0.0014015 -0.0001713 -0.0018215 0.0004665 -0.0001686 0.0009262 0.0007881 -0.0008699 -0.0068651 0.0000460 0.0019320 0.0005583 -0.0037614 0.0006416 -0.0006242 0.0004466 -0.0016550 -0.0001174 -0.0031849 0.0011619 0.0003778 0.0007351 -0.0001098 0.0019184 -0.0027313 0.0001199 -0.0023091 0.0010040 0.0011668 0.0009837 0.0012793 0.0005343 0.0004611 0.0001403 -0.0001700 0.0000377 -0.0012593 0.0000102 -0.0007746 0.0001015 -0.0001009 0.0045881 -0.0066097 -0.0005313 -0.0011943 0.0000311 -0.0000384 -0.0006581 -0.0008739 0.0002693 0.0007599
