  -4.7115564e-06   3.4328054e-06   1.2841451e-05  -5.3138589e-05  -9.5336827e-06   7.5100497e-06  -1.4232447e-05   1.3127965e-06   1.9173183e-05   8.8988736e-06   2.9202407e-05  -2.1421265e-05  -9.3061790e-05  -2.2444436e-05  -9.2155773e-05   2.1157859e-06   1.4838885e-05  -5.6117301e-06  -2.4086801e-06  -1.5678421e-06   2.8320032e-06  -4.5106659e-05   2.2933917e-05  -1.2597164e-05   1.1366909e-05  -2.9970235e-05   1.6239181e-05  -3.5598739e-05  -9.8094470e-06  -1.6190165e-04  -1.3855365e-05  -1.1326245e-04  -1.0482021e-04  -3.6673377e-05  -8.0050508e-05
   2.2313539e-05   1.0068348e-05  -1.7502238e-05  -3.4084551e-05  -1.6069029e-05  -5.0142404e-05   2.0369641e-06   1.4794779e-05  -6.1397346e-05  -1.6901469e-05   4.0898973e-05  -1.0745749e-04  -1.1015757e-04  -1.7222705e-05  -1.7861801e-04  -1.5955979e-05  -1.2241952e-05  -1.0880502e-05  -1.4355567e-06  -5.6238259e-05   5.2363707e-06  -3.1506341e-05   7.8003950e-06  -5.1964726e-05  -3.3535609e-05  -5.3144107e-05   2.1391362e-04  -1.2815480e-04  -1.5431599e-04  -2.8723141e-04   1.3918523e-04  -1.1156483e-04  -7.3024930e-05   1.3174997e-04  -1.3450530e-04
   4.7471898e-05   2.0868072e-05  -5.2916712e-05  -1.7702147e-05  -1.5468131e-05  -9.5110016e-05  -1.1382221e-05   2.8223132e-05  -9.6443917e-05  -3.8535662e-05   5.5719705e-05  -1.5345140e-04  -1.2576816e-04  -2.1084521e-05  -2.5712154e-04  -3.7960010e-05  -3.4152716e-05  -6.9979619e-06   3.1636955e-07  -9.4388910e-05   6.0983471e-06  -1.6362295e-05   1.2274035e-06  -1.0058798e-04  -7.4679185e-05  -8.6708227e-05   3.5225929e-04  -2.1669998e-04  -2.9156901e-04  -4.5944861e-04   2.3216470e-04  -1.4657481e-04  -4.7441201e-05   3.2830154e-04  -1.9043134e-04
   6.9473688e-05   3.6481448e-05  -9.5406715e-05  -6.1527903e-06  -4.0044397e-06  -1.2062168e-04  -6.7521134e-05   3.9596402e-05  -6.5289118e-05  -5.3890748e-05   7.4512114e-05  -1.3791081e-04  -1.4440966e-04  -3.9524046e-05  -3.1757812e-04  -6.5656372e-05  -4.7282661e-05   6.2919289e-06   3.4659108e-06  -1.0721412e-04   5.1804059e-06  -1.4078257e-06   6.3190441e-06  -1.6245760e-04  -1.1067060e-04  -1.3520966e-04   4.0162139e-04  -2.9873656e-04  -4.1045362e-04  -6.9048395e-04   2.2421882e-04  -2.3483657e-04  -2.9557459e-05   5.5574713e-04  -2.4588971e-04
   8.7797242e-05   5.2819560e-05  -1.4266826e-04  -9.5008471e-07   1.6725831e-05  -1.2799316e-04  -1.5543048e-04   4.4610384e-05   1.7668597e-05  -6.3850319e-05   9.4880386e-05  -7.0829723e-05  -1.7734298e-04  -7.2701310e-05  -3.4903758e-04  -9.7461787e-05  -5.0659710e-05   1.7572964e-05   8.1148382e-06  -9.6904143e-05   3.9119755e-06   6.9419989e-06   1.8744326e-05  -2.3325495e-04  -1.4346204e-04  -1.9490680e-04   3.7654210e-04  -3.7344475e-04  -4.9640611e-04  -9.4298908e-04   1.1226954e-04  -3.6273143e-04  -1.4943927e-05   7.8106445e-04  -2.9476348e-04
   1.0230635e-04   6.3130050e-05  -1.8944118e-04  -3.0357926e-06   4.0160736e-05  -1.2465220e-04  -2.4684280e-04   3.8436086e-05   1.1079309e-04  -7.1500981e-05   1.1241648e-04   1.1292501e-05  -2.3643310e-04  -1.1645160e-04  -3.4607376e-04  -1.2887255e-04  -4.6353944e-05   9.3532926e-06   1.3376876e-05  -7.4629483e-05   4.4760445e-06  -7.6405325e-07   2.9413339e-05  -3.0084647e-04  -1.7787682e-04  -2.5601106e-04   3.2598921e-04  -4.4100065e-04  -5.3624401e-04  -1.1460806e-03  -6.6697823e-05  -4.9218431e-04   3.6422175e-06   9.4405562e-04  -3.2963877e-04
   1.1246335e-04   6.2120962e-05  -2.3049902e-04  -1.2946285e-05   5.7243738e-05  -1.1903598e-04  -3.1233008e-04   1.8781135e-05   1.6792868e-04  -8.0090394e-05   1.2336625e-04   6.4428394e-05  -3.2438137e-04  -1.6533658e-04  -3.1543977e-04  -1.5420649e-04  -3.8665228e-05  -3.0961772e-05   1.7211376e-05  -5.4157652e-05   8.1682329e-06  -3.2829608e-05   3.0194324e-05  -3.4881575e-04  -2.1960601e-04  -3.0803875e-04   3.0543169e-04  -5.0095050e-04  -5.2568060e-04  -1.2291273e-03  -2.5436751e-04  -5.7846529e-04   3.0678530e-05   9.8468934e-04  -3.4661798e-04
   1.1674864e-04   4.9591104e-05  -2.6332185e-04  -3.0711330e-05   5.9995567e-05  -1.1533855e-04  -3.3715172e-04  -1.1686105e-05   1.6454415e-04  -9.0932372e-05   1.2716092e-04   5.9096703e-05  -4.2785783e-04  -2.1592564e-04  -2.7676919e-04  -1.6883176e-04  -3.2007414e-05  -1.0168531e-04   1.6944632e-05  -4.4366469e-05   1.4102900e-05  -9.1616334e-05   1.9056488e-05  -3.6132857e-04  -2.7240042e-04  -3.4493330e-04   3.4648000e-04  -5.5058091e-04  -4.7499529e-04  -1.1548010e-03  -4.0432511e-04  -5.9032021e-04   6.3606924e-05   8.7581418e-04  -3.4917312e-04
   1.1280041e-04   3.1078565e-05  -2.8875706e-04  -5.5045301e-05   4.4683780e-05  -1.1117764e-04  -3.2816842e-04  -4.5315715e-05   1.1247765e-04  -1.0250934e-04   1.2717591e-04  -6.3236826e-06  -5.1906653e-04  -2.6839247e-04  -2.5369748e-04  -1.7086814e-04  -2.8195638e-05  -1.8547829e-04   1.0555235e-05  -4.4641940e-05   1.9226083e-05  -1.7075762e-04   1.3806174e-06  -3.2732368e-04  -3.3558931e-04  -3.6689959e-04   4.4054652e-04  -5.8404193e-04  -4.0852232e-04  -9.3822263e-04  -5.0677295e-04  -5.2331242e-04   9.3261275e-05   6.4149831e-04  -3.4824625e-04
   9.8582386e-05   1.4943342e-05  -3.0916487e-04  -8.1946782e-05   1.3325647e-05  -9.9578050e-05  -3.0868585e-04  -7.2392002e-05   5.4016698e-05  -1.1129599e-04   1.2922216e-04  -1.0685977e-04  -5.6624180e-04  -3.2559052e-04  -2.5819577e-04  -1.6169906e-04  -2.4677694e-05  -2.5758159e-04  -1.8593606e-06  -4.5718065e-05   1.9786745e-05  -2.5608312e-04  -1.3453761e-05  -2.4273600e-04  -4.0296448e-04  -3.7784351e-04   5.4473488e-04  -5.9259875e-04  -3.5672064e-04  -6.4671476e-04  -5.8781740e-04  -4.0177946e-04   1.0967255e-04   3.4875574e-04  -3.5766658e-04
   7.4333177e-05   7.5221801e-06  -3.2514552e-04  -1.0322052e-04  -2.7015903e-05  -7.4000527e-05  -3.0424562e-04  -8.5714433e-05   3.8895054e-05  -1.1398175e-04   1.3841789e-04  -2.0487564e-04  -5.4811325e-04  -3.9018330e-04  -2.7736844e-04  -1.4519089e-04  -1.5244139e-05  -2.9881438e-04  -1.7432863e-05  -3.5441873e-05   1.3544139e-05  -3.3008604e-04  -1.7872282e-05  -1.1058251e-04  -4.6354716e-04  -3.7984649e-04   6.0593191e-04  -5.6607137e-04  -3.4346845e-04  -3.7869252e-04  -6.9028058e-04  -2.6909017e-04   1.1045481e-04   7.8708355e-05  -3.8670411e-04
   4.4435557e-05   9.2046112e-06  -3.3288391e-04  -1.0579322e-04  -6.6617933e-05  -3.3385379e-05  -3.2737956e-04  -8.4647472e-05   9.7415184e-05  -1.0992998e-04   1.5618248e-04  -2.6917551e-04  -4.6484752e-04  -4.6144650e-04  -2.7294862e-04  -1.2610755e-04   6.3191142e-06  -3.0576982e-04  -3.1379677e-05  -6.2017598e-06   1.3708951e-06  -3.7778888e-04  -1.0496799e-05   6.0402432e-05  -5.0401303e-04  -3.6801098e-04   5.8907573e-04  -4.9512973e-04  -3.7384388e-04  -2.2585965e-04  -8.5175689e-04  -1.6982100e-04   1.0650122e-04  -1.0470190e-04  -4.3386195e-04
   1.8136210e-05   1.3968648e-05  -3.2384708e-04  -7.2492738e-05  -9.6060416e-05   1.5800069e-05  -3.7050102e-04  -7.6435441e-05   2.2333996e-04  -1.0244543e-04   1.7902876e-04  -2.8990160e-04  -3.3961321e-04  -5.3363544e-04  -1.9689086e-04  -1.0846646e-04   4.1003386e-05  -2.9227635e-04  -3.9331910e-05   4.0116054e-05  -1.2831741e-05  -3.9118758e-04   3.7133632e-06   2.5759809e-04  -5.1193725e-04  -3.2925824e-04   4.9351365e-04  -3.7383891e-04  -4.2811927e-04  -2.3447088e-04  -1.0877124e-03  -1.3144058e-04   1.2034797e-04  -1.7320678e-04  -4.8608769e-04
   8.3123041e-06   1.2893964e-05  -2.8731494e-04   1.4999570e-05  -1.0856622e-04   6.1899220e-05  -4.1135866e-04  -7.3813979e-05   3.7432864e-04  -9.7963886e-05   2.0006001e-04  -2.8175293e-04  -2.0889916e-04  -5.9691258e-04  -1.6237442e-05  -9.4547111e-05   8.0639249e-05  -2.8098494e-04  -4.0022591e-05   9.2402224e-05  -2.4021172e-05  -3.7003073e-04   1.7645771e-05   4.6620576e-04  -4.7903816e-04  -2.4685063e-04   3.4894663e-04  -2.0175852e-04  -4.6635061e-04  -3.8878171e-04  -1.3822393e-03  -1.5469648e-04   1.7642911e-04  -1.3497686e-04  -5.2470138e-04
   2.8207884e-05  -2.0332168e-07  -2.1471379e-04   1.7091702e-04  -1.0111961e-04   9.3701216e-05  -4.2737849e-04  -8.9555804e-05   4.9015059e-04  -1.0323239e-04   2.1265337e-04  -2.7377787e-04  -1.0528839e-04  -6.4047769e-04   2.6499663e-04  -8.4842293e-05   1.0823646e-04  -2.8946676e-04  -3.6708458e-05   1.3589491e-04  -2.8730226e-05  -3.1865944e-04   2.7699840e-05   6.7084434e-04  -4.0351518e-04  -1.0913708e-04   1.9508354e-04   1.4829650e-05  -4.4426837e-04  -6.2775338e-04  -1.6902318e-03  -2.1779153e-04   2.8722078e-04  -2.1037795e-05  -5.3538784e-04
   8.7020038e-05  -2.4311896e-05  -1.0390989e-04   3.9903683e-04  -7.4249641e-05   1.0636849e-04  -4.0979427e-04  -1.3029047e-04   5.2111904e-04  -1.2182335e-04   2.1437000e-04  -2.9163540e-04  -4.1088380e-05  -6.5650855e-04   5.9876405e-04  -7.8751218e-05   1.0413180e-04  -3.1906075e-04  -3.6146299e-05   1.6011363e-04  -2.7072643e-05  -2.4088412e-04   3.6807884e-05   8.5737812e-04  -2.9096636e-04   8.1578328e-05   5.8490630e-05   2.6269211e-04  -3.3494885e-04  -8.8175177e-04  -1.9524301e-03  -2.9105338e-04   4.4206571e-04   1.3462814e-04  -5.1719666e-04
   1.8577503e-04  -5.0739298e-05   3.8289661e-05   6.8762928e-04  -3.1082986e-05   1.0416018e-04  -3.6924542e-04  -1.9266158e-04   4.5229960e-04  -1.5163468e-04   2.0893302e-04  -3.4284213e-04  -2.3534583e-06  -6.4317841e-04   9.0795587e-04  -7.5478674e-05   5.6142606e-05  -3.5385485e-04  -4.5024852e-05   1.6465833e-04  -2.2802149e-05  -1.3642758e-04   5.2262047e-05   1.0152343e-03  -1.5344296e-04   3.0478128e-04  -5.9054142e-05   5.2260025e-04  -1.4525978e-04  -1.1046787e-03  -2.1175661e-03  -3.5298496e-04   6.0499494e-04   3.1122428e-04  -4.8568938e-04
   3.1513584e-04  -6.7125409e-05   1.9641647e-04   1.0084133e-03   2.3736206e-05   9.8220822e-05  -3.2958275e-04  -2.6393565e-04   3.0966106e-04  -1.8481618e-04   2.0499148e-04  -4.1323205e-04   4.2508804e-05  -6.0566567e-04   1.1214286e-03  -7.4636155e-05  -3.1474810e-05  -3.7106022e-04  -6.5518463e-05   1.5926547e-04  -2.1181151e-05  -1.9979261e-06   7.9259597e-05   1.1398700e-03  -6.7690567e-06   5.2510499e-04  -1.7414978e-04   7.7164359e-04   8.2807870e-05  -1.2860080e-03  -2.1612332e-03  -3.9912935e-04   7.2464079e-04   5.0534937e-04  -4.6775100e-04
   4.5640598e-04  -6.3836662e-05   3.4936937e-04   1.3210657e-03   8.4727842e-05   1.0061944e-04  -3.1333635e-04  -3.2686096e-04   1.4506489e-04  -2.1044340e-04   2.1209165e-04  -4.7572152e-04   1.2397201e-04  -5.5478280e-04   1.2123858e-03  -7.6294964e-05  -1.3626792e-04  -3.5654250e-04  -9.2434711e-05   1.5784214e-04  -2.5729647e-05   1.6276438e-04   1.1440756e-04   1.2341911e-03   1.3334292e-04   7.0316903e-04  -3.0209858e-04   9.8670635e-04   2.8741817e-04  -1.4417964e-03  -2.0937542e-03  -4.4032809e-04   7.5409189e-04   7.2183966e-04  -4.8937113e-04
   5.8606046e-04  -3.9395050e-05   4.7509983e-04   1.5829752e-03   1.4582541e-04   1.1792220e-04  -3.2762572e-04  -3.6648486e-04   1.0296561e-05  -2.1890830e-04   2.3573184e-04  -5.0559436e-04   2.5276857e-04  -5.0386589e-04   1.2139447e-03  -8.0686463e-05  -2.2557881e-04  -3.1591911e-04  -1.1411732e-04   1.6980356e-04  -3.5641009e-05   3.4755413e-04   1.4418493e-04   1.3075061e-03   2.5521274e-04   8.0981164e-04  -4.3721264e-04   1.1484865e-03   4.1108674e-04  -1.5935870e-03  -1.9549394e-03  -4.9256126e-04   6.7255559e-04   9.5793611e-04  -5.6190533e-04
   6.8281248e-04  -1.9521945e-06   5.5545627e-04   1.7616712e-03   2.0045997e-04   1.4769605e-04  -3.6006732e-04  -3.7591794e-04  -6.4938489e-05  -2.0617938e-04   2.7394114e-04  -4.9402058e-04   4.1107385e-04  -4.6491882e-04   1.1969467e-03  -8.7891553e-05  -2.7116475e-04  -2.7386635e-04  -1.1733343e-04   1.9378461e-04  -4.5481444e-05   5.2707607e-04   1.5096203e-04   1.3714109e-03   3.5387266e-04   8.3689118e-04  -5.4674404e-04   1.2450073e-03   4.2318812e-04  -1.7484083e-03  -1.7980137e-03  -5.6461466e-04   4.9718888e-04   1.1914070e-03  -6.7450671e-04
   7.3473918e-04   3.4255136e-05   5.8001489e-04   1.8449858e-03   2.4192734e-04   1.7961008e-04  -3.8814585e-04  -3.5879336e-04  -8.1102909e-05  -1.7606515e-04   3.1715145e-04  -4.5282010e-04   5.5818405e-04  -4.4529280e-04   1.2218601e-03  -9.7795339e-05  -2.6377998e-04  -2.6040824e-04  -9.4126495e-05   2.1756397e-04  -4.7615020e-05   6.6508120e-04   1.2448629e-04   1.4336385e-03   4.3153111e-04   7.9856062e-04  -5.8396626e-04   1.2735565e-03   3.3241350e-04  -1.8917235e-03  -1.6690588e-03  -6.5087358e-04   2.7720534e-04   1.3814140e-03  -7.9786160e-04
   7.4334629e-04   5.5827193e-05   5.4828112e-04   1.8437277e-03   2.6435146e-04   2.0051857e-04  -3.9645855e-04  -3.2758474e-04  -6.1516577e-05  -1.3949772e-04   3.5177742e-04  -4.0774717e-04   6.4855692e-04  -4.4594519e-04   1.2933403e-03  -1.1031765e-04  -2.2100972e-04  -2.9090175e-04  -4.7266960e-05   2.2473885e-04  -3.6244997e-05   7.2800170e-04   7.2130497e-05   1.4924678e-03   4.9561990e-04   7.2200474e-04  -5.1417353e-04   1.2402792e-03   1.8424727e-04  -1.9969253e-03  -1.5923901e-03  -7.3347602e-04   7.2615243e-05   1.4839543e-03  -8.9785078e-04
   7.2245963e-04   5.6839606e-05   4.6999767e-04   1.7850409e-03   2.6413437e-04   2.0080432e-04  -3.9073790e-04  -2.9852884e-04  -3.5334197e-05  -1.1096367e-04   3.6613306e-04  -3.8348549e-04   6.5332535e-04  -4.6176719e-04   1.3438928e-03  -1.2567086e-04  -1.8356828e-04  -3.5230978e-04   8.8317374e-06   2.0467211e-04  -1.1045853e-05   7.0276123e-04   2.0179968e-05   1.5346687e-03   5.5514817e-04   6.3296221e-04  -3.3936807e-04   1.1575597e-03   4.2540236e-05  -2.0445017e-03  -1.5705264e-03  -7.9227745e-04  -7.0832648e-05   1.4748657e-03  -9.5211976e-04
   6.9217256e-04   4.1386771e-05   3.6319703e-04   1.7002057e-03   2.4134645e-04   1.7864098e-04  -3.9882038e-04  -2.8501687e-04  -2.0680734e-05  -1.0336344e-04   3.5611074e-04  -3.8881050e-04   5.7292858e-04  -4.8379460e-04   1.2624504e-03  -1.4437776e-04  -1.9883347e-04  -4.0650173e-04   5.3143875e-05   1.5976871e-04   2.1528382e-05   6.0776679e-04   3.0222191e-06   1.5389840e-03   6.1663304e-04   5.4419012e-04  -1.0686351e-04   1.0403881e-03  -3.8798415e-05  -2.0387771e-03  -1.5963003e-03  -8.1658497e-04  -1.3810323e-04   1.3667857e-03  -9.6134981e-04
   6.7040185e-04   2.0537604e-05   2.4985243e-04   1.6129313e-03   2.0039131e-04   1.3989439e-04  -4.5526761e-04  -2.9227333e-04  -1.7545703e-05  -1.2335071e-04   3.2774237e-04  -4.1088308e-04   4.3252963e-04  -5.0249515e-04   9.6443831e-04  -1.6699357e-04  -2.9667260e-04  -4.1108084e-04   6.7588131e-05   1.0512755e-04   5.0166978e-05   4.8828032e-04   4.4165583e-05   1.4847815e-03   6.8117306e-04   4.5260301e-04   1.0578329e-04   9.0321939e-04  -4.0953746e-05  -2.0119066e-03  -1.6653126e-03  -8.1197551e-04  -1.4606923e-04   1.2087493e-03  -9.4981480e-04
   6.6558609e-04   5.5345217e-06   1.4969544e-04   1.5327671e-03   1.4935058e-04   9.4037037e-05  -5.7610421e-04  -3.1563640e-04  -1.3954118e-05  -1.6908665e-04   2.9499011e-04  -4.2227554e-04   2.6301408e-04  -5.1111443e-04   4.6646403e-04  -1.9376991e-04  -4.6994109e-04  -3.4729857e-04   4.6838315e-05   5.9949758e-05   6.3202424e-05   3.9695977e-04   1.3778164e-04   1.3625615e-03   7.4378669e-04   3.4565906e-04   2.2523256e-04   7.5819896e-04   1.1660170e-05  -2.0110761e-03  -1.7796732e-03  -7.9843804e-04  -1.3024791e-04   1.0679476e-03  -9.5416629e-04
   6.7345222e-04   1.2239234e-06   7.3544761e-05   1.4554221e-03   9.7966556e-05   4.8662503e-05  -7.3881709e-04  -3.4316236e-04  -5.3660528e-07  -2.3139620e-04   2.7340697e-04  -3.9676449e-04   7.9977115e-05  -5.0810905e-04  -9.0029978e-05  -2.2464721e-04  -6.7234936e-04  -2.4064461e-04   2.9090854e-06   3.5276455e-05   5.3685028e-05   3.6925628e-04   2.4017278e-04   1.1810403e-03   7.9536549e-04   2.1277330e-04   2.2011422e-04   6.1472441e-04   6.4590087e-05  -2.0733650e-03  -1.9428129e-03  -8.0034998e-04  -1.2360341e-04   1.0041288e-03  -1.0044904e-03
   6.7916559e-04   3.3473323e-06   1.8156570e-05   1.3695712e-03   5.4899516e-05   5.7190978e-06  -8.8224956e-04  -3.6122816e-04   1.6482807e-05  -2.9759068e-04   2.7230807e-04  -3.2518400e-04  -1.2586257e-04  -4.9783464e-04  -4.8561662e-04  -2.5978897e-04  -8.3588558e-04  -1.6161941e-04  -3.8655864e-05   2.5115773e-05   2.2567878e-05   4.0526892e-04   2.7872081e-04   9.6650323e-04   8.2655012e-04   5.5178512e-05   1.2118948e-04   4.7980700e-04   5.9775739e-05  -2.2017180e-03  -2.1503088e-03  -8.3330425e-04  -1.3770486e-04   1.0489688e-03  -1.1067094e-03
   6.6409062e-04   1.2637972e-06  -3.4813678e-05   1.2664503e-03   2.5204021e-05  -3.8639533e-05  -9.2875696e-04  -3.6056791e-04   1.2746172e-05  -3.5610152e-04   2.8886230e-04  -2.2297457e-04  -3.8060456e-04  -4.8901862e-04  -5.0302828e-04  -3.0044664e-04  -8.9765392e-04  -1.9977138e-04  -4.9727678e-05   6.7793130e-06  -2.1582046e-05   4.6672812e-04   1.8027957e-04   7.5407280e-04   8.3201058e-04  -1.1137330e-04   1.0450945e-05   3.5850494e-04  -3.7983609e-05  -2.3576994e-03  -2.3835204e-03  -8.9506933e-04  -1.5637504e-04   1.1975765e-03  -1.2363348e-03
   6.1435794e-04  -1.5374419e-05  -1.1328253e-04   1.1460138e-03   9.0344647e-06  -9.0836242e-05  -8.1753259e-04  -3.4028810e-04  -4.3315798e-05  -3.9995118e-04   3.0673484e-04  -1.2473238e-04  -7.0510077e-04  -4.9120979e-04   3.5746589e-06  -3.4943744e-04  -8.2356203e-04  -4.1683271e-04  -1.2609969e-05  -4.8199421e-05  -6.6137451e-05   4.9323624e-04  -9.0891721e-05   5.7492382e-04   8.1319246e-04  -2.6266911e-04  -1.7132887e-05   2.5391104e-04  -2.2554227e-04  -2.4769327e-03  -2.6122141e-03  -9.6621143e-04  -1.4582589e-04   1.4131845e-03  -1.3481276e-03
   5.2748801e-04  -4.9933235e-05  -2.4229889e-04   1.0156161e-03   2.1752594e-06  -1.5522787e-04  -5.3474435e-04  -3.0841632e-04  -1.7108989e-04  -4.2784089e-04   3.0043270e-04  -6.7318324e-05  -1.0909745e-03  -5.1037531e-04   1.0592366e-03  -4.1048828e-04  -6.2167464e-04  -8.0389361e-04   7.0699607e-05  -1.5731811e-04  -9.9334691e-05   4.3381317e-04  -5.0762983e-04   4.4527440e-04   7.7821751e-04  -3.7759301e-04   1.0021730e-04   1.6670654e-04  -4.6291630e-04  -2.4983343e-03  -2.8075236e-03  -1.0201185e-03  -7.5746168e-05   1.6422728e-03  -1.3968883e-03
   4.1424742e-04  -9.6191827e-05  -4.2870585e-04   8.8448747e-04  -1.7036233e-06  -2.3064281e-04  -1.3013442e-04  -2.7875073e-04  -3.6118066e-04  -4.4267913e-04   2.4445588e-04  -6.9859336e-05  -1.4893663e-03  -5.4560043e-04   2.5259717e-03  -4.8614590e-04  -3.4278666e-04  -1.2731622e-03   1.7713866e-04  -3.1376421e-04  -1.1418286e-04   2.7815395e-04  -9.8510389e-04   3.6187560e-04   7.3898333e-04  -4.4875161e-04   3.6030010e-04   9.4868999e-05  -6.9150957e-04  -2.3919947e-03  -2.9583457e-03  -1.0366588e-03   6.0405357e-05   1.8343702e-03  -1.3589008e-03
   2.9532102e-04  -1.4142113e-04  -6.5080740e-04   7.6063263e-04  -7.9563506e-06  -3.0989497e-04   2.8797207e-04  -2.6509006e-04  -5.7273544e-04  -4.4856162e-04   1.2430118e-04  -1.2205863e-04  -1.8207750e-03  -5.8859278e-04   4.0731751e-03  -5.7488814e-04  -6.6724220e-05  -1.6914676e-03   2.7044941e-04  -4.8496935e-04  -1.0974859e-04   6.7023189e-05  -1.4132297e-03   3.0582334e-04   7.0678879e-04  -4.8625079e-04   6.9581345e-04   3.4310411e-05  -8.6040027e-04  -2.1743879e-03  -3.0789739e-03  -1.0121920e-03   2.3671004e-04   1.9588957e-03  -1.2443212e-03
   1.9450778e-04  -1.7296101e-04  -8.5965690e-04   6.5145537e-04  -1.8311972e-05  -3.8227288e-04   5.8616500e-04  -2.7506534e-04  -7.4740220e-04  -4.4797859e-04  -5.5379893e-05  -1.8813899e-04  -2.0020751e-03  -6.2663149e-04   5.2220384e-03  -6.6892453e-04   1.2514167e-04  -1.9322321e-03   3.1588867e-04  -6.2491186e-04  -8.9667868e-05  -1.2657564e-04  -1.6954590e-03   2.5324954e-04   6.8844733e-04  -5.1223842e-04   1.0024995e-03  -1.9361496e-05  -9.4658561e-04  -1.9056663e-03  -3.1998809e-03  -9.6110138e-04   4.0267632e-04   2.0119639e-03  -1.0951449e-03
   1.3116465e-04  -1.8446661e-04  -9.9220418e-04   5.6408509e-04  -3.0017072e-05  -4.3749018e-04   6.6333503e-04  -3.0634101e-04  -8.3250855e-04  -4.4081465e-04  -2.6994347e-04  -2.2435824e-04  -1.9779140e-03  -6.4782589e-04   5.5488115e-03  -7.5429847e-04   1.8254001e-04  -1.9184300e-03   2.9555551e-04  -6.9422217e-04  -5.9135335e-05  -2.3367093e-04  -1.7760798e-03   1.8820169e-04   6.8446598e-04  -5.4898474e-04   1.1839927e-03  -6.8607340e-05  -9.5891306e-04  -1.6681886e-03  -3.3458478e-03  -9.0817071e-04   5.0496886e-04   2.0112698e-03  -9.6865039e-04
   1.1447351e-04  -1.7879253e-04  -9.9073735e-04   5.0360203e-04  -3.7325921e-05  -4.6913818e-04   5.0284486e-04  -3.4711682e-04  -8.0212665e-04  -4.2554378e-04  -4.8240181e-04  -2.0055541e-04  -1.7434676e-03  -6.4643018e-04   4.9667447e-03  -8.1397261e-04   1.0668425e-04  -1.6452430e-03   2.1638551e-04  -6.7831058e-04  -2.2209773e-05  -2.2265918e-04  -1.6510052e-03   1.1138952e-04   6.8982691e-04  -6.0696027e-04   1.1940171e-03  -1.1234592e-04  -9.2713808e-04  -1.5319705e-03  -3.5164459e-03  -8.7553699e-04   5.1290804e-04   1.9833623e-03  -9.1237697e-04
   1.4121893e-04  -1.6644270e-04  -8.2210120e-04   4.7110536e-04  -3.4804016e-05  -4.7629006e-04   1.8075471e-04  -3.8085107e-04  -6.6751830e-04  -4.0163551e-04  -6.5634219e-04  -1.1512676e-04  -1.3502578e-03  -6.2563049e-04   3.7881138e-03  -8.3315070e-04  -5.5159195e-05  -1.1824963e-03   1.0627508e-04  -5.9498101e-04   1.9067949e-05  -1.1477069e-04  -1.3642792e-03   3.9959265e-05   6.9685688e-04  -6.7948061e-04   1.0559497e-03  -1.4607389e-04  -8.8526990e-04  -1.5228280e-03  -3.6833342e-03  -8.7096792e-04   4.3362213e-04   1.9505512e-03  -9.4248116e-04
   1.9756237e-04  -1.6044262e-04  -4.9221551e-04   4.6357952e-04  -2.0988160e-05  -4.6307489e-04  -1.7738483e-04  -3.9311987e-04  -4.7352238e-04  -3.7169829e-04  -7.6846563e-04   3.4059237e-06  -8.9178717e-04  -5.9632474e-04   2.4845854e-03  -8.0498081e-04  -2.3635168e-04  -6.5618037e-04   5.7503775e-07  -4.8740560e-04   6.3473111e-05   2.4444480e-05  -9.9284668e-04  -1.8990987e-06   6.9879490e-04  -7.4667303e-04   8.4853917e-04  -1.6415997e-04  -8.5762498e-04  -1.6126118e-03  -3.8070071e-03  -8.8412728e-04   3.0712585e-04   1.9230415e-03  -1.0375200e-03
   2.6382043e-04  -1.6994556e-04  -5.2292096e-05   4.7491986e-04  -5.3705264e-07  -4.3680161e-04  -4.5808606e-04  -3.7770544e-04  -2.8182389e-04  -3.4212202e-04  -8.1605191e-04   1.0903808e-04  -4.7115362e-04  -5.7220395e-04   1.4273763e-03  -7.3435472e-04  -3.8061541e-04  -2.0672918e-04  -7.3502830e-05  -4.0440133e-04   1.0835227e-04   1.1604637e-04  -6.2214088e-04   3.3224333e-06   6.9249806e-04  -7.8635919e-04   6.6465914e-04  -1.6369220e-04  -8.5127866e-04  -1.7378356e-03  -3.8630501e-03  -8.9286309e-04   1.8401514e-04   1.8979540e-03  -1.1511666e-03
   3.2034784e-04  -1.9579874e-04   4.0773870e-04   4.9616845e-04   1.6472422e-05  -4.0564637e-04  -6.0328888e-04  -3.3939473e-04  -1.4678806e-04  -3.2165030e-04  -8.1688544e-04   1.5968436e-04  -1.6173971e-04  -5.6340138e-04   7.9015351e-04  -6.3800649e-04  -4.5988054e-04   6.6937137e-05  -1.0709733e-04  -3.7702400e-04   1.4804727e-04   1.0889205e-04  -3.1901794e-04   5.5132568e-05   6.7917915e-04  -7.8623393e-04   5.6655693e-04  -1.4798199e-04  -8.5608353e-04  -1.8332964e-03  -3.8632106e-03  -8.7558624e-04   9.9249490e-05   1.8638928e-03  -1.2360965e-03
   3.5238542e-04  -2.3066944e-04   7.8264228e-04   5.1475718e-04   1.8280096e-05  -3.7667056e-04  -6.2232971e-04  -2.9225534e-04  -9.4328367e-05  -3.1807498e-04  -8.0160960e-04   1.3692396e-04   1.9699493e-05  -5.7194300e-04   5.6609669e-04  -5.3998339e-04  -4.7646719e-04   1.4849425e-04  -1.1071355e-04  -4.0430081e-04   1.7442786e-04   8.1166127e-06  -1.1362504e-04   1.3177526e-04   6.6291360e-04  -7.5140863e-04   5.6186080e-04  -1.2758801e-04  -8.5219619e-04  -1.8603504e-03  -3.8585423e-03  -8.2266732e-04   5.6679113e-05   1.8083804e-03  -1.2660066e-03
   3.5272894e-04  -2.6375707e-04   9.8876329e-04   5.1539973e-04  -3.0424203e-06  -3.5449749e-04  -5.7584204e-04  -2.5372126e-04  -1.1453113e-04  -3.3443386e-04  -8.0091978e-04   5.3708020e-05   1.1132629e-04  -5.9150474e-04   6.2207697e-04  -4.6344151e-04  -4.5327647e-04   1.0042170e-04  -1.0642099e-04  -4.5680377e-04   1.7975079e-04  -1.2938969e-04   4.6610825e-07   1.9712991e-04   6.4792461e-04  -7.0346432e-04   6.0921093e-04  -1.1761247e-04  -8.2235952e-04  -1.8177169e-03  -3.9178380e-03  -7.4114488e-04   3.1505209e-05   1.7251037e-03  -1.2455543e-03
   3.2226674e-04  -2.8719386e-04   9.9811680e-04   4.8502572e-04  -4.6985664e-05  -3.4067099e-04  -5.4009375e-04  -2.3679121e-04  -1.7159892e-04  -3.6684674e-04  -8.3248399e-04  -5.3783719e-05   1.7684419e-04  -6.1170524e-04   7.6774409e-04  -4.2184562e-04  -4.1852597e-04   1.7947577e-05  -1.1534594e-04  -4.9576449e-04   1.6053749e-04  -2.3142681e-04   4.9857870e-05   2.1562944e-04   6.3609885e-04  -6.7071628e-04   6.4508518e-04  -1.3204486e-04  -7.6240394e-04  -1.7339126e-03  -4.0867231e-03  -6.5090100e-04  -1.1708426e-05   1.6184456e-03  -1.2044647e-03
   2.6898118e-04  -3.0006521e-04   8.4873458e-04   4.2004383e-04  -1.0342956e-04  -3.3364366e-04  -5.6596455e-04  -2.4396613e-04  -2.2438492e-04  -4.0552276e-04  -8.9369906e-04  -1.4501080e-04   2.6666050e-04  -6.2444224e-04   8.3753525e-04  -4.1401698e-04  -3.9219297e-04  -2.5373229e-05  -1.4675831e-04  -4.9626880e-04   1.2028683e-04  -2.5547660e-04   6.1118240e-05   1.6842065e-04   6.2604947e-04  -6.7418348e-04   6.1686791e-04  -1.7766001e-04  -6.8351632e-04  -1.6476176e-03  -4.3509044e-03  -5.7477906e-04  -9.5576768e-05   1.5035748e-03  -1.1794145e-03
   2.0578502e-04  -3.0771620e-04   6.2448106e-04   3.3079425e-04  -1.5613332e-04  -3.2957134e-04  -6.5348198e-04  -2.6631189e-04  -2.4583229e-04  -4.3896568e-04  -9.6421363e-04  -1.9422179e-04   3.9083906e-04  -6.2856032e-04   7.6156610e-04  -4.2606273e-04  -3.8005892e-04  -9.0255953e-06  -1.9447508e-04  -4.6159766e-04   6.9107002e-05  -2.1490098e-04   4.9340633e-05   6.2175284e-05   6.1409373e-04  -7.1712444e-04   5.0840771e-04  -2.5065828e-04  -6.0584187e-04  -1.5865472e-03  -4.6328460e-03  -5.2815594e-04  -2.1445175e-04   1.4017809e-03  -1.1936894e-03
   1.4736183e-04  -3.1734968e-04   4.1774174e-04   2.3941035e-04  -1.8955124e-04  -3.2401519e-04  -7.5735408e-04  -2.8846212e-04  -2.3267898e-04  -4.5938196e-04  -1.0171839e-03  -2.0047506e-04   5.1619147e-04  -6.2994589e-04   5.8335403e-04  -4.3943612e-04  -3.7707225e-04   3.6347421e-05  -2.4232148e-04  -4.2098149e-04   2.0011628e-05  -1.7110161e-04   1.9436222e-05  -7.4755379e-05   5.9634465e-04  -7.8448275e-04   3.4754552e-04  -3.3800377e-04  -5.4929458e-04  -1.5561259e-03  -4.8289769e-03  -5.1386229e-04  -3.3646458e-04   1.3322886e-03  -1.2461061e-03
   1.0634286e-04  -3.3306357e-04   2.9497995e-04   1.7172260e-04  -1.9608227e-04  -3.1432795e-04  -8.1866054e-04  -2.9707010e-04  -2.0309567e-04  -4.6675871e-04  -1.0336291e-03  -1.8442432e-04   5.8777077e-04  -6.3679903e-04   4.1207104e-04  -4.4090330e-04  -3.7631637e-04   5.7620069e-05  -2.7506604e-04  -4.1155354e-04  -1.6551225e-05  -1.9415846e-04  -2.4738431e-05  -2.0672516e-04   5.7067990e-04  -8.5221860e-04   1.9097581e-04  -4.2304525e-04  -5.2739162e-04  -1.5436537e-03  -4.8650065e-03  -5.2492431e-04  -4.2196750e-04   1.3034778e-03  -1.3146889e-03
   8.9610330e-05  -3.5352985e-04   2.7788235e-04   1.4729645e-04  -1.8029223e-04  -3.0177261e-04  -8.0148393e-04  -2.8838374e-04  -1.8537557e-04  -4.6947936e-04  -1.0129003e-03  -1.7443283e-04   5.6351011e-04  -6.5287011e-04   3.4697185e-04  -4.2936250e-04  -3.7711568e-04   1.7959645e-05  -2.8833875e-04  -4.5433405e-04  -3.7300630e-05  -3.1278969e-04  -7.2559786e-05  -3.0778983e-04   5.3754338e-04  -9.0058713e-04   9.4331241e-05  -4.9272692e-04  -5.4562365e-04  -1.5336015e-03  -4.7411365e-03  -5.5236969e-04  -4.4717363e-04   1.3070452e-03  -1.3711120e-03
   9.5811549e-05  -3.7353914e-04   3.4282036e-04   1.7239923e-04  -1.5782830e-04  -2.9213983e-04  -7.1417069e-04  -2.7100695e-04  -2.0396120e-04  -4.8080803e-04  -9.7422162e-04  -1.9006473e-04   4.4225532e-04  -6.7299133e-04   4.2130225e-04  -4.1618349e-04  -3.8732454e-04  -7.7133474e-05  -2.9207542e-04  -5.3891959e-04  -4.7602171e-05  -4.8522931e-04  -1.0698525e-04  -3.7276375e-04   4.9933273e-04  -9.2384726e-04   8.6134212e-05  -5.4286444e-04  -6.0216204e-04  -1.5226600e-03  -4.5483215e-03  -5.9203879e-04  -4.1913401e-04   1.3186885e-03  -1.3968142e-03
   1.1528568e-04  -3.8820365e-04   4.3591534e-04   2.3919137e-04  -1.4880515e-04  -2.9381426e-04  -6.0573220e-04  -2.6193037e-04  -2.6946026e-04  -5.1242451e-04  -9.4794412e-04  -2.3223052e-04   2.6739438e-04  -6.8424881e-04   5.8733945e-04  -4.1863855e-04  -4.1895683e-04  -1.8321004e-04  -3.0542698e-04  -6.2733795e-04  -5.8824593e-05  -6.1267102e-04  -1.1337067e-04  -4.1744113e-04   4.5889572e-04  -9.3168474e-04   1.6012312e-04  -5.7895679e-04  -6.8854570e-04  -1.5241916e-03  -4.4396715e-03  -6.4531219e-04  -3.7317522e-04   1.3069920e-03  -1.3925572e-03
   1.3324569e-04  -3.9684551e-04   4.9809436e-04   3.3154106e-04  -1.6803246e-04  -3.1346618e-04  -5.3879322e-04  -2.7707289e-04  -3.7661011e-04  -5.6797854e-04  -9.5979293e-04  -2.8479632e-04   1.0380465e-04  -6.7301467e-04   7.4282230e-04  -4.4934970e-04  -4.8035389e-04  -2.4656716e-04  -3.4561611e-04  -6.7558908e-04  -8.2512561e-05  -5.9003202e-04  -9.0603935e-05  -4.6819009e-04   4.1804201e-04  -9.4185991e-04   2.8432027e-04  -6.1215519e-04  -7.8970572e-04  -1.5587815e-03  -4.5491504e-03  -7.1306195e-04  -3.5310333e-04   1.2485799e-03  -1.3765065e-03
   1.3588516e-04  -4.0372895e-04   4.9111742e-04   4.3441195e-04  -2.1656686e-04  -3.5115416e-04  -5.5194908e-04  -3.2077296e-04  -5.0940394e-04  -6.4003898e-04  -1.0157138e-03  -3.2549744e-04   3.0496446e-06  -6.3438533e-04   7.8741030e-04  -5.0723518e-04  -5.7003170e-04  -2.4020903e-04  -4.1660061e-04  -6.6069840e-04  -1.2396331e-04  -3.6786808e-04  -5.6282304e-05  -5.4593768e-04   3.7687641e-04  -9.6808915e-04   4.1589016e-04  -6.5241236e-04  -8.8461116e-04  -1.6365957e-03  -4.8928112e-03  -7.8709202e-04  -3.8437961e-04   1.1429893e-03  -1.3704854e-03
   1.1725091e-04  -4.1474053e-04   4.1372987e-04   5.4152205e-04  -2.7925562e-04  -3.9768431e-04  -6.3404039e-04  -3.8035965e-04  -6.4886030e-04  -7.1239023e-04  -1.0960500e-03  -3.3892927e-04  -2.3131935e-05  -5.7864247e-04   6.8227475e-04  -5.7545205e-04  -6.7607878e-04  -1.8482535e-04  -5.0426094e-04  -5.9797568e-04  -1.7845885e-04   4.3033447e-06  -4.0483239e-05  -6.5277622e-04   3.3425775e-04  -1.0101753e-03   5.1451521e-04  -7.0239347e-04  -9.4946689e-04  -1.7434608e-03  -5.3317938e-03  -8.4576878e-04  -4.5636727e-04   1.0183679e-03  -1.3816084e-03
   8.3492392e-05  -4.3195614e-04   3.0018904e-04   6.5641874e-04  -3.3019207e-04  -4.3654398e-04  -7.2885881e-04  -4.2971715e-04  -7.7868794e-04  -7.6678535e-04  -1.1633498e-03  -3.2428541e-04  -7.5342150e-06  -5.3014874e-04   4.7581422e-04  -6.2806567e-04  -7.8130979e-04  -1.4265371e-04  -5.8130320e-04  -5.3753471e-04  -2.3231137e-04   3.7886083e-04  -6.9167778e-05  -7.6864945e-04   2.8900898e-04  -1.0526417e-03   5.5292400e-04  -7.5561984e-04  -9.6432044e-04  -1.8412945e-03  -5.6333565e-03  -8.5846154e-04  -5.2566739e-04   9.2283398e-04  -1.3926778e-03
   5.1732834e-05  -4.4998099e-04   2.0209336e-04   7.8569661e-04  -3.4382750e-04  -4.5044630e-04  -7.6828210e-04  -4.4080507e-04  -8.8668690e-04  -7.9111557e-04  -1.1803085e-03  -2.9411932e-04  -7.1994391e-06  -5.1751977e-04   2.7799662e-04  -6.4218958e-04  -8.7086082e-04  -1.8399983e-04  -6.1946712e-04  -5.3855230e-04  -2.6850068e-04   5.7094026e-04  -1.4592592e-04  -8.6010032e-04   2.4106863e-04  -1.0729770e-03   5.2370748e-04  -7.9996145e-04  -9.2168438e-04  -1.8843309e-03  -5.5759395e-03  -7.9814345e-04  -5.3948414e-04   9.0388441e-04  -1.3699937e-03
   4.3295073e-05  -4.5720290e-04   1.6295069e-04   9.2792755e-04  -3.0684069e-04  -4.2991203e-04  -7.1351795e-04  -3.9787235e-04  -9.6294406e-04  -7.8528939e-04  -1.1291376e-03  -2.6566139e-04  -6.6284716e-05  -5.5874937e-04   2.0387444e-04  -6.0975150e-04  -9.3789166e-04  -3.4153651e-04  -6.0281111e-04  -6.3278899e-04  -2.7437587e-04   4.6341083e-04  -2.4440081e-04  -8.9633977e-04   1.9171453e-04  -1.0545675e-03   4.4015085e-04  -8.2468305e-04  -8.3324965e-04  -1.8427321e-03  -5.0369883e-03  -6.5670896e-04  -4.6607820e-04   9.8492496e-04  -1.2840244e-03
   7.3832889e-05  -4.4217205e-04   1.9764638e-04   1.0648411e-03  -2.2552501e-04  -3.7993217e-04  -5.8277667e-04  -3.0812208e-04  -9.9768047e-04  -7.6212769e-04  -1.0234726e-03  -2.5035621e-04  -1.8155668e-04  -6.4911705e-04   3.2179791e-04  -5.4367539e-04  -9.8462438e-04  -5.8091036e-04  -5.3585059e-04  -7.9877744e-04  -2.4798946e-04   9.3598537e-05  -3.1843284e-04  -8.6440350e-04   1.4266717e-04  -9.9698140e-04   3.3094356e-04  -8.2721625e-04  -7.3004275e-04  -1.7217201e-03  -4.0610544e-03  -4.5579326e-04  -3.1642723e-04   1.1491420e-03  -1.1303037e-03
   1.4460355e-04  -4.0208193e-04   2.8479184e-04   1.1606870e-03  -1.2531280e-04  -3.2101080e-04  -4.5185740e-04  -2.0383421e-04  -9.8120200e-04  -7.4244128e-04  -9.0685778e-04  -2.4816135e-04  -2.9235223e-04  -7.5971091e-04   6.2745629e-04  -4.7544722e-04  -1.0187147e-03  -8.0963265e-04  -4.4291074e-04  -9.6405088e-04  -2.0029384e-04  -3.4424505e-04  -3.2575970e-04  -7.7646493e-04   9.4722258e-05  -9.1811368e-04   2.3264320e-04  -8.1595354e-04  -6.5302441e-04  -1.5667059e-03  -2.9248011e-03  -2.4661270e-04  -1.4549916e-04   1.3393450e-03  -9.3992904e-04
   2.3892184e-04  -3.4870527e-04   3.7397505e-04   1.1721696e-03  -4.1647541e-05  -2.8270166e-04  -4.2250182e-04  -1.3313664e-04  -9.0658397e-04  -7.4600516e-04  -8.3630643e-04  -2.4991986e-04  -3.0296025e-04  -8.4887666e-04   1.0476793e-03  -4.4377573e-04  -1.0474317e-03  -9.1891084e-04  -3.5858573e-04  -1.0357305e-03  -1.5198479e-04  -5.8184750e-04  -2.5352786e-04  -6.6596299e-04   4.6980083e-05  -8.4670895e-04   1.8292879e-04  -8.0728508e-04  -6.3621602e-04  -1.4493056e-03  -2.1395911e-03  -9.5122254e-05  -2.9019289e-05   1.4781440e-03  -7.7464530e-04
   3.2644128e-04  -3.0767010e-04   4.0519156e-04   1.0661866e-03  -5.0482599e-06  -2.9086779e-04  -5.6700187e-04  -1.4055574e-04  -7.7371445e-04  -7.8227877e-04  -8.5598527e-04  -2.4602754e-04  -1.2541824e-04  -8.8135636e-04   1.4708481e-03  -4.7794636e-04  -1.0732110e-03  -8.3313533e-04  -3.1286737e-04  -9.4410701e-04  -1.2583469e-04  -3.8915713e-04  -1.3356096e-04  -5.7360268e-04  -2.5255065e-06  -8.0832600e-04   2.1336283e-04  -8.1781892e-04  -6.8999088e-04  -1.4361261e-03  -2.2231699e-03  -5.5124430e-05  -2.3237395e-05   1.5046586e-03  -7.0488430e-04
   3.7493682e-04  -3.0954025e-04   3.3440749e-04   8.3752850e-04  -2.6626374e-05  -3.5411282e-04  -8.7893911e-04  -2.4508877e-04  -5.9223257e-04  -8.4536377e-04  -9.7331085e-04  -2.3602021e-04   2.7716177e-04  -8.4558420e-04   1.7945269e-03  -5.8369705e-04  -1.0930379e-03  -5.4553064e-04  -3.1774538e-04  -6.7983870e-04  -1.3733724e-04   3.3003176e-04  -3.8570630e-05  -5.2892504e-04  -5.4865399e-05  -8.1170100e-04   3.4002008e-04  -8.5529301e-04  -7.9414126e-04  -1.5533842e-03  -3.2852988e-03  -1.4132618e-04  -1.2905058e-04   1.4111766e-03  -7.7416433e-04
   3.6519923e-04  -3.7555918e-04   1.5603147e-04   5.1644724e-04  -9.1484413e-05  -4.5691410e-04  -1.2656485e-03  -4.2812052e-04  -3.8142290e-04  -9.1579044e-04  -1.1515712e-03  -2.3287239e-04   8.6172612e-04  -7.6075207e-04   1.9694481e-03  -7.3975342e-04  -1.1015773e-03  -1.3042436e-04  -3.6219711e-04  -3.0960861e-04  -1.8777835e-04   1.4733780e-03  -5.5460463e-05  -5.3622347e-04  -1.0787271e-04  -8.4324973e-04   5.5411964e-04  -9.1296074e-04  -9.0600661e-04  -1.7682245e-03  -4.9194279e-03  -3.1886937e-04  -2.8449105e-04   1.2567394e-03  -9.6719468e-04
   3.0179915e-04  -5.0502137e-04  -8.9081936e-05   1.6033156e-04  -1.6378105e-04  -5.6423683e-04  -1.5883351e-03  -6.3931261e-04  -1.6655189e-04  -9.6822949e-04  -1.3241534e-03  -2.5801978e-04   1.5011891e-03  -6.6976616e-04   2.0156009e-03  -9.0709765e-04  -1.0957153e-03   2.7405584e-04  -4.1820543e-04   4.0282765e-05  -2.6307299e-04   2.7254522e-03  -2.4293712e-04  -5.7249144e-04  -1.5477312e-04  -8.7324297e-04   8.1793289e-04  -9.7066344e-04  -9.8042202e-04  -1.9993526e-03  -6.5303212e-03  -5.1687122e-04  -3.9147114e-04   1.1467896e-03  -1.2068484e-03
   2.1350497e-04  -6.7197980e-04  -3.2696137e-04  -1.6662567e-04  -2.0096068e-04  -6.3570391e-04  -1.7206423e-03  -8.1674376e-04   2.6996920e-05  -9.8139432e-04  -1.4223026e-03  -3.2844156e-04   2.0161180e-03  -6.1991368e-04   2.0017808e-03  -1.0451446e-03  -1.0776478e-03   5.1740336e-04  -4.5405552e-04   2.3407131e-04  -3.3896987e-04   3.6418405e-03  -5.9604313e-04  -5.9851457e-04  -1.8494797e-04  -8.7028090e-04   1.0715611e-03  -1.0023760e-03  -9.9144178e-04  -2.1493991e-03  -7.6505831e-03  -6.5742072e-04  -3.5971758e-04   1.1899399e-03  -1.3854221e-03
   1.4266964e-04  -8.3398347e-04  -4.7878476e-04  -4.1439486e-04  -1.7013690e-04  -6.4226141e-04  -1.5946437e-03  -9.0974511e-04   1.7932303e-04  -9.4582594e-04  -1.4024026e-03  -4.4329828e-04   2.2451298e-03  -6.3900399e-04   2.0033931e-03  -1.1262257e-03  -1.0547776e-03   5.0856138e-04  -4.4773502e-04   1.9050554e-04  -3.9001784e-04   3.8546606e-03  -1.0425855e-03  -5.7700567e-04  -1.8694132e-04  -8.1621396e-04   1.2527818e-03  -9.8669110e-04  -9.4453275e-04  -2.1397329e-03  -8.0218166e-03  -6.8396446e-04  -1.4497596e-04   1.4535895e-03  -1.4084999e-03
   1.2871882e-04  -9.4857841e-04  -4.8901635e-04  -5.5866485e-04  -5.9862548e-05  -5.7817803e-04  -1.2238513e-03  -8.9479022e-04   2.7904293e-04  -8.6660212e-04  -1.2622889e-03  -5.7959050e-04   2.1265585e-03  -7.1884255e-04   2.0642865e-03  -1.1428094e-03  -1.0364994e-03   2.6548258e-04  -3.9444808e-04  -7.6431992e-05  -3.9823059e-04   3.2897594e-03  -1.4742949e-03  -4.8890669e-04  -1.5275010e-04  -7.1425945e-04   1.3237529e-03  -9.1564318e-04  -8.7334547e-04  -1.9337332e-03  -7.5544491e-03  -5.7813205e-04   2.3191325e-04   1.9339296e-03  -1.2281958e-03
   1.9309859e-04  -9.8952302e-04  -3.4246006e-04  -6.0038245e-04   1.1657330e-04  -4.6403639e-04  -7.0419675e-04  -7.8079884e-04   3.2319367e-04  -7.6031080e-04  -1.0421410e-03  -7.0045161e-04   1.7352824e-03  -8.1573677e-04   2.1812548e-03  -1.1063226e-03  -1.0296644e-03  -9.7043856e-05  -3.0590463e-04  -4.6355353e-04  -3.5826550e-04   2.2040890e-03  -1.7908796e-03  -3.4136255e-04  -8.1645041e-05  -5.8699725e-04   1.2899187e-03  -7.9842017e-04  -8.2297408e-04  -1.5453709e-03  -6.2935031e-03  -3.6232479e-04   6.8952731e-04   2.5477556e-03  -8.5779745e-04
   3.3127039e-04  -9.5589372e-04  -6.7613546e-05  -5.5710250e-04   3.2679521e-04  -3.3941760e-04  -1.9024873e-04  -6.0410716e-04   3.1511232e-04  -6.4787565e-04  -8.0967840e-04  -7.7119132e-04   1.2435674e-03  -8.6860626e-04   2.3153520e-03  -1.0393804e-03  -1.0353213e-03  -4.3076044e-04  -2.0279689e-04  -8.2544272e-04  -2.7784586e-04   1.0165545e-03  -1.9334507e-03  -1.6495545e-04   1.8212731e-05  -4.6534766e-04   1.1982104e-03  -6.5867120e-04  -8.2777417e-04  -1.0349464e-03  -4.4303611e-03  -8.9635250e-05   1.1146135e-03   3.1524589e-03  -3.6865476e-04
   5.1435013e-04  -8.7096496e-04   2.7227175e-04  -4.5165213e-04   5.3176325e-04  -2.4707889e-04   1.5803007e-04  -4.1476323e-04   2.6236102e-04  -5.4647384e-04  -6.3342630e-04  -7.7440043e-04   8.3792186e-04  -8.2556764e-04   2.4216489e-03  -9.6494600e-04  -1.0487239e-03  -6.2122755e-04  -1.0447840e-04  -1.0363898e-03  -1.7397788e-04   1.0137671e-04  -1.8984518e-03  -1.6231726e-06   1.3141046e-04  -3.7372101e-04   1.1142768e-03  -5.2636454e-04  -8.9344708e-04  -4.9364124e-04  -2.3425559e-03   1.7549656e-04   1.4088433e-03   3.5979848e-03   1.3044089e-04
   6.9989072e-04  -7.7152287e-04   5.9804344e-04  -3.0270629e-04   7.0021348e-04  -2.1461015e-04   2.4478443e-04  -2.5785062e-04   1.7600389e-04  -4.6408406e-04  -5.5416260e-04  -7.1731163e-04   6.4741285e-04  -6.6675892e-04   2.4801472e-03  -8.9707063e-04  -1.0625160e-03  -6.2556786e-04  -2.1018772e-05  -1.0374055e-03  -6.6703396e-05  -3.2964896e-04  -1.7333765e-03   1.1205176e-04   2.3995136e-04  -3.1892958e-04   1.0901814e-03  -4.2722773e-04  -9.9138450e-04  -1.8816212e-05  -5.7201949e-04   3.7978750e-04   1.5331471e-03   3.7964417e-03   5.3069770e-04
   8.4813737e-04  -6.9189921e-04   8.3937187e-04  -1.2049078e-04   8.1887480e-04  -2.4264291e-04   8.3023908e-05  -1.5705898e-04   7.0984192e-05  -3.9895103e-04  -5.6904944e-04  -6.2842091e-04   7.0962490e-04  -4.1440342e-04   2.5087344e-03  -8.3732913e-04  -1.0708648e-03  -4.7613875e-04   4.8580801e-05  -8.5248984e-04   2.7239999e-05  -2.5789216e-04  -1.5174603e-03   1.5912503e-04   3.2934017e-04  -2.8882877e-04   1.1371471e-03  -3.7399662e-04  -1.0691916e-03   3.1382762e-04   3.9678277e-04   4.9770036e-04   1.5223431e-03   3.7693244e-03   7.6611800e-04
   9.3713042e-04  -6.4974057e-04   9.5822872e-04   9.1234448e-05   8.9395972e-04  -3.0641680e-04  -2.2062317e-04  -1.0854349e-04  -3.3940876e-05  -3.4366158e-04  -6.3746405e-04  -5.4428121e-04   9.7138574e-04  -1.2617056e-04   2.5503470e-03  -7.7818427e-04  -1.0717727e-03  -2.5727021e-04   1.1176214e-04  -5.7306170e-04   9.8601340e-05   1.6419838e-04  -1.3313330e-03   1.4778433e-04   3.9350838e-04  -2.6086610e-04   1.2164108e-03  -3.6287407e-04  -1.0750057e-03   4.7037174e-04   4.7481211e-04   5.3468632e-04   1.4599808e-03   3.6361299e-03   8.3786668e-04
   9.6958264e-04  -6.4037333e-04   9.6131460e-04   3.2868277e-04   9.4391935e-04  -3.6945156e-04  -5.2754290e-04  -8.8126391e-05  -1.1833313e-04  -2.9109127e-04  -7.0415036e-04  -4.9175072e-04   1.3161546e-03   1.2725375e-04   2.6442974e-03  -7.1061699e-04  -1.0661993e-03  -6.3475927e-05   1.7485242e-04  -3.1604699e-04   1.4645050e-04   6.8236835e-04  -1.2255493e-03   1.0597574e-04   4.3620149e-04  -2.1482023e-04   1.2568596e-03  -3.7620103e-04  -9.8466198e-04   4.6214787e-04   9.9636027e-06   5.1726471e-04   1.4323329e-03   3.5525295e-03   8.0382649e-04
   9.6842478e-04  -6.4231269e-04   8.9370960e-04   5.8212789e-04   9.8828180e-04  -4.0103792e-04  -7.2874234e-04  -6.6713874e-05  -1.6462588e-04  -2.3884127e-04  -7.2555681e-04  -4.7456755e-04   1.6124505e-03   2.9274449e-04   2.7996514e-03  -6.3132815e-04  -1.0548806e-03   4.6144254e-05   2.3742361e-04  -1.7039347e-04   1.7596525e-04   1.0549502e-03  -1.2031072e-03   6.8803936e-05   4.6812024e-04  -1.4243617e-04   1.1951346e-03  -3.8946181e-04  -8.1548223e-04   3.3340437e-04  -5.3793937e-04   4.7784360e-04   1.4904612e-03   3.6406780e-03   7.4251142e-04
   9.6397597e-04  -6.3018524e-04   8.1657711e-04   8.3586347e-04   1.0386927e-03  -3.8866454e-04  -7.7612506e-04  -2.4792058e-05  -1.6375180e-04  -1.8994071e-04  -6.8657496e-04  -4.7221780e-04   1.7700950e-03   3.5900908e-04   2.9840590e-03  -5.4554193e-04  -1.0351974e-03   7.4342774e-05   2.9185152e-04  -1.5889767e-04   1.9488041e-04   1.1675061e-03  -1.2258466e-03   6.5118351e-05   5.0122890e-04  -4.9520575e-05   1.0158879e-03  -3.7956951e-04  -6.1674759e-04   1.4249583e-04  -8.7759114e-04   4.4322590e-04   1.6366005e-03   3.9446410e-03   7.1563188e-04
   9.7976008e-04  -5.8778335e-04   7.8198960e-04   1.0748059e-03   1.0960223e-03  -3.4076817e-04  -6.8235717e-04   4.0686919e-05  -1.1941302e-04  -1.4980239e-04  -6.0233707e-04  -4.5196895e-04   1.7776348e-03   3.6043234e-04   3.1328702e-03  -4.6432726e-04  -1.0005061e-03   7.7090277e-05   3.2819351e-04  -2.3737441e-04   2.1047275e-04   1.0734571e-03  -1.2392831e-03   1.0850696e-04   5.4304930e-04   4.9489729e-05   7.6627726e-04  -3.3172578e-04  -4.4320204e-04  -5.4217406e-05  -9.4147353e-04   4.3068302e-04   1.8346559e-03   4.4189719e-03   7.4683077e-04
   1.0233922e-03  -5.1490450e-04   8.1704854e-04   1.2927282e-03   1.1536566e-03  -2.7999005e-04  -5.0026510e-04   1.1859854e-04  -4.8668448e-05  -1.2165915e-04  -5.0678640e-04  -3.8708994e-04   1.6976346e-03   3.5811437e-04   3.1756787e-03  -3.9825562e-04  -9.4277959e-04   1.2726490e-04   3.4134270e-04  -3.2768288e-04   2.2809187e-04   9.3506475e-04  -1.1999396e-03   1.9472279e-04   5.9354241e-04   1.4060698e-04   5.3700281e-04  -2.4338983e-04  -3.2879939e-04  -2.1255731e-04  -8.1979897e-04   4.4956675e-04   2.0353789e-03   4.9479636e-03   8.2144095e-04
   1.0855191e-03  -4.2555353e-04   9.2110829e-04   1.4953748e-03   1.2040008e-03  -2.3074218e-04  -2.9302834e-04   1.9238167e-04   2.2303415e-05  -1.0334612e-04  -4.3433602e-04  -2.7158950e-04   1.6240384e-03   4.0987678e-04   3.0684068e-03  -3.5127215e-04  -8.5741241e-04   2.7454042e-04   3.3598411e-04  -3.6134213e-04   2.5107531e-04   9.1697060e-04  -1.0917350e-03   3.0495381e-04   6.4579910e-04   2.1749758e-04   4.2282941e-04  -1.2488151e-04  -2.7455582e-04  -3.0627014e-04  -6.5979763e-04   5.0383271e-04   2.2023991e-03   5.3923712e-03   9.0350083e-04
   1.1461150e-03  -3.3947424e-04   1.0732391e-03   1.6955357e-03   1.2440401e-03  -2.0716188e-04  -1.0664170e-04   2.4996896e-04   6.6351779e-05  -8.7527587e-05  -4.0366827e-04  -1.2480738e-04   1.6300993e-03   5.4502825e-04   2.8130861e-03  -3.1848971e-04  -7.4766832e-04   5.2143668e-04   3.2607964e-04  -3.1103377e-04   2.8123066e-04   1.1001355e-03  -9.2724949e-04   4.1303859e-04   6.8999041e-04   2.8263422e-04   4.8157407e-04   3.2710088e-06  -2.5336395e-04  -3.3014090e-04  -5.6607998e-04   5.9201749e-04   2.3253178e-03   5.6509497e-03   9.6006016e-04
   1.1845607e-03  -2.7196397e-04   1.2447394e-03   1.9026671e-03   1.2768978e-03  -2.0753745e-04   4.3835476e-05   2.8961245e-04   6.4528213e-05  -6.5179702e-05  -4.1165701e-04   1.6065302e-05   1.7341356e-03   7.5356744e-04   2.4533856e-03  -2.8919626e-04  -6.2617246e-04   8.2275574e-04   3.2893609e-04  -1.9832040e-04   3.1906762e-04   1.4476631e-03  -7.3681667e-04   4.9431511e-04   7.1861548e-04   3.4233279e-04   7.0680713e-04   1.1581923e-04  -2.2676773e-04  -3.0022924e-04  -5.4631190e-04   7.0454489e-04   2.4138477e-03   5.7062632e-03   9.7902725e-04
   1.1887763e-03  -2.2754984e-04   1.4111728e-03   2.1129621e-03   1.3090057e-03  -2.1767888e-04   1.6899389e-04   3.1884442e-04   1.2496862e-05  -3.0388195e-05  -4.3956915e-04   1.1250111e-04   1.8944247e-03   9.9181582e-04   2.0508128e-03  -2.5312282e-04  -5.1195140e-04   1.1063805e-03   3.5711678e-04  -7.7199962e-05   3.6352698e-04   1.8267494e-03  -5.5227190e-04   5.3373852e-04   7.3038816e-04   3.9954792e-04   1.0262300e-03   1.9015276e-04  -1.6541005e-04  -2.4893772e-04  -5.3129898e-04   8.2158804e-04   2.4796017e-03   5.6241597e-03   9.7166613e-04
   1.1594781e-03  -2.0064005e-04   1.5590535e-03   2.3059095e-03   1.3451963e-03  -2.2037777e-04   2.8677227e-04   3.4809261e-04  -7.8702564e-05   1.6332633e-05  -4.6645300e-04   1.4254681e-04   2.0322723e-03   1.2015236e-03   1.6586531e-03  -2.0616615e-04  -4.2367398e-04   1.3065728e-03   4.1253862e-04  -2.6287712e-06   4.1160727e-04   2.0792431e-03  -3.9336100e-04   5.3111347e-04   7.3081226e-04   4.4953323e-04   1.3313462e-03   2.1365110e-04  -6.4217777e-05  -2.1310024e-04  -4.3906126e-04   9.1582473e-04   2.5201261e-03   5.5079130e-03   9.6161751e-04
   1.1083410e-03  -1.8198015e-04   1.6850721e-03   2.4510261e-03   1.3850909e-03  -2.0503484e-04   4.0437051e-04   3.8335379e-04  -1.8760844e-04   6.8037531e-05  -4.8119496e-04   1.1063607e-04   2.0736849e-03   1.3352628e-03   1.3079853e-03  -1.5234223e-04  -3.7192961e-04   1.3937779e-03   4.8569153e-04  -6.6274640e-07   4.5853321e-04   2.1107811e-03  -2.6304449e-04   5.0177856e-04   7.2901422e-04   4.8140954e-04   1.5281222e-03   1.8853323e-04   5.5589127e-05  -2.1712270e-04  -2.2931257e-04   9.6204021e-04   2.5170431e-03   5.4396531e-03   9.6932059e-04
   1.0519701e-03  -1.6628564e-04   1.7899318e-03   2.5232313e-03   1.4230170e-03  -1.7232937e-04   5.1151006e-04   4.2235572e-04  -2.9050134e-04   1.1473928e-04  -4.8675147e-04   4.3830758e-05   1.9905318e-03   1.3768241e-03   1.0093241e-03  -1.0098043e-04  -3.5457965e-04   1.3841867e-03   5.6034012e-04  -5.6697994e-05   4.9884361e-04   1.9440667e-03  -1.5258936e-04   4.7231055e-04   7.3262310e-04   4.8503623e-04   1.5816272e-03   1.3181200e-04   1.5944634e-04  -2.5835197e-04   7.9648773e-05   9.5064979e-04   2.4499823e-03   5.4414971e-03   1.0003375e-03
   1.0051719e-03  -1.5611586e-04   1.8719506e-03   2.5192674e-03   1.4513793e-03  -1.3223720e-04   5.8789551e-04   4.5608822e-04  -3.6918899e-04   1.4838581e-04  -4.9539068e-04  -2.2698270e-05   1.8182234e-03   1.3460111e-03   7.6415681e-04  -6.0789022e-05  -3.5788302e-04   1.3245944e-03   6.2129903e-04  -1.2717817e-04   5.2817073e-04   1.6992297e-03  -5.1572792e-05   4.7227752e-04   7.4344140e-04   4.5909546e-04   1.5284554e-03   6.9700429e-05   2.1990691e-04  -3.0370388e-04   4.3364268e-04   8.9737790e-04   2.3169697e-03   5.4694479e-03   1.0430301e-03
   9.7636919e-04  -1.5962805e-04   1.9249594e-03   2.4646965e-03   1.4652446e-03  -9.7260876e-05   6.1904057e-04   4.7451246e-04  -4.1568824e-04   1.6671354e-04  -5.1866780e-04  -6.2138795e-05   1.6394700e-03   1.2858349e-03   5.7708152e-04  -3.4239638e-05  -3.6292733e-04   1.2646990e-03   6.6125265e-04  -1.6544572e-04   5.4480787e-04   1.5212318e-03   4.4094853e-05   5.2423502e-04   7.5628149e-04   4.1495083e-04   1.4511388e-03   2.8186463e-05   2.3166022e-04  -3.0141071e-04   7.8946381e-04   8.4160769e-04   2.1466268e-03   5.4382416e-03   1.0772455e-03
   9.6619502e-04  -1.8372061e-04   1.9415241e-03   2.4057557e-03   1.4651176e-03  -7.5053606e-05   6.0956052e-04   4.7284298e-04  -4.3272093e-04   1.7372849e-04  -5.5854308e-04  -6.5898821e-05   1.5455522e-03   1.2408177e-03   4.6043136e-04  -1.5668784e-05  -3.5403576e-04   1.2345638e-03   6.8295578e-04  -1.4608979e-04   5.5010186e-04   1.5066994e-03   1.3041009e-04   6.3472008e-04   7.6165295e-04   3.7297650e-04   1.4301244e-03   2.3242203e-05   2.1261160e-04  -2.0325456e-04   1.1553405e-03   8.3217066e-04   1.9923088e-03   5.2663083e-03   1.0891145e-03
   9.6865778e-04  -2.2696992e-04   1.9186803e-03   2.3896336e-03   1.4560340e-03  -6.4730229e-05   5.8462913e-04   4.5462829e-04  -4.3065730e-04   1.7670597e-04  -6.0499454e-04  -4.3107895e-05   1.5970301e-03   1.2384952e-03   4.2885303e-04   5.6458334e-06  -3.2507928e-04   1.2375354e-03   6.9579092e-04  -7.6037861e-05   5.4728566e-04   1.6658982e-03   1.9953528e-04   7.8903517e-04   7.5099757e-04   3.5280787e-04   1.4980715e-03   5.4484211e-05   1.9207942e-04   1.2341986e-05   1.5943276e-03   9.0651802e-04   1.9103370e-03   4.9200999e-03   1.0811979e-03
   9.7358867e-04  -2.7714469e-04   1.8616068e-03   2.4430098e-03   1.4435535e-03  -5.8753863e-05   5.7823857e-04   4.2984818e-04  -4.2241463e-04   1.8150659e-04  -6.4126449e-04  -1.1513930e-05   1.7995203e-03   1.2813647e-03   4.8745828e-04   3.9193706e-05  -2.8107525e-04   1.2582099e-03   7.0896244e-04   1.1400381e-05   5.3932104e-04   1.9271149e-03   2.4614495e-04   9.5241942e-04   7.2182796e-04   3.6289956e-04   1.6194257e-03   1.0491427e-04   1.9413934e-04   3.2555006e-04   2.1833817e-03   1.0722126e-03   1.9342813e-03   4.4331560e-03   1.0706696e-03
   9.6935692e-04  -3.1530371e-04   1.7821420e-03   2.5585382e-03   1.4292896e-03  -4.8751692e-05   6.1534269e-04   4.0947829e-04  -4.1833034e-04   1.8907952e-04  -6.5319752e-04   1.4464662e-05   2.0998202e-03   1.3499449e-03   6.2086323e-04   8.7302651e-05  -2.3469956e-04   1.2779236e-03   7.2547782e-04   7.5361939e-05   5.2702549e-04   2.1759463e-03   2.7129333e-04   1.0789995e-03   6.7998661e-04   3.9532664e-04   1.7080909e-03   1.4744567e-04   2.2507150e-04   6.7543593e-04   2.9477992e-03   1.2982124e-03   2.0582119e-03   3.8897712e-03   1.0783018e-03
   9.4544899e-04  -3.2446708e-04   1.6927129e-03   2.6951565e-03   1.4089909e-03  -3.1281616e-05   6.9794204e-04   3.9995118e-04  -4.2260121e-04   1.9524552e-04  -6.3701411e-04   3.1781950e-05   2.4025247e-03   1.4135605e-03   7.9018780e-04   1.4290963e-04  -1.9950047e-04   1.2880469e-03   7.4038142e-04   8.9135166e-05   5.0872937e-04   2.3126735e-03   2.8141600e-04   1.1272476e-03   6.3777878e-04   4.2888866e-04   1.6759798e-03   1.5625654e-04   2.7076653e-04   9.7913202e-04   3.8016639e-03   1.5209990e-03   2.2367768e-03   3.3868093e-03   1.1166726e-03
   8.9496857e-04  -2.9818871e-04   1.5995690e-03   2.7933705e-03   1.3747282e-03  -9.9693743e-06   8.0237573e-04   4.0071414e-04  -4.3232736e-04   1.9398952e-04  -6.0120196e-04   4.8634553e-05   2.6040031e-03   1.4438936e-03   9.4174809e-04   1.9245280e-04  -1.8305812e-04   1.2938072e-03   7.4423995e-04   5.3039039e-05   4.8187628e-04   2.2997335e-03   2.8382015e-04   1.0765484e-03   6.0875167e-04   4.3939272e-04   1.4848207e-03   1.1847376e-04   3.0488681e-04   1.1665693e-03   4.5345598e-03   1.6668881e-03   2.4032313e-03   2.9971814e-03   1.1835917e-03
   8.1690878e-04  -2.4434982e-04   1.4998454e-03   2.8007345e-03   1.3202475e-03   7.2369594e-06   8.8965148e-04   4.0603350e-04  -4.3917034e-04   1.8240904e-04  -5.6162255e-04   7.7015131e-05   2.6330773e-03   1.4259376e-03   1.0255978e-03   2.2272118e-04  -1.8339878e-04   1.3078531e-03   7.2980544e-04  -7.9954279e-06   4.4580598e-04   2.1719884e-03   2.8233329e-04   9.3695725e-04   6.0172862e-04   4.1231932e-04   1.1705009e-03   4.0657800e-05   3.0322632e-04   1.2151685e-03   4.9043801e-03   1.6841509e-03   2.4987704e-03   2.7498219e-03   1.2623270e-03
   7.1753096e-04  -1.8196869e-04   1.3847060e-03   2.6961628e-03   1.2463749e-03   1.3868241e-05   9.2463550e-04   4.0974954e-04  -4.3294978e-04   1.6439786e-04  -5.3264957e-04   1.2280206e-04   2.4796661e-03   1.3622727e-03   1.0156167e-03   2.2818605e-04  -1.9030973e-04   1.3392918e-03   6.9796178e-04  -5.9407041e-05   4.0407848e-04   2.0062323e-03   2.7627050e-04   7.4649823e-04   6.1693077e-04   3.5128777e-04   8.2733895e-04  -5.3433672e-05   2.5639049e-04   1.1623658e-03   4.8299921e-03   1.5687492e-03   2.4990519e-03   2.6284291e-03   1.3284890e-03
   6.0989131e-04  -1.3221228e-04   1.2472312e-03   2.4997790e-03   1.1630285e-03   1.0128737e-05   8.9445122e-04   4.0999815e-04  -4.0590158e-04   1.5058440e-04  -5.1940489e-04   1.7938361e-04   2.1953492e-03   1.2699697e-03   9.1970898e-04   2.1472294e-04  -1.9055689e-04   1.3859438e-03   6.5925054e-04  -7.4959607e-05   3.6473904e-04   1.8743165e-03   2.6331752e-04   5.5711094e-04   6.4610998e-04   2.7743197e-04   5.6316768e-04  -1.3271894e-04   1.7378494e-04   1.0860265e-03   4.4690804e-03   1.3668976e-03   2.4225644e-03   2.5849377e-03   1.3620104e-03
   5.1092036e-04  -1.0796429e-04   1.0903546e-03   2.2627318e-03   1.0861952e-03   4.1276244e-06   8.1550557e-04   4.1096946e-04  -3.5614384e-04   1.5424409e-04  -5.1559077e-04   2.2876736e-04   1.8671337e-03   1.1729137e-03   7.7365583e-04   1.9745057e-04  -1.7412002e-04   1.4347763e-03   6.2983716e-04  -4.8166596e-05   3.3794291e-04   1.8099507e-03   2.4396618e-04   4.1611798e-04   6.7669404e-04   2.1984821e-04   4.4901742e-04  -1.7134439e-04   7.7587290e-05   1.0651434e-03   4.0570511e-03   1.1522482e-03   2.3160519e-03   2.5618994e-03   1.3581802e-03
   4.3658481e-04  -1.0747640e-04   9.2973479e-04   2.0438170e-03   1.0311725e-03   8.2292663e-06   7.2484353e-04   4.2062107e-04  -2.8897868e-04   1.8509595e-04  -5.0790247e-04   2.5026020e-04   1.5816281e-03   1.0936330e-03   6.2261167e-04   1.9381536e-04  -1.3847378e-04   1.4699413e-03   6.2410464e-04   7.3153383e-06   3.3186213e-04   1.8034454e-03   2.2384746e-04   3.5114781e-04   6.9802796e-04   2.0222872e-04   4.8733517e-04  -1.5813809e-04  -8.4585799e-06   1.1429455e-03   3.7652550e-03   9.9232595e-04   2.2270724e-03   2.5163337e-03   1.3295639e-03
   3.9675273e-04  -1.1572117e-04   7.8911771e-04   1.8861338e-03   1.0056099e-03   3.2612839e-05   6.6124543e-04   4.4575508e-04  -2.1522776e-04   2.4416609e-04  -4.8418061e-04   2.3231545e-04   1.3973202e-03   1.0474483e-03   5.0141755e-04   2.1555528e-04  -8.9181463e-05   1.4830446e-03   6.4778741e-04   6.7101952e-05   3.4882815e-04   1.8204623e-03   2.1179252e-04   3.6342142e-04   7.0659217e-04   2.3245941e-04   6.1347318e-04  -9.9474695e-05  -6.8299370e-05   1.3076545e-03   3.6727265e-03   9.2183927e-04   2.1805952e-03   2.4361915e-03   1.2969607e-03
   3.9182790e-04  -1.1262815e-04   6.9036440e-04   1.8039327e-03   1.0059424e-03   7.9592050e-05   6.4677955e-04   4.8741809e-04  -1.4692768e-04   3.2238648e-04  -4.4043234e-04   1.8081994e-04   1.3325664e-03   1.0395879e-03   4.2361201e-04   2.6343283e-04  -3.6905767e-05   1.4788150e-03   6.9524039e-04   1.0958456e-04   3.8371817e-04   1.8298976e-03   2.1437687e-04   4.3049094e-04   7.0732133e-04   2.9955915e-04   7.2934292e-04  -1.5332531e-05  -9.6471034e-05   1.4962513e-03   3.7474853e-03   9.3211827e-04   2.1710759e-03   2.3427792e-03   1.2760214e-03
   4.1273859e-04  -8.3673796e-05   6.4332440e-04   1.7827930e-03   1.0191661e-03   1.4173798e-04   6.7755906e-04   5.3936767e-04  -9.1963397e-05   4.0394609e-04  -3.8288944e-04   1.1886274e-04   1.3679500e-03   1.0649393e-03   3.8262215e-04   3.2697729e-04   7.6636024e-06   1.4722911e-03   7.5219234e-04   1.2646892e-04   4.2568499e-04   1.8237715e-03   2.3045223e-04   5.1663088e-04   7.1014714e-04   3.7863283e-04   7.5226603e-04   6.9140311e-05  -9.4865893e-05   1.6209310e-03   3.8497970e-03   9.7795995e-04   2.1716184e-03   2.2791147e-03   1.2681959e-03
   4.4459608e-04  -2.7284575e-05   6.4079749e-04   1.7906799e-03   1.0292553e-03   2.0482451e-04   7.2711776e-04   5.9054629e-04  -5.0069950e-05   4.7313297e-04  -3.2419851e-04   7.8206198e-05   1.4585108e-03   1.1098702e-03   3.6214583e-04   3.8926501e-04   3.8515012e-05   1.4793358e-03   8.0278498e-04   1.2518797e-04   4.6272448e-04   1.8181771e-03   2.4951962e-04   5.8679841e-04   7.2351040e-04   4.4128063e-04   6.5510155e-04   1.3274516e-04  -6.7255751e-05   1.6103497e-03   3.8010771e-03   9.9872646e-04   2.1533705e-03   2.2905588e-03   1.2603600e-03
   4.7270959e-04   4.4517325e-05   6.6131761e-04   1.7940776e-03   1.0250818e-03   2.5422440e-04   7.6046929e-04   6.3039351e-04  -1.2413783e-05   5.2144536e-04  -2.7600522e-04   8.6829772e-05   1.5508316e-03   1.1559693e-03   3.4869582e-04   4.3457700e-04   5.6524088e-05   1.5065572e-03   8.3734462e-04   1.2283074e-04   4.8711200e-04   1.8367380e-03   2.5588527e-04   6.1857008e-04   7.4820640e-04   4.6691063e-04   4.7859698e-04   1.6428863e-04  -1.6190468e-05   1.4460658e-03   3.4958678e-03   9.4622234e-04   2.1036603e-03   2.4059017e-03   1.2325903e-03
   4.8828591e-04   1.1238032e-04   6.7904254e-04   1.7719577e-03   1.0056545e-03   2.8145843e-04   7.5233844e-04   6.5402535e-04   3.4433317e-05   5.5125589e-04  -2.4239926e-04   1.5793633e-04   1.5999373e-03   1.1853310e-03   3.3873343e-04   4.5532361e-04   6.8280031e-05   1.5467445e-03   8.5680350e-04   1.3577564e-04   4.9895281e-04   1.8887648e-03   2.3712577e-04   6.0720870e-04   7.7488413e-04   4.5001795e-04   3.1008737e-04   1.6352440e-04   5.5430795e-05   1.1715833e-03   2.9620139e-03   8.0683705e-04   2.0323524e-03   2.6247643e-03   1.1699838e-03
   4.9107266e-04   1.5947910e-04   6.7620340e-04   1.7215796e-03   9.7974436e-04   2.8734241e-04   7.0026785e-04   6.6427817e-04   1.0156800e-04   5.7395094e-04  -2.1809226e-04   2.8439390e-04   1.5809258e-03   1.1862520e-03   3.3661808e-04   4.5478306e-04   8.2387516e-05   1.5826205e-03   8.7134464e-04   1.7103752e-04   5.0588127e-04   1.9568289e-03   1.9225581e-04   5.6234695e-04   7.8682194e-04   4.0033273e-04   2.3878849e-04   1.3756388e-04   1.3973509e-04   8.6859759e-04   2.3255795e-03   6.0617155e-04   1.9634669e-03   2.9141465e-03   1.0723227e-03
   4.8760613e-04   1.7975940e-04   6.5147370e-04   1.6545982e-03   9.6012157e-04   2.8005475e-04   6.2538678e-04   6.6934078e-04   1.9082919e-04   6.0338405e-04  -1.9234991e-04   4.4072597e-04   1.4922096e-03   1.1573117e-03   3.4545525e-04   4.4439128e-04   1.0519167e-04   1.5968144e-03   8.9407526e-04   2.2336733e-04   5.1889685e-04   2.0022441e-03   1.3438656e-04   4.9928692e-04   7.6720229e-04   3.3654360e-04   3.1054634e-04   9.5579322e-05   2.2071642e-04   6.1806780e-04   1.7390259e-03   3.9449165e-04   1.9184483e-03   3.2152266e-03   9.5608848e-04
   4.8608010e-04   1.8008798e-04   6.1911187e-04   1.5871208e-03   9.5570344e-04   2.6957277e-04   5.6061632e-04   6.7744195e-04   2.9139311e-04   6.4807857e-04  -1.5613061e-04   5.9216085e-04   1.3507009e-03   1.1077371e-03   3.5778611e-04   4.3736130e-04   1.3787794e-04   1.5822210e-03   9.3327672e-04   2.7871731e-04   5.4640207e-04   1.9862142e-03   8.5555788e-05   4.3025240e-04   7.0749922e-04   2.7757321e-04   5.0616590e-04   4.4988097e-05   2.7670257e-04   4.6894123e-04   1.3149307e-03   2.2293323e-04   1.9022679e-03   3.4598808e-03   8.4750087e-04
   4.9071456e-04   1.7529806e-04   5.9907883e-04   1.5300284e-03   9.6593105e-04   2.6194795e-04   5.3331454e-04   6.9175824e-04   3.8207968e-04   7.0612156e-04  -1.0807671e-04   7.0690020e-04   1.1825244e-03   1.0534412e-03   3.5313866e-04   4.4212208e-04   1.7605953e-04   1.5462689e-03   9.8730763e-04   3.2148874e-04   5.8940257e-04   1.8941219e-03   6.6148918e-05   3.5997495e-04   6.1260076e-04   2.3584567e-04   7.5365079e-04  -9.4216075e-06   2.8851355e-04   4.2587362e-04   1.0837282e-03   1.2350029e-04   1.9004713e-03   3.5930069e-03   7.7043253e-04
   4.9864996e-04   1.7921973e-04   6.0367660e-04   1.4843763e-03   9.8036905e-04   2.5664954e-04   5.5136054e-04   7.0844986e-04   4.3924278e-04   7.6530501e-04  -5.5967132e-05   7.6581782e-04   1.0137804e-03   1.0102249e-03   3.0552014e-04   4.5873385e-04   2.1180228e-04   1.5063179e-03   1.0447281e-03   3.4162271e-04   6.4022536e-04   1.7470900e-03   8.4449013e-05   2.8678402e-04   4.9956283e-04   2.1481408e-04   9.6480147e-04  -6.4237400e-05   2.4929066e-04   4.5565428e-04   9.9085376e-04   1.0029944e-04   1.8883687e-03   3.5920299e-03   7.3541293e-04
   5.0101831e-04   1.9675709e-04   6.2810112e-04   1.4430757e-03   9.8374567e-04   2.4813763e-04   5.9879303e-04   7.1896578e-04   4.4714002e-04   8.0858491e-04  -1.2840064e-05   7.6580991e-04   8.6444995e-04   9.8708970e-04   1.9776754e-04   4.7958174e-04   2.3702234e-04   1.4790414e-03   1.0894825e-03   3.3809937e-04   6.8543473e-04   1.5928784e-03   1.3171103e-04   2.0731619e-04   3.9054168e-04   2.1033228e-04   1.0757986e-03  -1.1610782e-04   1.6997884e-04   5.0685648e-04   9.3249837e-04   1.3284075e-04   1.8465380e-03   3.4738958e-03   7.3492975e-04
   4.8760584e-04   2.2119137e-04   6.5030635e-04   1.3966382e-03   9.6379663e-04   2.3039425e-04   6.4260833e-04   7.1525219e-04   4.0578941e-04   8.2234858e-04   1.0044451e-05   7.1724068e-04   7.4611767e-04   9.8253367e-04   3.4348985e-05   4.9364846e-04   2.4675496e-04   1.4703136e-03   1.1085335e-03   3.1765818e-04   7.1163627e-04   1.4819955e-03   1.8546816e-04   1.2135469e-04   3.0354250e-04   2.1399674e-04   1.0731814e-03  -1.6186712e-04   7.6269884e-05   5.3438079e-04   8.1543450e-04   1.8803982e-04   1.7732063e-03   3.2854562e-03   7.4706075e-04
   4.5259501e-04   2.3789906e-04   6.4110599e-04   1.3390394e-03   9.1758557e-04   2.0153663e-04   6.4788363e-04   6.9487200e-04   3.3187517e-04   8.0332800e-04   9.3037406e-06   6.3866994e-04   6.6257897e-04   9.8550669e-04  -1.5598570e-04   4.9212552e-04   2.4088089e-04   1.4713894e-03   1.0978971e-03   2.9018667e-04   7.1137544e-04   1.4432176e-03   2.1995710e-04   3.3861026e-05   2.4550047e-04   2.1659632e-04   9.9497719e-04  -2.0009729e-04  -2.7308572e-06   5.1846617e-04   6.1035063e-04   2.3545741e-04   1.6858379e-03   3.0825648e-03   7.4559147e-04
   3.9818461e-04   2.3246794e-04   5.8013969e-04   1.2704392e-03   8.5273548e-04   1.6569335e-04   5.9448427e-04   6.6284736e-04   2.5175497e-04   7.6042797e-04  -9.0211806e-06   5.5133767e-04   6.1174500e-04   9.8076661e-04  -3.3030866e-04   4.7256798e-04   2.2371042e-04   1.4636449e-03   1.0639109e-03   2.6374130e-04   6.8613427e-04   1.4710076e-03   2.1879862e-04  -4.6690177e-05   2.1073864e-04   2.1056585e-04   9.0733601e-04  -2.3276622e-04  -4.8881389e-05   4.6949254e-04   3.6311822e-04   2.5930093e-04   1.6109215e-03   2.9082752e-03   7.1162987e-04
   3.3403473e-04   1.9877106e-04   4.6910573e-04   1.1957424e-03   7.8289234e-04   1.3103036e-04   4.8689908e-04   6.2900531e-04   1.8991329e-04   7.1045046e-04  -3.3369466e-05   4.7412503e-04   5.8753509e-04   9.5624558e-04  -4.4906020e-04   4.3965341e-04   2.0178661e-04   1.4293379e-03   1.0191707e-03   2.4169715e-04   6.4493949e-04   1.5298371e-03   1.8309067e-04  -1.1228518e-04   1.8525500e-04   1.9126564e-04   8.6889969e-04  -2.6519012e-04  -6.4314430e-05   4.1762082e-04   1.5778540e-04   2.6208200e-04   1.5683715e-03   2.7789343e-03   6.4122246e-04
   2.7282588e-04   1.4258294e-04   3.3410653e-04   1.1205778e-03   7.2015688e-04   1.0518310e-04   3.5189290e-04   6.0230488e-04   1.5848540e-04   6.6999206e-04  -5.3514548e-05   4.1914362e-04   5.8122224e-04   9.0883981e-04  -4.9193512e-04   4.0241019e-04   1.8104899e-04   1.3622813e-03   9.7561418e-04   2.2283182e-04   5.9947418e-04   1.5726325e-03   1.3020412e-04  -1.5920866e-04   1.5467862e-04   1.5743142e-04   9.0240053e-04  -3.0364856e-04  -6.9825161e-05   3.9498092e-04   6.2612919e-05   2.5912543e-04   1.5599942e-03   2.6819932e-03   5.4614188e-04
   2.2440888e-04   7.8805431e-05   2.1528103e-04   1.0475389e-03   6.6877494e-04   9.0825153e-05   2.2575392e-04   5.8544311e-04   1.5266790e-04   6.4765662e-04  -6.6281660e-05   3.8899240e-04   5.8231113e-04   8.4556674e-04  -4.6500063e-04   3.6963928e-04   1.6454255e-04   1.2720252e-03   9.3853584e-04   2.0347023e-04   5.5845373e-04   1.5641454e-03   8.4005595e-05  -1.8964449e-04   1.1188770e-04   1.1115998e-04   9.8798715e-04  -3.5168111e-04  -9.2519607e-05   4.2044913e-04   9.3722199e-05   2.6783659e-04   1.5685005e-03   2.5850718e-03   4.4833505e-04
   1.9159187e-04   2.4055762e-05   1.4941125e-04   9.7483030e-04   6.2345876e-04   8.3895793e-05   1.3842731e-04   5.7286955e-04   1.5390282e-04   6.4032077e-04  -7.6905839e-05   3.7677915e-04   5.7951186e-04   7.7967491e-04  -3.9657654e-04   3.4591550e-04   1.5156194e-04   1.1789589e-03   9.0452994e-04   1.8005288e-04   5.2408729e-04   1.4968677e-03   6.2272869e-05  -2.1065057e-04   6.0209099e-05   5.7365753e-05   1.0782365e-03  -4.0742883e-04  -1.4908044e-04   4.9311254e-04   2.1011345e-04   2.9769633e-04   1.5672446e-03   2.4524776e-03   3.7088941e-04
   1.6963937e-04  -1.1260725e-05   1.5422901e-04   8.9783536e-04   5.7306455e-04   7.5482902e-05   1.0216313e-04   5.5348023e-04   1.3937961e-04   6.3510315e-04  -9.5375071e-05   3.6895639e-04   5.6230137e-04   7.2394311e-04  -3.2411696e-04   3.2994602e-04   1.3837847e-04   1.1034493e-03   8.6406182e-04   1.5071644e-04   4.9219787e-04   1.3907803e-03   6.8098503e-05  -2.3129226e-04   1.0530316e-05   2.4373039e-06   1.1227181e-03  -4.6409972e-04  -2.3373764e-04   5.9496646e-04   3.3750982e-04   3.4547877e-04   1.5348562e-03   2.2625432e-03   3.2892392e-04
   1.4947951e-04  -2.7339556e-05   2.2114161e-04   8.1231876e-04   5.0756935e-04   5.6328430e-05   1.0879628e-04   5.1680632e-04   9.3474759e-05   6.1602448e-04  -1.2995875e-04   3.4994760e-04   5.2309915e-04   6.8486546e-04  -2.7820983e-04   3.1576806e-04   1.2013428e-04   1.0554530e-03   8.0712000e-04   1.1532502e-04   4.5559509e-04   1.2781465e-03   8.9349480e-05  -2.5964310e-04  -2.5923056e-05  -4.7812948e-05   1.0886122e-03  -5.1374361e-04  -3.1818220e-04   6.9957785e-04   4.0869517e-04   3.9701496e-04   1.4662371e-03   2.0182247e-03   3.2392127e-04
   1.2281250e-04  -3.3894630e-05   3.1901596e-04   7.1724906e-04   4.2436257e-04   2.1593669e-05   1.3568385e-04   4.5942960e-04   1.5613476e-05   5.7227438e-04  -1.8171422e-04   3.0754934e-04   4.5959532e-04   6.6049310e-04  -2.7147139e-04   2.9601404e-04   9.3017356e-05   1.0302806e-03   7.2892598e-04   7.4423544e-05   4.0873932e-04   1.1838328e-03   1.0607211e-04  -3.0074947e-04  -4.4918295e-05  -9.0179921e-05   9.6935494e-04  -5.5233034e-04  -3.6519638e-04   7.8212505e-04   3.9783880e-04   4.3400796e-04   1.3737216e-03   1.7462709e-03   3.4379162e-04
   8.6419503e-05  -4.4394921e-05   4.0771638e-04   6.1577297e-04   3.3038150e-04  -2.6704229e-05   1.5716345e-04   3.8792874e-04  -7.9494232e-05   5.0395931e-04  -2.4316303e-04   2.3788676e-04   3.7619981e-04   6.4271514e-04  -2.9765605e-04   2.6564638e-04   5.5911903e-05   1.0124604e-03   6.3275167e-04   2.8251901e-05   3.5117674e-04   1.1130570e-03   1.0178876e-04  -3.5585579e-04  -5.2489249e-05  -1.2501288e-04   7.8052020e-04  -5.8285473e-04  -3.4978415e-04   8.2677341e-04   3.2613793e-04   4.4253323e-04   1.2782892e-03   1.4863274e-03   3.6851299e-04
   4.3514628e-05  -6.8677888e-05   4.5577734e-04   5.1417638e-04   2.3890362e-04  -8.0713929e-05   1.5626618e-04   3.1652726e-04  -1.6912667e-04   4.2248622e-04  -3.0183719e-04   1.4807362e-04   2.8374995e-04   6.2249880e-04  -3.4007494e-04   2.2452144e-04   1.0960856e-05   9.8545977e-04   5.2870670e-04  -2.3280969e-05   2.8805336e-04   1.0525256e-03   7.2507093e-05  -4.2232397e-04  -6.2111729e-05  -1.5524423e-04   5.4843177e-04  -6.1401696e-04  -2.7557771e-04   8.2939776e-04   2.3662785e-04   4.1938497e-04   1.1968759e-03   1.2760949e-03   3.7864671e-04
   1.7176103e-06  -1.0771790e-04   4.5365153e-04   4.1985724e-04   1.6306646e-04  -1.3044728e-04   1.3115813e-04   2.6066531e-04  -2.3308930e-04   3.4561221e-04  -3.4640692e-04   5.4601416e-05   1.9716236e-04   5.9507380e-04  -3.8285690e-04   1.7771314e-04  -3.7020054e-05   9.4176177e-04   4.2951689e-04  -7.9552345e-05   2.2768855e-04   9.8285486e-04   2.8252463e-05  -4.9365842e-04  -8.6919528e-05  -1.8363193e-04   3.0010051e-04  -6.5444672e-04  -1.7573821e-04   7.9628278e-04   1.6035532e-04   3.7351635e-04   1.1338879e-03   1.1393360e-03   3.6312727e-04
  -3.0960589e-05  -1.5308011e-04   4.1528739e-04   3.3954062e-04   1.0988737e-04  -1.6790803e-04   9.3409864e-05   2.2999939e-04  -2.6196919e-04   2.8982037e-04  -3.7178790e-04  -2.2686036e-05   1.3150774e-04   5.6227884e-04  -4.1788656e-04   1.3364472e-04  -8.1897262e-05   8.8743889e-04   3.4584326e-04  -1.3776420e-04   1.7782593e-04   8.9411740e-04  -1.3487608e-05  -5.5979198e-04  -1.3109701e-04  -2.0955637e-04   6.0260161e-05  -7.0563908e-04  -9.7009470e-05   7.4071001e-04   9.9190780e-05   3.2209931e-04   1.0818738e-03   1.0806056e-03   3.2355238e-04
  -4.9801900e-05  -1.9097442e-04   3.6751415e-04   2.7832130e-04   7.7934259e-05  -1.8952375e-04   5.9729504e-05   2.2435092e-04  -2.5925151e-04   2.6380099e-04  -3.8051573e-04  -6.8510271e-05   9.7694421e-05   5.3099880e-04  -4.4427798e-04   1.0100699e-04  -1.1781396e-04   8.3854859e-04   2.8347349e-04  -1.9216847e-04   1.4267428e-04   7.9492305e-04  -3.8206399e-05  -6.0843641e-04  -1.8565007e-04  -2.2760220e-04  -1.4528111e-04  -7.5833237e-04  -7.6090342e-05   6.7890971e-04   3.4616980e-05   2.8314700e-04   1.0302019e-03   1.0872679e-03   2.7353430e-04
  -5.4937420e-05  -2.0846531e-04   3.3396811e-04   2.3925268e-04   5.9674687e-05  -1.9599250e-04   4.2173182e-05   2.3457712e-04  -2.3704664e-04   2.6586847e-04  -3.7986488e-04  -7.8051991e-05   9.9085853e-05   5.0887174e-04  -4.6253370e-04   8.5778869e-05  -1.4049513e-04   8.1170682e-04   2.4330836e-04  -2.3467837e-04   1.2221139e-04   7.0934999e-04  -4.2532316e-05  -6.2811736e-04  -2.3165601e-04  -2.2949472e-04  -2.8607014e-04  -7.9539762e-04  -1.2076640e-04   6.2561897e-04  -4.6469431e-05   2.6786386e-04   9.7546296e-04   1.1370108e-03   2.3321966e-04
  -5.0281553e-05  -1.9871432e-04   3.2258444e-04   2.2290940e-04   4.6916746e-05  -1.9020344e-04   4.1980464e-05   2.4783646e-04  -2.0818843e-04   2.8609289e-04  -3.7667993e-04  -5.8116839e-05   1.3028149e-04   4.9995654e-04  -4.6907438e-04   8.9394198e-05  -1.4803793e-04   8.1444823e-04   2.2351340e-04  -2.5700132e-04   1.1373933e-04   6.6362455e-04  -3.5579309e-05  -6.1261974e-04  -2.4968947e-04  -2.0899702e-04  -3.2988863e-04  -8.0048136e-04  -2.0468682e-04   5.8906688e-04  -1.2969211e-04   2.7557337e-04   9.2640746e-04   1.2075844e-03   2.2059286e-04
  -4.0865791e-05  -1.6304434e-04   3.2270170e-04   2.2662488e-04   3.6021982e-05  -1.7487774e-04   4.9806502e-05   2.5464821e-04  -1.7908339e-04   3.1178293e-04  -3.7306128e-04  -2.3140903e-05   1.7854781e-04   5.0275633e-04  -4.5612003e-04   1.0850786e-04  -1.4114619e-04   8.4080920e-04   2.2210670e-04  -2.5369538e-04   1.1453053e-04   6.7055091e-04  -3.2904118e-05  -5.6496495e-04  -2.3062117e-04  -1.6712942e-04  -2.5491355e-04  -7.6797075e-04  -2.7825113e-04   5.6611362e-04  -1.7558066e-04   2.9307266e-04   8.9983491e-04   1.2851795e-03   2.4257990e-04
  -3.0201667e-05  -1.0944294e-04   3.1269470e-04   2.4395580e-04   2.9826844e-05  -1.5148637e-04   5.1695752e-05   2.5394588e-04  -1.4706912e-04   3.3359087e-04  -3.6552525e-04   1.2071158e-05   2.2766231e-04   5.1151920e-04  -4.1781872e-04   1.3629807e-04  -1.2289541e-04   8.7446248e-04   2.3836718e-04  -2.2492115e-04   1.2381209e-04   7.2067004e-04  -4.6382454e-05  -4.9839180e-04  -1.8207070e-04  -1.1431506e-04  -6.6033863e-05  -7.0866366e-04  -2.9179425e-04   5.3996872e-04  -1.5141514e-04   2.9896310e-04   9.0955821e-04   1.3685018e-03   2.8943233e-04
  -1.9032026e-05  -4.8701353e-05   2.7405022e-04   2.6548753e-04   3.5080200e-05  -1.2095032e-04   3.7441932e-05   2.5322178e-04  -1.0349878e-04   3.4923665e-04  -3.4803897e-04   3.9488881e-05   2.6308867e-04   5.1971746e-04  -3.5843541e-04   1.6482160e-04  -9.8057826e-05   8.9771580e-04   2.7227725e-04  -1.7757267e-04   1.4289343e-04   7.8537886e-04  -7.5836877e-05  -4.3215524e-04  -1.2662096e-04  -6.7029359e-05   1.9701869e-04  -6.4670126e-04  -2.2129191e-04   4.8368803e-04  -7.4934243e-05   2.7223708e-04   9.5507782e-04   1.4673038e-03   3.3529830e-04
  -5.7018028e-06   9.6197618e-06   2.0433683e-04   2.8191309e-04   5.7111967e-05  -8.5340631e-05   6.7437127e-06   2.6357485e-04  -4.0451439e-05   3.6320020e-04  -3.1689255e-04   6.1332124e-05   2.7672824e-04   5.2347622e-04  -2.9587490e-04   1.8770809e-04  -7.1965929e-05   9.0142101e-04   3.2266759e-04  -1.2381544e-04   1.7343269e-04   8.3124492e-04  -1.0756459e-04  -3.8225492e-04  -9.1270384e-05  -3.9155610e-05   4.6982005e-04  -6.0703087e-04  -8.3095380e-05   3.7117201e-04  -3.9050399e-05   2.0258242e-04   1.0177903e-03   1.5961084e-03   3.4645436e-04
   1.2647389e-05   5.9595808e-05   1.2184568e-04   2.8904912e-04   9.5079609e-05  -4.9021997e-05  -3.0200528e-05   2.9232696e-04   4.3099801e-05   3.8289136e-04  -2.7417272e-04   8.7821754e-05   2.6962219e-04   5.2274799e-04  -2.5542121e-04   2.0235214e-04  -4.8948776e-05   8.9000864e-04   3.8542924e-04  -7.6984237e-05   2.1500651e-04   8.3874207e-04  -1.2080644e-04  -3.5051932e-04  -9.2096299e-05  -3.1589658e-05   6.8836793e-04  -5.9836864e-04   7.2344352e-05   1.9307577e-04  -1.8805175e-04   9.8317476e-05   1.0690925e-03   1.7652845e-03   2.9582682e-04
   3.9240356e-05   9.9108438e-05   5.9290032e-05   2.9272892e-04   1.4095179e-04  -1.7960285e-05  -5.7802372e-05   3.3715766e-04   1.3938166e-04   4.1357504e-04  -2.2742906e-04   1.3017902e-04   2.5159473e-04   5.1969982e-04  -2.5425479e-04   2.1086381e-04  -3.0627343e-05   8.7853149e-04   4.5329856e-04  -4.5938468e-05   2.6365282e-04   8.1517419e-04  -9.8658827e-05  -3.1785414e-04  -1.2197885e-04  -2.5939902e-05   8.1465777e-04  -6.0115819e-04   1.8582323e-04  -2.9869581e-05  -6.3804688e-04  -1.1981077e-05   1.0873476e-03   1.9723212e-03   1.7860482e-04
   7.7739205e-05   1.2872054e-04   5.0332048e-05   3.1057047e-04   1.8320714e-04   2.9285000e-06  -6.2904335e-05   3.8486917e-04   2.3539965e-04   4.5480163e-04  -1.8526529e-04   1.9242339e-04   2.3806293e-04   5.1552523e-04  -2.8433895e-04   2.1940893e-04  -1.4659468e-05   8.8344037e-04   5.1762821e-04  -3.0149396e-05   3.1247974e-04   7.9381082e-04  -3.7559523e-05  -2.4671471e-04  -1.4904719e-04   1.2852787e-05   8.4932556e-04  -5.6889252e-04   2.1972186e-04  -2.4455084e-04  -1.3811613e-03  -8.5586398e-05   1.0734583e-03   2.1962028e-03   2.1168764e-05
   1.3281153e-04   1.5058265e-04   1.1583626e-04   3.6861713e-04   2.1355280e-04   1.3099678e-05  -4.1068110e-05   4.1584359e-04   3.2007170e-04   5.0009048e-04  -1.5123319e-04   2.6651294e-04   2.4518874e-04   5.0800695e-04  -3.0493012e-04   2.3609857e-04   5.3703775e-06   9.1238745e-04   5.7138602e-04  -1.7920551e-05   3.5422150e-04   8.1907131e-04   4.9350503e-05  -9.3491806e-05  -1.2771621e-04   1.2463117e-04   8.2651677e-04  -4.4363344e-04   1.7667864e-04  -3.7707976e-04  -2.2461244e-03  -7.7393561e-05   1.0543303e-03   2.3970520e-03  -1.2244622e-04
   2.0999579e-04   1.6821495e-04   2.5571955e-04   4.9317838e-04   2.3269764e-04   1.8280614e-05   1.7276874e-06   4.1250431e-04   3.9067084e-04   5.3977140e-04  -1.1967263e-04   3.3381247e-04   2.8507569e-04   4.9169938e-04  -2.5170532e-04   2.6806284e-04   3.8441365e-05   9.5867226e-04   6.1171543e-04   1.0740637e-05   3.8442030e-04   9.2556112e-04   1.3684353e-04   1.7322316e-04  -1.7181297e-05   3.3738860e-04   7.9312362e-04  -1.7908373e-04   9.8227458e-05  -3.5364975e-04  -2.9525035e-03   4.6701902e-05   1.0709835e-03   2.5221715e-03  -1.8619023e-04
   3.1389415e-04   1.8684754e-04   4.4895039e-04   7.0053589e-04   2.5143183e-04   2.9274985e-05   5.2592346e-05   3.6774104e-04   4.5462369e-04   5.6545337e-04  -7.6481927e-05   3.7285269e-04   3.6245893e-04   4.6105887e-04  -5.9905891e-05   3.1864175e-04   9.3103663e-05   1.0034168e-03   6.4046303e-04   7.7150893e-05   4.0337566e-04   1.1208856e-03   1.9834061e-04   5.5521698e-04   2.0062532e-04   6.5231143e-04   7.8052183e-04   2.3779356e-04   4.6255958e-05  -1.2263012e-04  -3.2071383e-03   2.9857736e-04   1.1566745e-03   2.5185794e-03  -1.1367565e-04
   4.4477140e-04   2.1336385e-04   6.6113152e-04   9.8818389e-04   2.8570081e-04   5.7645400e-05   9.8511744e-05   2.8875752e-04   5.2508246e-04   5.7361735e-04  -5.1428528e-06   3.6967403e-04   4.7378923e-04   4.1487243e-04   3.0805619e-04   3.8562491e-04   1.7378718e-04   1.0245693e-03   6.6219684e-04   1.9521776e-04   4.1557132e-04   1.3792767e-03   2.1777961e-04   1.0148166e-03   5.1006436e-04   1.0361627e-03   7.8366167e-04   7.7406480e-04   7.6785022e-05   3.2809906e-04  -2.7676362e-03   6.6139625e-04   1.3146627e-03   2.3503634e-03   1.2139638e-04
   5.9500826e-04   2.5493375e-04   8.5655437e-04   1.3310609e-03   3.4790675e-04   1.1001826e-04   1.3282718e-04   1.9414347e-04   6.1233976e-04   5.6660798e-04   1.0463447e-04   3.2508155e-04   6.0891575e-04   3.5937072e-04   8.4062677e-04   4.6119298e-04   2.7773587e-04   1.0082914e-03   6.8076717e-04   3.6410039e-04   4.2673122e-04   1.6485720e-03   1.9650199e-04   1.4788916e-03   8.6187234e-04   1.4254994e-03   7.6272775e-04   1.3528327e-03   2.1659360e-04   9.6179923e-04  -1.4609344e-03   1.0898578e-03   1.5056457e-03   2.0150742e-03   5.0160126e-04
   7.4764300e-04   3.1608876e-04   1.0098040e-03   1.6851753e-03   4.3879048e-04   1.8366844e-04   1.5800066e-04   1.0590983e-04   7.1545446e-04   5.5061688e-04   2.4974530e-04   2.5458494e-04   7.5492013e-04   3.0791541e-04   1.4687368e-03   5.3380022e-04   3.9388996e-04   9.5652911e-04   6.9630815e-04   5.6525832e-04   4.4009698e-04   1.8687723e-03   1.5151440e-04   1.8602182e-03   1.1864441e-03   1.7449765e-03   6.6856795e-04   1.8738856e-03   4.5125833e-04   1.6946706e-03   8.0329442e-04   1.5188524e-03   1.6537475e-03   1.5495922e-03   9.6330763e-04
   8.7900850e-04   3.9505927e-04   1.1120853e-03   1.9988832e-03   5.4433482e-04   2.6566308e-04   1.8330036e-04   4.0753261e-05   8.1867730e-04   5.3208508e-04   4.1169836e-04   1.8128680e-04   9.0093416e-04   2.7714975e-04   2.0779204e-03   5.9157657e-04   5.0466944e-04   8.8644802e-04   7.0443557e-04   7.6566474e-04   4.5396356e-04   1.9955928e-03   1.0649499e-04   2.0922071e-03   1.4186974e-03   1.9358930e-03   4.7502082e-04   2.2499594e-03   7.2966493e-04   2.4131748e-03   3.9499318e-03   1.8805234e-03   1.6742729e-03   1.0199529e-03   1.4095042e-03
   9.6568378e-04   4.8126490e-04   1.1699634e-03   2.2290044e-03   6.3980283e-04   3.3652392e-04   2.1895670e-04   4.6238142e-06   8.9508534e-04   5.1455008e-04   5.6132558e-04   1.2593342e-04   1.0423618e-03   2.8137927e-04   2.5443446e-03   6.2617398e-04   5.9066928e-04   8.2219479e-04   6.9824513e-04   9.2720718e-04   4.6195794e-04   2.0180729e-03   8.0874604e-05   2.1609860e-03   1.5252182e-03   1.9819103e-03   1.9798489e-04   2.4428675e-03   9.8407734e-04   3.0078196e-03   7.3620663e-03   2.1251920e-03   1.5128871e-03   5.0036481e-04   1.7391060e-03
   9.9350663e-04   5.5604120e-04   1.1983508e-03   2.3553490e-03   6.9980283e-04   3.7737249e-04   2.7008183e-04  -7.5108392e-06   9.1656373e-04   4.9769424e-04   6.6878169e-04   9.9261080e-05   1.1827277e-03   3.2774941e-04   2.7851611e-03   6.3555810e-04   6.3690101e-04   7.8371022e-04   6.7220180e-04   1.0194661e-03   4.5611637e-04   1.9606161e-03   8.2481980e-05   2.1143616e-03   1.5188031e-03   1.9157606e-03  -1.0733412e-04   2.4773586e-03   1.1569664e-03   3.4124523e-03   8.0037722e-03   2.2367318e-03   1.1732558e-03   5.2784108e-05   1.8843549e-03
   9.6429652e-04   5.9763034e-04   1.2121582e-03   2.3864068e-03   7.0982304e-04   3.7762307e-04   3.3364064e-04  -7.1697405e-06   8.6591160e-04   4.7884529e-04   7.1467081e-04   9.9642755e-05   1.3320306e-03   4.1414183e-04   2.7956828e-03   6.2450918e-04   6.3814671e-04   7.7837304e-04   6.2585628e-04   1.0306875e-03   4.3126650e-04   1.8685343e-03   1.0661801e-04   2.0403743e-03   1.4506981e-03   1.8015335e-03  -3.6736944e-04   2.4228175e-03   1.2210563e-03   3.6259876e-03   1.4248444e-03   2.2336172e-03   7.1539101e-04  -2.8504175e-04   1.8373774e-03
   8.9631963e-04   5.8910612e-04   1.2206131e-03   2.3530081e-03   6.7316776e-04   3.3951938e-04   3.9985494e-04  -5.5022670e-06   7.4519363e-04   4.5592987e-04   6.9705310e-04   1.1615234e-04   1.5016926e-03   5.3031318e-04   2.6464770e-03   6.0254720e-04   6.0081854e-04   7.9910067e-04   5.6529028e-04   9.7156991e-04   3.8841419e-04   1.7861087e-03   1.4087633e-04   2.0285551e-03   1.3856178e-03   1.7037522e-03  -5.1996327e-04   2.3554426e-03   1.1830294e-03   3.7001406e-03   1.2004048e-02   2.1550730e-03   2.2793686e-04  -5.0170673e-04   1.6493129e-03
   8.1757631e-04   5.2583299e-04   1.2257802e-03   2.2933753e-03   6.0930708e-04   2.7712664e-04   4.5716105e-04  -7.4303630e-06   5.7598820e-04   4.2997662e-04   6.3104683e-04   1.3491360e-04   1.6975184e-03   6.6138449e-04   2.4418207e-03   5.8016239e-04   5.4031872e-04   8.2912645e-04   5.0138647e-04   8.6982409e-04   3.3520235e-04   1.7387244e-03   1.7256194e-04   2.1341161e-03   1.3743493e-03   1.6603774e-03  -5.4109236e-04   2.3236107e-03   1.0721307e-03   3.7017346e-03  -1.9405911e-02   2.0409590e-03  -2.0676013e-04  -6.0707267e-04   1.4030244e-03
   7.5480342e-04   4.1845889e-04   1.2243326e-03   2.2374201e-03   5.4447440e-04   2.1034872e-04   4.9782853e-04  -9.6349704e-06   3.9154617e-04   4.0559293e-04   5.4157077e-04   1.4557232e-04   1.9131048e-03   7.9187960e-04   2.2684487e-03   5.6496495e-04   4.7510810e-04   8.5072324e-04   4.4566052e-04   7.5838121e-04   2.8312398e-04   1.7260149e-03   1.9464905e-04   2.3578166e-03   1.4364193e-03   1.6706757e-03  -4.5615013e-04   2.3320019e-03   9.2358154e-04   3.6754510e-03   6.4444216e-03   1.9162707e-03  -5.3800177e-04  -6.2343245e-04   1.1769129e-03
   7.2320597e-04   2.8957136e-04   1.2105110e-03   2.1971134e-03   4.9967185e-04   1.5703673e-04   5.2109419e-04  -3.2568739e-06   2.2500815e-04   3.8914074e-04   4.5323698e-04   1.4500560e-04   2.1263750e-03   9.0856524e-04   2.1627590e-03   5.5925845e-04   4.2025544e-04   8.5338583e-04   4.0577684e-04   6.6313532e-04   2.4282499e-04   1.7266657e-03   2.0738359e-04   2.6456739e-03   1.5570741e-03   1.7001968e-03  -3.2834939e-04   2.3477506e-03   7.6707103e-04   3.6277713e-03   8.5896580e-03   1.7864412e-03  -7.5587630e-04  -5.7620456e-04   1.0180005e-03
   7.2129897e-04   1.6543039e-04   1.1787078e-03   2.1658223e-03   4.8203574e-04   1.2680473e-04   5.3210132e-04   2.0417605e-05   9.9143203e-05   3.8556757e-04   3.8224790e-04   1.3679684e-04   2.3016029e-03   1.0013116e-03   2.1065278e-03   5.5993022e-04   3.8311133e-04   8.3748030e-04   3.8277297e-04   5.9546944e-04   2.1984783e-04   1.7112134e-03   2.1542348e-04   2.9085435e-03   1.6973434e-03   1.6996349e-03  -2.2876881e-04   2.3233870e-03   6.2448171e-04   3.5366940e-03   8.9435643e-03   1.6433035e-03  -8.8525098e-04  -4.8736719e-04   9.3264511e-04
   7.3292787e-04   6.6660039e-05   1.1250966e-03   2.1253887e-03   4.8339460e-04   1.1891908e-04   5.3758948e-04   6.4451975e-05   2.1334892e-05   3.9565313e-04   3.3339293e-04   1.2726696e-04   2.3978155e-03   1.0625843e-03   2.0472286e-03   5.6057272e-04   3.6257360e-04   8.1198831e-04   3.7126706e-04   5.5191311e-04   2.1275312e-04   1.6568170e-03   2.2299335e-04   3.0576147e-03   1.8126231e-03   1.6298930e-03  -2.0344605e-04   2.2251490e-03   5.1390193e-04   3.3784972e-03   8.9952955e-03   1.4769424e-03  -9.6945639e-04  -3.7388573e-04   8.9411734e-04
   7.3559408e-04   1.8306380e-06   1.0487491e-03   2.0570795e-03   4.8620190e-04   1.2462839e-04   5.4117653e-04   1.2371685e-04  -1.5356543e-05   4.1522930e-04   3.0239613e-04   1.2093973e-04   2.3818251e-03   1.0870559e-03   1.9317116e-03   5.5492955e-04   3.5174738e-04   7.8836578e-04   3.6240485e-04   5.2000006e-04   2.1434513e-04   1.5574270e-03   2.3042163e-04   3.0427694e-03   1.8724037e-03   1.4819206e-03  -2.5442083e-04   2.0523418e-03   4.5274818e-04   3.1544818e-03   9.1572534e-03   1.2865936e-03  -1.0505649e-03  -2.5084772e-04   8.6148299e-04
   7.1147771e-04  -3.3662513e-05   9.5263775e-04   1.9514095e-03   4.7374389e-04   1.3256242e-04   5.4120511e-04   1.8650392e-04  -2.6595579e-05   4.3682122e-04   2.8139140e-04   1.1833062e-04   2.2411102e-03   1.0724289e-03   1.7368605e-03   5.4011907e-04   3.4252941e-04   7.7436084e-04   3.4810195e-04   4.8693240e-04   2.1530391e-04   1.4250895e-03   2.3410282e-04   2.8738780e-03   1.8720196e-03   1.2810847e-03  -3.4390323e-04   1.8374965e-03   4.5408242e-04   2.9006060e-03   9.5767668e-03   1.0848225e-03  -1.1538878e-03  -1.3557334e-04   8.0140942e-04
   6.5594423e-04  -5.3390013e-05   8.4428122e-04   1.8127137e-03   4.3929761e-04   1.3456988e-04   5.3239183e-04   2.3944456e-04  -2.9457720e-05   4.5287629e-04   2.6432498e-04   1.1708809e-04   1.9903826e-03   1.0212775e-03   1.4812410e-03   5.1815424e-04   3.2990001e-04   7.7105378e-04   3.2453370e-04   4.4675585e-04   2.0837603e-04   1.2829381e-03   2.2958762e-04   2.6122064e-03   1.8307890e-03   1.0743779e-03  -4.1878616e-04   1.6288370e-03   5.1706581e-04   2.6740413e-03   9.8586408e-03   8.9328713e-04  -1.2820592e-03  -4.8162208e-05   7.0356030e-04
   5.7926407e-04  -7.2376031e-05   7.3507323e-04   1.6568863e-03   3.8941836e-04   1.2924166e-04   5.1021884e-04   2.7329626e-04  -3.6288606e-05   4.5892262e-04   2.4968502e-04   1.1491017e-04   1.6681058e-03   9.4238512e-04   1.2127534e-03   4.9505121e-04   3.1394802e-04   7.7406957e-04   2.9323221e-04   4.0265813e-04   1.9109334e-04   1.1546896e-03   2.1538563e-04   2.3386816e-03   1.7787510e-03   9.0873329e-04  -4.4160197e-04   1.4668434e-03   6.1951054e-04   2.5258323e-03   9.7448947e-03   7.3319045e-04  -1.4191731e-03  -6.4132032e-06   5.8290875e-04
   5.0082465e-04  -9.9728044e-05   6.3751556e-04   1.5042921e-03   3.3976318e-04   1.2154647e-04   4.7523514e-04   2.8662209e-04  -5.1791161e-05   4.5491607e-04   2.3979973e-04   1.1156824e-04   1.3243916e-03   8.4981881e-04   9.8248164e-04   4.7793807e-04   2.9886016e-04   7.7750138e-04   2.5938993e-04   3.6378630e-04   1.6583635e-04   1.0560955e-03   1.9470342e-04   2.1190005e-03   1.7404534e-03   8.1186742e-04  -4.0984657e-04   1.3677393e-03   7.2010793e-04   2.4753411e-03   9.4893407e-03   6.1596459e-04  -1.5411383e-03  -1.7640783e-05   4.6917872e-04
   4.3909645e-04  -1.3476623e-04   5.6071329e-04   1.3718375e-03   3.0604959e-04   1.1907527e-04   4.3440019e-04   2.8545066e-04  -7.3717980e-05   4.4414448e-04   2.3779618e-04   1.0841527e-04   1.0058251e-03   7.5927790e-04   8.2126842e-04   4.7157091e-04   2.8971967e-04   7.7775063e-04   2.2850987e-04   3.3890482e-04   1.3747667e-04   9.9152920e-04   1.7371975e-04   1.9819618e-03   1.7241224e-03   7.8325678e-04  -3.5311931e-04   1.3203882e-03   7.7069574e-04   2.4986237e-03   9.4064036e-03   5.3887250e-04  -1.6265479e-03  -7.2638548e-05   3.9042209e-04
   4.0259925e-04  -1.6832726e-04   5.0585746e-04   1.2679503e-03   2.9532152e-04   1.2709205e-04   3.9835938e-04   2.7933519e-04  -9.5910495e-05   4.3051940e-04   2.4436560e-04   1.0601660e-04   7.4330380e-04   6.8291806e-04   7.3021743e-04   4.7584937e-04   2.8904260e-04   7.7495183e-04   2.0328838e-04   3.3073817e-04   1.1017964e-04   9.5570728e-04   1.5732259e-04   1.9163615e-03   1.7203090e-03   7.9703220e-04  -3.1246242e-04   1.2957912e-03   7.3339842e-04   2.5361255e-03   9.5872199e-03   4.8732053e-04  -1.6636163e-03  -1.4630452e-04   3.5989820e-04
   3.8615917e-04  -1.8818701e-04   4.6410409e-04   1.1919049e-03   3.0211266e-04   1.4502453e-04   3.7606727e-04   2.7611354e-04  -1.1179328e-04   4.1589586e-04   2.5623624e-04   1.0213885e-04   5.4660020e-04   6.2506954e-04   6.8683835e-04   4.8549363e-04   2.9493315e-04   7.7138783e-04   1.8238105e-04   3.3411314e-04   8.5210253e-05   9.3843817e-04   1.4515198e-04   1.8836444e-03   1.7091474e-03   8.1444654e-04  -3.1620715e-04   1.2634735e-03   5.9679296e-04   2.5187766e-03   9.8865042e-03   4.4257645e-04  -1.6515298e-03  -2.0579575e-04   3.7226963e-04
   3.7404423e-04  -1.8566696e-04   4.1879769e-04   1.1367103e-03   3.1133695e-04   1.6615576e-04   3.6982205e-04   2.7822750e-04  -1.1684427e-04   3.9907699e-04   2.6725652e-04   9.2015638e-05   4.0637213e-04   5.8103824e-04   6.6144107e-04   4.9212232e-04   3.0183027e-04   7.6833513e-04   1.6161941e-04   3.3876783e-04   6.0920465e-05   9.2968595e-04   1.3064947e-04   1.8394116e-03   1.6720089e-03   8.0050924e-04  -3.6552554e-04   1.2065403e-03   3.8586449e-04   2.4024928e-03   1.0037340e-02   3.9095726e-04  -1.5976331e-03  -2.2308825e-04   4.0926281e-04
   3.4834805e-04  -1.6013211e-04   3.5213694e-04   1.0934080e-03   3.0644325e-04   1.8066878e-04   3.7360325e-04   2.8231996e-04  -1.0952842e-04   3.7703066e-04   2.7140559e-04   7.1595750e-05   3.0202218e-04   5.3995691e-04   6.3419540e-04   4.8792269e-04   3.0338083e-04   7.6378387e-04   1.3698460e-04   3.3513596e-04   3.4743251e-05   9.2270493e-04   1.0430118e-04   1.7545872e-03   1.6016939e-03   7.3781254e-04  -4.3581033e-04   1.1279234e-03   1.6003440e-04   2.1924223e-03   9.8166643e-03   3.2977134e-04  -1.5136128e-03  -1.8650955e-04   4.5023972e-04
   2.9860620e-04  -1.1937166e-04   2.5399364e-04   1.0546618e-03   2.7854362e-04   1.8058816e-04   3.7590836e-04   2.8211251e-04  -9.1097354e-05   3.4765268e-04   2.6596090e-04   4.2222779e-05   2.1215464e-04   4.9072271e-04   6.0345366e-04   4.6929918e-04   2.9590371e-04   7.5280975e-04   1.0768526e-04   3.1979888e-04   5.9237805e-06   9.1450044e-04   5.9641778e-05   1.6269940e-03   1.5061402e-03   6.3159474e-04  -4.9248722e-04   1.0451643e-03  -4.8095126e-06   1.9408665e-03   9.1618486e-03   2.6686882e-04  -1.4130517e-03  -1.0577779e-04   4.8130681e-04
   2.2774593e-04  -7.5928241e-05   1.2856661e-04   1.0164592e-03   2.3162231e-04   1.6410739e-04   3.6586716e-04   2.7278881e-04  -6.4917069e-05   3.1231716e-04   2.5308874e-04   1.3574015e-05   1.2362054e-04   4.2833833e-04   5.8120646e-04   4.3871341e-04   2.8051468e-04   7.3057791e-04   7.7580102e-05   2.9745619e-04  -2.2715827e-05   9.0435153e-04  -1.2925727e-06   1.4787286e-03   1.4044566e-03   5.0448149e-04  -5.1309343e-04   9.7805948e-04  -4.7190395e-05   1.7200966e-03   8.2239434e-03   2.1442250e-04  -1.3105439e-03  -7.6762653e-06   4.9856369e-04
   1.5133756e-04  -4.1232219e-05  -5.1339580e-06   9.7784377e-04   1.8087101e-04   1.3696450e-04   3.3949761e-04   2.5448317e-04  -3.5787896e-05   2.7657050e-04   2.3891819e-04   1.6463855e-06   3.5533070e-05   3.5737356e-04   5.7963305e-04   4.0377496e-04   2.6271670e-04   6.9612579e-04   5.4051157e-05   2.7822383e-04  -4.5212619e-05   8.9195702e-04  -6.6545726e-05   1.3425887e-03   1.3181290e-03   3.8476227e-04  -5.0260237e-04   9.3719381e-04   5.0025490e-05   1.5872259e-03   7.2966116e-03   1.8071586e-04  -1.2209349e-03   7.6180142e-05   5.0481141e-04
   9.0645743e-05  -2.0519279e-05  -1.1991240e-04   9.3947275e-04   1.4518597e-04   1.1008987e-04   3.0255053e-04   2.3284908e-04  -9.3168028e-06   2.4824098e-04   2.3072184e-04   2.1391281e-05  -4.2943699e-05   2.9056423e-04   5.9793645e-04   3.7393032e-04   2.4962105e-04   6.5442035e-04   4.4707282e-05   2.7182809e-04  -5.5025685e-05   8.7639922e-04  -1.1827797e-04   1.2458708e-03   1.2622905e-03   2.9449575e-04  -4.9116742e-04   9.1953727e-04   2.4808402e-04   1.5591606e-03   6.6347653e-03   1.6465380e-04  -1.1574971e-03   1.2367370e-04   5.0295511e-04
   6.3066000e-05  -1.1102524e-05  -1.9132493e-04   9.0211746e-04   1.3782443e-04   9.4704541e-05   2.6816354e-04   2.1642975e-04   8.9106488e-06   2.3379407e-04   2.3357233e-04   7.7527875e-05  -9.9371173e-05   2.4315386e-04   6.1791169e-04   3.5630603e-04   2.4628363e-04   6.1502249e-04   5.3455959e-05   2.8187461e-04  -4.8533784e-05   8.5631921e-04  -1.4049764e-04   1.1993803e-03   1.2407599e-03   2.4246708e-04  -5.1505747e-04   9.1205607e-04   4.6681412e-04   1.6066568e-03   6.3409633e-03   1.5593250e-04  -1.1292456e-03   1.3091152e-04   4.9087481e-04
   7.4442163e-05  -4.8355073e-06  -2.0798951e-04   8.6586224e-04   1.5990235e-04   9.7200769e-05   2.5041998e-04   2.1224820e-04   1.4407577e-05   2.3477449e-04   2.4801408e-04   1.5881947e-04  -1.2566979e-04   2.2581065e-04   6.1142648e-04   3.5256037e-04   2.5301645e-04   5.8778143e-04   7.7749901e-05   3.0327972e-04  -2.7690261e-05   8.3063502e-04  -1.2683505e-04   1.1951834e-03   1.2460918e-03   2.2367634e-04  -5.9354102e-04   9.0005575e-04   6.1724760e-04   1.6686943e-03   6.3552326e-03   1.4078185e-04  -1.1387233e-03   1.1030449e-04   4.6137671e-04
   1.1637087e-04   6.6095126e-06  -1.7692351e-04   8.3011738e-04   1.9951430e-04   1.1609231e-04   2.5713473e-04   2.2193292e-04   4.9412956e-06   2.4627632e-04   2.6968052e-04   2.3944951e-04  -1.2296250e-04   2.3948317e-04   5.5605802e-04   3.5809464e-04   2.6501733e-04   5.7779887e-04   1.0837143e-04   3.2420520e-04  -4.4051581e-07   7.9896231e-04  -8.4548010e-05   1.2122307e-03   1.2636895e-03   2.2395875e-04  -7.1599073e-04   8.7523082e-04   6.3665456e-04   1.6822274e-03   6.4995242e-03   1.1015389e-04  -1.1816431e-03   7.9116093e-05   4.0733718e-04
   1.6925071e-04   2.6426427e-05  -1.2158559e-04   7.9383649e-04   2.3664509e-04   1.4230200e-04   2.8548442e-04   2.4027281e-04  -1.8836243e-05   2.5840325e-04   2.9086834e-04   2.8787236e-04  -1.0169616e-04   2.7444283e-04   4.4970278e-04   3.6395929e-04   2.7445913e-04   5.8235985e-04   1.3204481e-04   3.3153576e-04   2.1575472e-05   7.6123467e-04  -3.2660129e-05   1.2261504e-03   1.2776634e-03   2.2669519e-04  -8.4536732e-04   8.3911727e-04   5.1215285e-04   1.6145098e-03   6.5626726e-03   6.5662571e-05  -1.2488752e-03   4.5365159e-05   3.2848190e-04
   2.0964292e-04   5.0025235e-05  -7.3035684e-05   7.5541239e-04   2.5142514e-04   1.6270111e-04   3.2255644e-04   2.5696639e-04  -5.3726755e-05   2.6022122e-04   3.0327024e-04   2.8011604e-04  -7.7435900e-05   3.1392262e-04   3.1470633e-04   3.6061869e-04   2.7399714e-04   5.9155806e-04   1.3597326e-04   3.1709441e-04   2.7190017e-05   7.1680505e-04   5.3689464e-06   1.2185266e-03   1.2759122e-03   2.1845190e-04  -9.3512476e-04   8.0016616e-04   2.8454873e-04   1.4799115e-03   6.4100069e-03   1.9439396e-05  -1.3300166e-03  -3.6608256e-07   2.3477168e-04
   2.1876569e-04   6.6356180e-05  -5.7475405e-05   7.1216043e-04   2.3176568e-04   1.6544301e-04   3.5062592e-04   2.6078674e-04  -9.5328105e-05   2.4437837e-04   3.0070686e-04   2.1195068e-04  -6.4629239e-05   3.4073018e-04   1.8818314e-04   3.4189463e-04   2.5999721e-04   5.9252657e-04   1.1244356e-04   2.8136646e-04   1.0021687e-05   6.6388911e-04   1.1540205e-05   1.1817741e-03   1.2526050e-03   1.9162093e-04  -9.5141015e-04   7.6647243e-04   3.0889572e-05   1.3301311e-03   6.0528978e-03  -1.2423280e-05  -1.4168367e-03  -8.1411126e-05   1.4343018e-04
   1.8860619e-04   6.2693733e-05  -8.5750602e-05   6.6000089e-04   1.7681457e-04   1.4470567e-04   3.5471958e-04   2.4427913e-04  -1.3984581e-04   2.1008290e-04   2.8085618e-04   1.0313711e-04  -7.1479568e-05   3.4385725e-04   1.0386622e-04   3.0726212e-04   2.3382742e-04   5.7518249e-04   6.1518251e-05   2.3275912e-04  -2.9062927e-05   6.0009182e-04  -1.8949915e-05   1.1183685e-03   1.2077151e-03   1.4401837e-04  -8.9042902e-04   7.3902420e-04  -1.6759888e-04   1.2240424e-03   5.6229415e-03  -1.9555304e-05  -1.5048878e-03  -2.2040732e-04   7.0704365e-05
   1.2325549e-04   3.0658601e-05  -1.5001345e-04   5.9411151e-04   9.5048184e-05   1.0266811e-04   3.2877177e-04   2.0679893e-04  -1.8548330e-04   1.6291173e-04   2.4546185e-04  -9.9044419e-06  -9.8304758e-05   3.2193196e-04   7.5150725e-05   2.6143380e-04   2.0065761e-04   5.3659437e-04  -9.3293511e-06   1.8296779e-04  -8.2454208e-05   5.2403775e-04  -7.6086355e-05   1.0361696e-03   1.1446917e-03   7.6799544e-05  -7.8156363e-04   7.1012753e-04  -2.5847173e-04   1.1948851e-03   5.2803475e-03  -5.1119760e-06  -1.5926053e-03  -4.2112442e-04   2.2709810e-05
   3.5565085e-05  -2.9348465e-05  -2.2909176e-04   5.1072240e-04  -1.2285293e-06   4.7935831e-05   2.7740010e-04   1.5448642e-04  -2.3268568e-04   1.1165263e-04   1.9926607e-04  -9.0290785e-05  -1.3983039e-04   2.8209598e-04   8.7498323e-05   2.1159132e-04   1.6653766e-04   4.8167614e-04  -8.8361106e-05   1.4101254e-04  -1.3897596e-04   4.3731363e-04  -1.4032218e-04   9.4315544e-04   1.0679197e-03  -7.4869890e-06  -6.7303801e-04   6.6790829e-04  -2.3689526e-04   1.2304626e-03   5.1268954e-03   1.2434964e-05  -1.6789057e-03  -6.5790763e-04  -9.6048452e-06
  -5.8575741e-05  -1.0743951e-04  -2.9922085e-04   4.0959517e-04  -1.0141457e-04  -8.5270658e-06   2.1269624e-04   9.7475873e-05  -2.8307392e-04   6.3957719e-05   1.4827636e-04  -1.1740717e-04  -1.8957065e-04   2.3539132e-04   1.0365852e-04   1.6381504e-04   1.3535570e-04   4.2000521e-04  -1.6392948e-04   1.0909097e-04  -1.8817495e-04   3.4549966e-04  -1.9179727e-04   8.4438804e-04   9.8122843e-04  -1.0551711e-04  -6.0737267e-04   6.0380186e-04  -1.4245111e-04   1.2741853e-03   5.1616975e-03   5.1280872e-06  -1.7613912e-03  -8.8016590e-04  -4.8247013e-05
  -1.4544076e-04  -1.8758202e-04  -3.4435221e-04   2.9599381e-04  -1.9932271e-04  -5.7868168e-05   1.4822133e-04   4.5869230e-05  -3.3758188e-04   2.3147833e-05   9.8138145e-05  -9.5535994e-05  -2.4358940e-04   1.9147956e-04   7.9815109e-05   1.2058252e-04   1.0726513e-04   3.6079236e-04  -2.2810882e-04   8.2194325e-05  -2.2378060e-04   2.5741002e-04  -2.1876559e-04   7.4215344e-04   8.8773144e-04  -2.1252902e-04  -6.0120650e-04   5.1829242e-04  -3.7427311e-05   1.2479163e-03   5.2821641e-03  -5.2857864e-05  -1.8367873e-03  -1.0304945e-03  -1.1905738e-04
  -2.1618389e-04  -2.5339396e-04  -3.6132743e-04   1.8094662e-04  -2.9220583e-04  -9.6241398e-05   9.3570183e-05   6.4808396e-06  -3.9484486e-04  -1.2302484e-05   5.3061111e-05  -5.0567909e-05  -3.0150230e-04   1.5543935e-04  -1.4268357e-05   8.0537109e-05   7.9264762e-05   3.0883081e-04  -2.7820497e-04   5.1438368e-05  -2.4502029e-04   1.8269438e-04  -2.2141219e-04   6.3823961e-04   7.9051062e-04  -3.2135085e-04  -6.4065761e-04   4.2172932e-04   2.2038850e-05   1.0893572e-03   5.3265016e-03  -1.7292233e-04  -1.9034671e-03  -1.0674562e-03  -2.3960306e-04
  -2.6688995e-04  -2.9380017e-04  -3.5833861e-04   7.9143880e-05  -3.7756321e-04  -1.2510737e-04   5.2100415e-05  -1.8448525e-05  -4.5070989e-04  -4.6465819e-05   1.5467782e-05  -1.6661181e-05  -3.6432562e-04   1.2782778e-04  -1.8109637e-04   4.0555758e-05   4.7550773e-05   2.6353297e-04  -3.1581876e-04   9.3199669e-06  -2.5550456e-04   1.2883678e-04  -2.0987142e-04   5.3641183e-04   6.9331779e-04  -4.2233814e-04  -6.9255737e-04   3.2989687e-04   9.4353663e-06   7.8582787e-04   5.1514353e-03  -3.4540592e-04  -1.9640008e-03  -9.8321144e-04  -4.1012643e-04
  -2.9697714e-04  -3.0628452e-04  -3.4829939e-04   4.9150599e-06  -4.5032386e-04  -1.4906911e-04   2.2311207e-05  -3.0434734e-05  -4.9924897e-04  -8.2295461e-05  -1.3817293e-05  -1.9229490e-05  -4.3079891e-04   1.0723688e-04  -3.9467670e-04  -1.0748270e-06   1.0333134e-05   2.2127267e-04  -3.4426455e-04  -4.5834109e-05  -2.6046092e-04   9.9053665e-05  -1.9775420e-04   4.4340192e-04   6.0077710e-04  -5.0481962e-04  -7.2282931e-04   2.5674838e-04  -6.2971420e-05   3.8355860e-04   4.7108084e-03  -5.4227369e-04  -2.0252997e-03  -8.0932683e-04  -6.1225338e-04
  -3.0746628e-04  -2.9667551e-04  -3.4090623e-04  -3.2287317e-05  -5.0244678e-04  -1.7243356e-04   1.4462879e-06  -3.2717111e-05  -5.3488812e-04  -1.1872679e-04  -3.5046756e-05  -6.2355706e-05  -4.9465767e-04   9.3378025e-05  -6.1284326e-04  -4.2167852e-05  -3.0333602e-05   1.7939365e-04  -3.6572633e-04  -1.0839800e-04  -2.6373053e-04   9.2022317e-05  -1.9458844e-04   3.6781662e-04   5.1792245e-04  -5.5974291e-04  -7.1166316e-04   2.0820173e-04  -1.5244853e-04  -3.2997446e-05   4.0787701e-03  -7.2747003e-04  -2.0953820e-03  -6.0803653e-04  -8.1590831e-04
  -3.0011803e-04  -2.7588371e-04  -3.3755862e-04  -3.1139080e-05  -5.2545761e-04  -1.9624043e-04  -1.1145408e-05  -2.8182540e-05  -5.5466359e-04  -1.5029122e-04  -4.9023827e-05  -1.2712527e-04  -5.4484350e-04   8.8605040e-05  -7.9492835e-04  -7.6306620e-05  -6.8705056e-05   1.3940626e-04  -3.7962970e-04  -1.6752107e-04  -2.6598273e-04   1.0350753e-04  -2.0092190e-04   3.1759345e-04   4.4936148e-04  -5.8239169e-04  -6.5913837e-04   1.8043099e-04  -2.0742849e-04  -3.7689833e-04   3.4005665e-03  -8.6945615e-04  -2.1780203e-03  -4.5026530e-04  -9.9040195e-04
  -2.7755144e-04  -2.5513850e-04  -3.3162200e-04   9.6095334e-07  -5.1450869e-04  -2.1723924e-04  -1.2949625e-05  -1.8299750e-05  -5.5949634e-04  -1.6947846e-04  -5.6676392e-05  -1.8192707e-04  -5.6898396e-04   9.6995238e-05  -9.1585558e-04  -9.5016389e-05  -9.7396005e-05   1.0730549e-04  -3.8300376e-04  -2.1156647e-04  -2.6485283e-04   1.2884870e-04  -2.0847809e-04   2.9726754e-04   3.9838316e-04  -5.7399279e-04  -5.8068219e-04   1.6351689e-04  -1.9190974e-04  -5.8910158e-04   2.8171916e-03  -9.5044554e-04  -2.2682534e-03  -3.8777792e-04  -1.1140817e-03
  -2.4369880e-04  -2.4178646e-04  -3.1341234e-04   5.0202289e-05  -4.7160286e-04  -2.2924918e-04  -2.0741595e-08  -3.3318156e-06  -5.5388344e-04  -1.7058312e-04  -5.8874077e-05  -1.9911093e-04  -5.5863126e-04   1.2155835e-04  -9.7154471e-04  -9.1451016e-05  -1.1030779e-04   9.0805348e-05  -3.7251491e-04  -2.3261695e-04  -2.5682291e-04   1.6487151e-04  -2.0504321e-04   3.0622154e-04   3.6627066e-04  -5.4140372e-04  -4.9643603e-04   1.4809049e-04  -1.0057555e-04  -6.5308786e-04   2.4147586e-03  -9.6955529e-04  -2.3516910e-03  -4.3230160e-04  -1.1788107e-03
  -2.0379014e-04  -2.3722585e-04  -2.7671075e-04   1.0084615e-04  -4.0612355e-04  -2.2612515e-04   2.9703911e-05   1.6631282e-05  -5.4406957e-04  -1.5291438e-04  -5.6394874e-05  -1.6918036e-04  -5.1363878e-04   1.6139638e-04  -9.7563263e-04  -6.3862273e-05  -1.0509693e-04   9.4936819e-05  -3.4706574e-04  -2.2915326e-04  -2.3974675e-04   2.1004684e-04  -1.8122946e-04   3.3856553e-04   3.5194226e-04  -4.9493433e-04  -4.2105615e-04   1.3097477e-04   4.1680927e-05  -5.9359812e-04   2.2107565e-03  -9.4003871e-04  -2.4088426e-03  -5.5330753e-04  -1.1888815e-03
  -1.6344890e-04  -2.3760571e-04  -2.2311152e-04   1.4017870e-04  -3.3203867e-04  -2.0486748e-04   7.3628915e-05   4.0625131e-05  -5.3560251e-04  -1.2166378e-04  -5.0014354e-05  -1.0549003e-04  -4.4355597e-04   2.1057017e-04  -9.5069956e-04  -1.7209550e-05  -8.4115578e-05   1.1848828e-04  -3.0949863e-04  -2.0602398e-04  -2.1465012e-04   2.6288696e-04  -1.3565132e-04   3.8456934e-04   3.5193627e-04  -4.4520732e-04  -3.5939249e-04   1.1669218e-04   1.9309351e-04  -4.6347108e-04   2.1663897e-03  -8.8257075e-04  -2.4230143e-03  -6.9524394e-04  -1.1564929e-03
  -1.2718818e-04  -2.3662231e-04  -1.6196062e-04   1.6205311e-04  -2.6300110e-04  -1.6750640e-04   1.2411556e-04   6.6508888e-05  -5.3128169e-04  -8.5934145e-05  -4.0551742e-05  -3.7612441e-05  -3.6507103e-04   2.5956493e-04  -9.1860734e-04   3.7936283e-05  -5.3524058e-05   1.5328416e-04  -2.6643497e-04  -1.7207862e-04  -1.8592845e-04   3.1961245e-04  -7.6085460e-05   4.3311517e-04   3.6086651e-04  -4.0039810e-04  -3.0909319e-04   1.1431563e-04   3.1278929e-04  -3.2343145e-04   2.2137109e-03  -8.1760291e-04  -2.3883570e-03  -8.0352492e-04  -1.0967404e-03
  -9.7133125e-05  -2.2893415e-04  -1.0607454e-04   1.6761868e-04  -2.0760353e-04  -1.2098276e-04   1.7088511e-04   9.1521535e-05  -5.3042272e-04  -5.4851833e-05  -2.8819864e-05   3.1258148e-06  -2.9637781e-04   2.9874532e-04  -8.9400326e-04   8.8899898e-05  -2.1053129e-05   1.8685628e-04  -2.2618775e-04  -1.3681311e-04  -1.5977990e-04   3.7282746e-04  -1.6268124e-05   4.7434866e-04   3.7235583e-04  -3.6487149e-04  -2.6644018e-04   1.3156560e-04   3.7510411e-04  -2.2153958e-04   2.2870235e-03  -7.5967656e-04  -2.3140721e-03  -8.4570487e-04  -1.0243393e-03
  -7.2809627e-05  -2.1270818e-04  -6.5663407e-05   1.6315367e-04  -1.6719857e-04  -7.5064498e-05   2.0510134e-04   1.1328665e-04  -5.2967598e-04  -3.3738161e-05  -1.5540156e-05  -1.3909161e-06  -2.5085505e-04   3.2207029e-04  -8.8292733e-04   1.2540926e-04   6.5998584e-06   2.0727768e-04  -1.9564450e-04  -1.0745264e-04  -1.4164587e-04   4.1244100e-04   3.0046613e-05   5.0173979e-04   3.8037548e-04  -3.3953637e-04  -2.3036216e-04   1.6937243e-04   3.7621884e-04  -1.8006196e-04   2.3451096e-03  -7.1545423e-04  -2.2221846e-03  -8.2001125e-04  -9.5263572e-04
  -5.2224779e-05  -1.9029141e-04  -4.3792599e-05   1.5611232e-04  -1.3726251e-04  -3.9138969e-05   2.2293444e-04   1.3059822e-04  -5.2498985e-04  -2.2409169e-05  -1.2727045e-06  -4.8148519e-05  -2.3289061e-04   3.2907806e-04  -8.8553730e-04   1.4311219e-04   2.5629573e-05   2.0783156e-04  -1.7768331e-04  -8.7546563e-05  -1.3392163e-04   4.2886712e-04   5.4794142e-05   5.1300100e-04   3.8063095e-04  -3.2335444e-04  -2.0178824e-04   2.1989654e-04   3.3243929e-04  -1.9479258e-04   2.3748633e-03  -6.8525871e-04  -2.1391250e-03  -7.5054826e-04  -8.9377636e-04
  -3.3776574e-05  -1.6701764e-04  -3.5811405e-05   1.5133215e-04  -1.1137308e-04  -1.9191846e-05   2.2663627e-04   1.4340972e-04  -5.1379862e-04  -1.6412869e-05   1.3466897e-05  -1.1597115e-04  -2.3784215e-04   3.2404403e-04  -9.0003299e-04   1.4444168e-04   3.5561934e-05   1.8907136e-04  -1.7038535e-04  -7.7205594e-05  -1.3508796e-04   4.1709380e-04   5.8234844e-05   5.0971337e-04   3.7150734e-04  -3.1494297e-04  -1.7952146e-04   2.6919460e-04   2.7182917e-04  -2.4504607e-04   2.3800214e-03  -6.6621485e-04  -2.0846885e-03  -6.7341712e-04  -8.5823896e-04
  -1.7905655e-05  -1.4891416e-04  -3.2838463e-05   1.4897475e-04  -8.5535721e-05  -1.6180948e-05   2.2254372e-04   1.5210405e-04  -4.9642019e-04  -1.0460768e-05   2.7938207e-05  -1.7716052e-04  -2.5584531e-04   3.1289720e-04  -9.2500175e-04   1.3652764e-04   3.8317972e-05   1.5736418e-04  -1.6850531e-04  -7.4439340e-05  -1.4073293e-04   3.7938845e-04   4.7413669e-05   4.9590232e-04   3.5415904e-04  -3.1333993e-04  -1.5680063e-04   3.0317664e-04   2.2290656e-04  -3.0687591e-04   2.3675696e-03  -6.5484265e-04  -2.0638751e-03  -6.2044727e-04  -8.5273507e-04
  -7.5599719e-06  -1.4039957e-04  -2.7061113e-05   1.4495023e-04  -6.0464707e-05  -2.6347438e-05   2.1721114e-04   1.5648504e-04  -4.7606271e-04  -2.0328739e-06   4.0919615e-05  -2.1113598e-04  -2.7738683e-04   2.9964768e-04  -9.5917733e-04   1.2732021e-04   3.6582162e-05   1.2086683e-04  -1.6642634e-04  -7.6651188e-05  -1.4592297e-04   3.2489488e-04   3.1522435e-05   4.7604903e-04   3.3166906e-04  -3.1754354e-04  -1.2308647e-04   3.1349942e-04   2.0497381e-04  -3.6232028e-04   2.3411324e-03  -6.4794335e-04  -2.0658546e-03  -6.0779502e-04  -8.7720610e-04
  -7.0894675e-06  -1.4291445e-04  -1.5842166e-05   1.3336836e-04  -4.0832281e-05  -4.3137734e-05   2.1384501e-04   1.5525926e-04  -4.5755369e-04   6.9054354e-06   5.0666993e-05  -2.1303757e-04  -2.9777834e-04   2.8429754e-04  -9.9969748e-04   1.2189885e-04   3.2370968e-05   8.5324551e-05  -1.6111860e-04  -8.1639722e-05  -1.4774884e-04   2.6598477e-04   1.6882937e-05   4.5326713e-04   3.0754620e-04  -3.2528257e-04  -7.2121744e-05   3.0032589e-04   2.2362881e-04  -4.0190114e-04   2.3015526e-03  -6.4217200e-04  -2.0704337e-03  -6.3370232e-04  -9.2289207e-04
  -2.0052852e-05  -1.5487122e-04  -2.5075735e-06   1.0972638e-04  -3.2046781e-05  -5.9822614e-05   2.1093716e-04   1.4643023e-04  -4.4543852e-04   1.0915914e-05   5.5299010e-05  -1.9360571e-04  -3.1854020e-04   2.6326382e-04  -1.0409576e-03   1.2062684e-04   2.6412647e-05   5.1854422e-05  -1.5361344e-04  -8.7872380e-05  -1.4675797e-04   2.1307415e-04   4.1281087e-06   4.2826898e-04   2.8417606e-04  -3.3208932e-04  -1.1229528e-05   2.7098402e-04   2.7197707e-04  -4.2232190e-04   2.2502074e-03  -6.3363637e-04  -2.0584625e-03  -6.8473950e-04  -9.7359513e-04
  -4.7071742e-05  -1.7275782e-04   6.2718291e-06   7.3352705e-05  -3.6615802e-05  -7.1779403e-05   2.0369126e-04   1.2845061e-04  -4.4229941e-04   4.2612228e-06   5.3579344e-05  -1.7135357e-04  -3.4538278e-04   2.3196619e-04  -1.0755069e-03   1.1975518e-04   1.8452916e-05   1.7699005e-05  -1.4828991e-04  -9.4309798e-05  -1.4658328e-04   1.7043049e-04  -1.1186410e-05   3.9954242e-04   2.6192330e-04  -3.3167578e-04   3.5761725e-05   2.3579241e-04   3.3527243e-04  -4.2328995e-04   2.1919562e-03  -6.1862980e-04  -2.0209854e-03  -7.4521545e-04  -1.0109611e-03
  -8.4849416e-05  -1.9273117e-04   4.7913923e-06   2.7966626e-05  -5.2166630e-05  -7.7700024e-05   1.8730278e-04   1.0153231e-04  -4.4794846e-04  -1.5597809e-05   4.5710032e-05  -1.6188655e-04  -3.8416131e-04   1.8805492e-04  -1.0968563e-03   1.1391480e-04   8.0703012e-06  -2.0825068e-05  -1.5038085e-04  -1.0016010e-04  -1.5193889e-04   1.3505985e-04  -3.5095687e-05   3.6464439e-04   2.3930745e-04  -3.1797081e-04   3.5907284e-05   2.0355657e-04   3.9609024e-04  -4.0649946e-04   2.1357897e-03  -5.9553765e-04  -1.9629565e-03  -8.0413476e-04  -1.0221256e-03
  -1.2693036e-04  -2.1198290e-04  -8.1966418e-06  -1.9769208e-05  -7.2292263e-05  -7.9478385e-05   1.6018945e-04   6.8284149e-05  -4.5984163e-04  -4.6187401e-05   3.3695476e-05  -1.7027564e-04  -4.3701191e-04   1.3348194e-04  -1.1026489e-03   9.9086537e-05  -4.5869942e-06  -6.5038810e-05  -1.6302045e-04  -1.0485067e-04  -1.6599176e-04   9.9160803e-05  -7.0860122e-05   3.2201235e-04   2.1409248e-04  -2.8817548e-04  -3.7968304e-05   1.7874222e-04   4.3850625e-04  -3.7709557e-04   2.0909794e-03  -5.6679331e-04  -1.9001690e-03  -8.5694861e-04  -1.0058451e-03
  -1.6584914e-04  -2.2938619e-04  -2.8774855e-05  -6.2903462e-05  -8.9718880e-05  -8.0987833e-05   1.2535766e-04   3.3168999e-05  -4.7448918e-04  -8.0996026e-05   2.0850355e-05  -1.9016545e-04  -5.0060917e-04   7.4297837e-05  -1.0962312e-03   7.4577860e-05  -1.8581030e-05  -1.1224886e-04  -1.8538756e-04  -1.0823668e-04  -1.8843527e-04   5.4960306e-05  -1.1609295e-04   2.7235379e-04   1.8470104e-04  -2.4544203e-04  -1.9122496e-04   1.6118235e-04   4.5127826e-04  -3.4542559e-04   2.0600474e-03  -5.3928012e-04  -1.8511843e-03  -9.0318517e-04  -9.7314350e-04
  -1.9569193e-04  -2.4532541e-04  -5.0124752e-05  -9.6820193e-05  -9.9887839e-05  -8.6331049e-05   8.9205329e-05   9.8878206e-07  -4.8924627e-04  -1.1271433e-04   1.0489308e-05  -2.0908684e-04  -5.6725345e-04   1.8390885e-05  -1.0855163e-03   4.3129974e-05  -3.2558539e-05  -1.5663088e-04  -2.1296639e-04  -1.1085452e-04  -2.1530094e-04  -5.8151664e-07  -1.6290863e-04   2.1885206e-04   1.5116604e-04  -1.9961632e-04  -3.9693818e-04   1.4770115e-04   4.3029015e-04  -3.2613688e-04   2.0346546e-03  -5.2221870e-04  -1.8286288e-03  -9.4325980e-04  -9.4176439e-04
  -2.1390927e-04  -2.6099989e-04  -6.6265042e-05  -1.2063560e-04  -1.0305915e-04  -9.8195647e-05   5.8539186e-05  -2.4941357e-05  -5.0365139e-04  -1.3694039e-04   4.2287093e-06  -2.1617889e-04  -6.2792143e-04  -2.7567849e-05  -1.0794651e-03   9.3607514e-06  -4.5426186e-05  -1.9208911e-04  -2.3975877e-04  -1.1398359e-04  -2.4063005e-04  -6.3647371e-05  -2.0096160e-04   1.6591497e-04   1.1503226e-04  -1.6510952e-04  -5.9779000e-04   1.3432573e-04   3.8002920e-04  -3.3316269e-04   1.9995859e-03  -5.2300323e-04  -1.8343872e-03  -9.7735121e-04  -9.2735386e-04
  -2.2170220e-04  -2.7758101e-04  -7.5028045e-05  -1.3695667e-04  -1.0378268e-04  -1.1684021e-04   3.7520735e-05  -4.3975950e-05  -5.1963812e-04  -1.5429094e-04   8.0815312e-07  -2.0782393e-04  -6.7555351e-04  -6.0341601e-05  -1.0838943e-03  -2.2445971e-05  -5.6857596e-05  -2.1536207e-04  -2.6126628e-04  -1.1939886e-04  -2.5917392e-04  -1.2512696e-04  -2.2177836e-04   1.1700433e-04   7.8297322e-05  -1.5624984e-04  -7.2473026e-04   1.1769187e-04   3.1310806e-04  -3.7224687e-04   1.9433899e-03  -5.4286647e-04  -1.8607745e-03  -1.0071058e-03  -9.3593914e-04
  -2.2297769e-04  -2.9562076e-04  -7.8689365e-05  -1.5019347e-04  -1.0810995e-04  -1.3997727e-04   2.6161451e-05  -5.8127807e-05  -5.4052321e-04  -1.6980483e-04  -3.8608569e-06  -1.8862604e-04  -7.0698914e-04  -8.0610414e-05  -1.0986711e-03  -4.9953585e-05  -6.7295681e-05  -2.2765085e-04  -2.7665438e-04  -1.2882796e-04  -2.6880315e-04  -1.7496335e-04  -2.2227320e-04   7.2620627e-05   4.1878746e-05  -1.8185678e-04  -7.2799041e-04   9.5237752e-05   2.4707522e-04  -4.3512339e-04   1.8684411e-03  -5.7480892e-04  -1.8960575e-03  -1.0383552e-03  -9.6116093e-04
  -2.2249999e-04  -3.1480764e-04  -8.2060615e-05  -1.6438840e-04  -1.2008704e-04  -1.6353864e-04   2.1026486e-05  -7.0847862e-05  -5.6911423e-04  -1.8987297e-04  -1.5106343e-05  -1.6791490e-04  -7.2291360e-04  -9.1658570e-05  -1.1176195e-03  -7.3082498e-05  -7.7430988e-05  -2.3386539e-04  -2.8895421e-04  -1.4329150e-04  -2.7142742e-04  -2.0694071e-04  -2.0588444e-04   2.9585162e-05   4.4735375e-06  -2.4144155e-04  -6.0365518e-04   6.4690837e-05   1.9872653e-04  -4.9951073e-04   1.7932017e-03  -6.0524745e-04  -1.9304242e-03  -1.0818816e-03  -9.8743197e-04
  -2.2410443e-04  -3.3407129e-04  -8.9294772e-05  -1.8152948e-04  -1.3944434e-04  -1.8305148e-04   1.7602562e-05  -8.5171916e-05  -6.0574070e-04  -2.1839241e-04  -3.6899331e-05  -1.5436661e-04  -7.2622066e-04  -9.7209384e-05  -1.1310444e-03  -9.3030147e-05  -8.7437889e-05  -2.3999027e-04  -3.0320513e-04  -1.6254911e-04  -2.7196528e-04  -2.2150030e-04  -1.8093117e-04  -1.7828022e-05  -3.7487771e-05  -3.2484846e-04  -3.9757814e-04   2.3903520e-05   1.7754470e-04  -5.3600268e-04   1.7452805e-03  -6.1888498e-04  -1.9588836e-03  -1.1503326e-03  -9.9786452e-04
  -2.2968200e-04  -3.5183941e-04  -1.0130893e-04  -2.0109140e-04  -1.6169908e-04  -1.9511362e-04   1.2941944e-05  -1.0216779e-04  -6.4709183e-04  -2.5416966e-04  -6.9459449e-05  -1.5212859e-04  -7.2002481e-04  -9.9614670e-05  -1.1294252e-03  -1.1075554e-04  -9.6430413e-05  -2.5000676e-04  -3.2346349e-04  -1.8480464e-04  -2.7582853e-04  -2.2527225e-04  -1.5700993e-04  -7.5176999e-05  -8.8619017e-05  -4.1563265e-04  -1.8436603e-04  -2.8385964e-05   1.8080257e-04  -5.1901856e-04   1.7493623e-03  -6.0460169e-04  -1.9799452e-03  -1.2520326e-03  -9.8313193e-04
  -2.3914059e-04  -3.6637112e-04  -1.1525154e-04  -2.2084561e-04  -1.8052447e-04  -1.9843406e-04   7.1292457e-06  -1.2041858e-04  -6.8642665e-04  -2.9097270e-04  -1.0823435e-04  -1.6042728e-04  -7.0637953e-04  -9.9247045e-05  -1.1065541e-03  -1.2580493e-04  -1.0246430e-04  -2.6403734e-04  -3.5022368e-04  -2.0682052e-04  -2.8611938e-04  -2.2770246e-04  -1.4106772e-04  -1.4480461e-04  -1.5254834e-04  -4.9689173e-04  -3.5726978e-05  -9.1185495e-05   1.9283990e-04  -4.3690400e-04   1.8158504e-03  -5.5964966e-04  -1.9916897e-03  -1.3849012e-03  -9.4625814e-04
  -2.5110372e-04  -3.7602198e-04  -1.2619112e-04  -2.3840507e-04  -1.9100076e-04  -1.9404467e-04   2.8763188e-06  -1.3674256e-04  -7.1527314e-04  -3.2019106e-04  -1.4501417e-04  -1.7611984e-04  -6.8624655e-04  -9.5231328e-05  -1.0610181e-03  -1.3614866e-04  -1.0314331e-04  -2.7869272e-04  -3.7957766e-04  -2.2441144e-04  -3.0189249e-04  -2.3652930e-04  -1.3492627e-04  -2.2391567e-04  -2.2997633e-04  -5.5719254e-04   6.0666439e-06  -1.6030145e-04   1.8988365e-04  -2.9688765e-04   1.9351151e-03  -4.9036264e-04  -1.9884272e-03  -1.5344019e-03  -9.0017595e-04
  -2.6376915e-04  -3.7952079e-04  -1.2991962e-04  -2.5260489e-04  -1.9192189e-04  -1.8464129e-04   3.6290601e-06  -1.4771146e-04  -7.2599045e-04  -3.3464804e-04  -1.7083704e-04  -1.9656759e-04  -6.6033151e-04  -8.6785352e-05  -9.9589746e-04  -1.3901875e-04  -9.6535892e-05  -2.8921734e-04  -4.0456274e-04  -2.3333526e-04  -3.1833866e-04  -2.5442589e-04  -1.3519083e-04  -3.0488084e-04  -3.1773595e-04  -5.9413887e-04  -5.8401354e-05  -2.2884106e-04   1.4954594e-04  -1.2283090e-04   2.0801709e-03  -4.0915576e-04  -1.9607483e-03  -1.6773954e-03  -8.5962110e-04
  -2.7552035e-04  -3.7620260e-04  -1.2520251e-04  -2.6404837e-04  -1.8602771e-04  -1.7331984e-04   1.1400571e-05  -1.5114382e-04  -7.1428134e-04  -3.3157496e-04  -1.7950218e-04  -2.2043819e-04  -6.2990835e-04  -7.4236530e-05  -9.1739121e-04  -1.3222246e-04  -8.1954771e-05  -2.9215397e-04  -4.1794326e-04  -2.3035046e-04  -3.2876714e-04  -2.7842296e-04  -1.3536189e-04  -3.7769295e-04  -4.0926723e-04  -6.1392074e-04  -1.8808308e-04  -2.8925430e-04   6.1510487e-05   5.3570500e-05   2.2173480e-03  -3.2923665e-04  -1.8994405e-03  -1.7903172e-03  -8.3227159e-04
  -2.8512467e-04  -3.6620628e-04  -1.1425096e-04  -2.7455133e-04  -1.7813215e-04  -1.6225042e-04   2.5577103e-05  -1.4686817e-04  -6.8068091e-04  -3.1331851e-04  -1.7008552e-04  -2.4584026e-04  -5.9686054e-04  -5.9054000e-05  -8.3324470e-04  -1.1519739e-04  -6.0238777e-05  -2.8696208e-04  -4.1508029e-04  -2.1420015e-04  -3.2740828e-04  -3.0213263e-04  -1.2893381e-04  -4.3352315e-04  -4.9629709e-04  -6.2701106e-04  -3.1988902e-04  -3.3598376e-04  -6.5494045e-05   2.0459083e-04   2.3203627e-03  -2.5956242e-04  -1.8012542e-03  -1.8577632e-03  -8.1397127e-04
  -2.9167504e-04  -3.5052950e-04  -1.0126758e-04  -2.8587744e-04  -1.7226863e-04  -1.5185478e-04   4.3303156e-05  -1.3642562e-04  -6.3046400e-04  -2.8564216e-04  -1.4720616e-04  -2.6756097e-04  -5.6281843e-04  -4.2943640e-05  -7.5148605e-04  -8.9304958e-05  -3.3401277e-05  -2.7579992e-04  -3.9551797e-04  -1.8614935e-04  -3.1174195e-04  -3.1936180e-04  -1.1201811e-04  -4.6773464e-04  -5.7101197e-04  -6.4216211e-04  -3.9755410e-04  -3.6721415e-04  -2.0427602e-04   3.1593794e-04   2.3806428e-03  -2.0241903e-04  -1.6730274e-03  -1.8773379e-03  -7.9026067e-04
  -2.9451336e-04  -3.3082752e-04  -9.0035479e-05  -2.9847195e-04  -1.6947837e-04  -1.4083959e-04   6.1142629e-05  -1.2202843e-04  -5.7192403e-04  -2.5466373e-04  -1.1892802e-04  -2.7616808e-04  -5.2799127e-04  -2.6678936e-05  -6.7948463e-04  -5.7304260e-05  -3.8501344e-06  -2.6175095e-04  -3.6271533e-04  -1.4981613e-04  -2.8336167e-04  -3.2706474e-04  -8.4495608e-05  -4.8108358e-04  -6.2791083e-04  -6.6166889e-04  -3.9738388e-04  -3.8471867e-04  -3.1773307e-04   3.8923646e-04   2.4081252e-03  -1.5460013e-04  -1.5312771e-03  -1.8587634e-03  -7.4363948e-04
  -2.9332991e-04  -3.0896254e-04  -8.1964499e-05  -3.1089896e-04  -1.6737253e-04  -1.2709203e-04   7.6969802e-05  -1.0534879e-04  -5.1365496e-04  -2.2413458e-04  -9.3214214e-05  -2.6069515e-04  -4.9067236e-04  -9.5320383e-06  -6.2298472e-04  -2.2379189e-05   2.6435730e-05  -2.4666023e-04  -3.2225630e-04  -1.1020718e-04  -2.4713494e-04  -3.2622533e-04  -4.9508242e-05  -4.7868892e-04  -6.6474616e-04  -6.8023812e-04  -3.3625288e-04  -3.9192894e-04  -3.7222091e-04   4.3675242e-04   2.4223221e-03  -1.1114639e-04  -1.3965437e-03  -1.8178589e-03  -6.6348247e-04
  -2.8836314e-04  -2.8639339e-04  -7.5728945e-05  -3.2034607e-04  -1.6173752e-04  -1.0897160e-04   9.0982394e-05  -8.6892222e-05  -4.6178952e-04  -1.9442868e-04  -7.4613890e-05  -2.1427934e-04  -4.4808825e-04   1.0197524e-05  -5.8489788e-04   1.2731071e-05   5.6362318e-05  -2.2998908e-04  -2.7956406e-04  -7.2218769e-05  -2.0918784e-04  -3.2055206e-04  -1.1888224e-05  -4.6738965e-04  -6.8242592e-04  -6.8782631e-04  -2.5869094e-04  -3.9135455e-04  -3.5055852e-04   4.7210531e-04   2.4392109e-03  -6.9211266e-05  -1.2848298e-03  -1.7686212e-03  -5.5327895e-04
