-0.0000000 -0.0000000 -0.0000000 -0.0000000 -0.0000000 -0.0000000 -0.0000000 -0.0000000 -0.0000000 -0.0000000 -0.0000000 -0.0000000 -0.0000000 -0.0000000 -0.0000000 -0.0000000 -0.0000000 -0.0000000 -0.0000000 -0.0000000 -0.0000000 -0.0000000 -0.0000000 -0.0000000 -0.0000000 -0.0000000 -0.0000000 -0.0000000 -0.0000000 -0.0000000 -0.0000000 -0.0000000 -0.0000000 -0.0000000 -0.0000000 -0.0000000 -0.0000000 -0.0000000 -0.0000000 -0.0000000 -0.0000000 -0.0000000 -0.0000000 -0.0000000 -0.0000000 -0.0000000 -0.0000000 -0.0000000 -0.0000000 -0.0000000 -0.0000000 -0.0000000 -0.0000000 -0.0000000 -0.0000000 -0.0000000 -0.0000000 -0.0000000 -0.0000000 -0.0000000 -0.0000000 -0.0000000 -0.0000000 -0.0000000 -0.0000000 -0.0000000 -0.0000000 -0.0000000 -0.0000000 -0.0000000 -0.0000000 -0.0000000 -0.0000000 -0.0000000 -0.0000000 -0.0000000 -0.0000000 -0.0000000 -0.0000000 -0.0000000 -0.0000000 -0.0000000 -0.0000000 -0.0000000 -0.0000000 -0.0000000 -0.0000000 -0.0000000 -0.0000000 -0.0000000 -0.0000000 -0.0000000 -0.0000000 -0.0000000 -0.0000000 -0.0000000 -0.0000000 -0.0000000 -0.0000000 -0.0000000 -0.0000000 -0.0000000 -0.0000000 -0.0000000 -0.0000000 -0.0000000 -0.0000000 -0.0000000 -0.0000000 -0.0000000 -0.0000000 -0.0000000 -0.0000000 -0.0000000 -0.0000000 -0.0000000 -0.0000000 -0.0000000 -0.0000000 -0.0000000 -0.0000000 -0.0000000 -0.0000000 -0.0000000 -0.0000000 -0.0000000 -0.0000000 -0.0000000 -0.0000000 -0.0000000 -0.0000000 -0.0000000 -0.0000000 -0.0000000 -0.0000000 -0.0000000 -0.0000000 -0.0000000 -0.0000000 -0.0000000 -0.0000000 -0.0000000 -0.0000000 -0.0000000 -0.0000000 -0.0000000 -0.0000000 -0.0000000 -0.0000000 -0.0000000 -0.0000000 -0.0000000 -0.0000000 -0.0000000 -0.0000000 -0.0000000 -0.0000000 -0.0000000 -0.0000000 -0.0000000 -0.0000000 -0.0000000 -0.0000000 -0.0000000 -0.0000000 -0.0000000 -0.0000000 -0.0000000 -0.0000000 -0.0000000 -0.0000000 -0.0000000 -0.0000000 -0.0000000 -0.0000000 -0.0000000 -0.0000000 -0.0000000 -0.0000000 -0.0000000 -0.0000000 -0.0000000 -0.0000000 -0.0000000 -0.0000000 -0.0000000 -0.0000000 -0.0000000 -0.0000000 -0.0000000 -0.0000000 -0.0000000 -0.0000000 -0.0000000 -0.0000000 -0.0000000 -0.0000000 -0.0000000 -0.0000000 -0.0000000 -0.0000000 -0.0000000 -0.0000000 -0.0000000 -0.0000000 -0.0000000 -0.0000000 -0.0000000 -0.0000000 -0.0000000 -0.0000000 -0.0000000 -0.0000000 -0.0000000 -0.0000000 -0.0000000
-0.0000000 -0.0000000 -0.0000000 -0.0000000 -0.0000000 -0.0000000 -0.0000000 -0.0000000 -0.0000000 -0.0000000 -0.0000000 -0.0000000 -0.0000000 -0.0000000 -0.0000000 -0.0000000 -0.0000000 -0.0000000 -0.0000000 -0.0000000 -0.0000000 -0.0000000 -0.0000000 -0.0000000 -0.0000000 -0.0000000 -0.0000000 -0.0000000 -0.0000000 -0.0000000 -0.0000000 -0.0000000 -0.0000000 -0.0000000 -0.0000000 -0.0000000 -0.0000000 -0.0000000 -0.0000000 -0.0000000 -0.0000000 -0.0000000 -0.0000000 -0.0000000 -0.0000000 -0.0000000 -0.0000000 -0.0000000 -0.0000000 -0.0000000 -0.0000000 -0.0000000 -0.0000000 -0.0000000 -0.0000000 -0.0000000 -0.0000000 -0.0000000 -0.0000000 -0.0000000 -0.0000000 -0.0000000 -0.0000000 -0.0000000 -0.0000000 -0.0000000 -0.0000000 -0.0000000 -0.0000000 -0.0000000 -0.0000000 -0.0000000 -0.0000000 -0.0000000 -0.0000000 -0.0000000 -0.0000000 -0.0000000 -0.0000000 -0.0000000 -0.0000000 -0.0000000 -0.0000000 -0.0000000 -0.0000000 -0.0000000 -0.0000000 -0.0000000 -0.0000000 -0.0000000 -0.0000000 -0.0000000 -0.0000000 -0.0000000 -0.0000000 -0.0000000 -0.0000000 -0.0000000 -0.0000000 -0.0000000 -0.0000000 -0.0000000 -0.0000000 -0.0000000 -0.0000000 -0.0000000 -0.0000000 -0.0000000 -0.0000000 -0.0000000 -0.0000000 -0.0000000 -0.0000000 -0.0000000 -0.0000000 -0.0000000 -0.0000000 -0.0000000 -0.0000000 -0.0000000 -0.0000000 -0.0000000 -0.0000000 -0.0000000 -0.0000000 -0.0000000 -0.0000000 -0.0000000 -0.0000000 -0.0000000 -0.0000000 -0.0000000 -0.0000000 -0.0000000 -0.0000000 -0.0000000 -0.0000000 -0.0000000 -0.0000000 -0.0000000 -0.0000000 -0.0000000 -0.0000000 -0.0000000 -0.0000000 -0.0000000 -0.0000000 -0.0000000 -0.0000000 -0.0000000 -0.0000000 -0.0000000 -0.0000000 -0.0000000 -0.0000000 -0.0000000 -0.0000000 -0.0000000 -0.0000000 -0.0000000 -0.0000000 -0.0000000 -0.0000000 -0.0000000 -0.0000000 -0.0000000 -0.0000000 -0.0000000 -0.0000000 -0.0000000 -0.0000000 -0.0000000 -0.0000000 -0.0000000 -0.0000000 -0.0000000 -0.0000000 -0.0000000 -0.0000000 -0.0000000 -0.0000000 -0.0000000 -0.0000000 -0.0000000 -0.0000000 -0.0000000 -0.0000000 -0.0000000 -0.0000000 -0.0000000 -0.0000000 -0.0000000 -0.0000000 -0.0000000 -0.0000000 -0.0000000 -0.0000000 -0.0000000 -0.0000000 -0.0000000 -0.0000000 -0.0000000 -0.0000000 -0.0000000 -0.0000000 -0.0000000 -0.0000000 -0.0000000 -0.0000000 -0.0000000 -0.0000000 -0.0000000 -0.0000000 -0.0000000 -0.0000000 -0.0000000
-0.0000473 0.0000888 -0.0000062 0.0000691 0.0000377 -0.0000330 -0.0000045 0.0000183 -0.0000036 -0.0000102 -0.0000660 0.0000942 0.0000066 -0.0000115 0.0000010 0.0000064 -0.0000332 0.0000086 -0.0000020 0.0000302 0.0000738 -0.0000962 0.0000024 0.0000438 -0.0000140 0.0000096 0.0000022 -0.0000414 0.0000249 -0.0000787 0.0000051 -0.0000468 0.0000202 -0.0000299 0.0000613 -0.0000347 0.0000230 -0.0000550 -0.0000509 -0.0000019 -0.0000084 0.0000008 0.0000302 -0.0000890 -0.0000062 -0.0000397 0.0000023 -0.0000963 -0.0000710 0.0000094 0.0041572 -0.0095576 0.0009132 -0.0007960 0.0002252 -0.0003637 0.0000076 -0.0000780 -0.0000593 -0.0001150 0.0000693 -0.0002040 0.0000741 -0.0000399 0.0000093 0.0000040 0.0000154 -0.0000726 -0.0000156 -0.0000198 -0.0000095 -0.0001026 -0.0001189 -0.0000519 0.0000524 -0.0000811 0.0001144 -0.0001392 0.0000970 -0.0002614 -0.0001544 0.0000510 -0.0001504 0.0000068 -0.0000208 -0.0001349 0.0000293 -0.0001468 -0.0001800 0.0000770 -0.0000238 -0.0000773 -0.0000197 -0.0000068 -0.0000388 0.0000448 0.0000486 -0.0001402 0.0000550 -0.0001049 0.0000148 -0.0002514 -0.0001372 -0.0000325 0.0000061 -0.0001535 0.0000976 -0.0000522 -0.0001151 -0.0000628 -0.0002464 0.0001377 -0.0000248 -0.0000726 0.0000277 -0.0000831 0.0000183 -0.0001051 0.0000747 -0.0001467 0.0000328 -0.0000775 -0.0000060 -0.0000836 -0.0003832 -0.0001169 0.0000218 -0.0001019 0.0000399 -0.0000713 0.0000093 -0.0001268 0.0000085 -0.0000763 0.0000217 -0.0000654 0.0001231 -0.0000306 -0.0000677 -0.0000543 -0.0000190 -0.0000173 0.0000240 -0.0000500 0.0000190 -0.0000385 -0.0000176 -0.0000313 -0.0002260 0.0000211 -0.0000451 -0.0000094 0.0000100 0.0000365 0.0000128 -0.0000110 0.0000509 -0.0000519 -0.0014053 0.0045459 0.0000123 -0.0000159 0.0000405 -0.0000617 0.0000067 0.0000151 0.0000093 0.0000052 -0.0000060 0.0000271 -0.0000365 0.0000397 -0.0000069 0.0000490 -0.0000241 0.0000358 0.0000015 0.0000611 -0.0000045 0.0000202 -0.0000048 0.0000092 0.0000186 0.0001016 0.0002363 0.0000006 -0.0000286 0.0001101 -0.0000142 0.0000210 0.0000155 -0.0000014 -0.0001229 -0.0000215 -0.0000373 0.0000392 -0.0000232 0.0000349 0.0000009 0.0000728 0.0000075 0.0000613 -0.0000098 0.0000285 -0.0000436 -0.0000020 0.0000103 0.0000636 -0.0000246 0.0000833 -0.0000086 0.0000343 -0.0000399 0.0001098 0.0000767 0.0000294
-0.0000435 0.0001087 -0.0000215 0.0001650 0.0000244 0.0000576 0.0000076 0.0001012 -0.0000032 0.0000134 0.0000424 0.0000561 0.0000075 0.0000556 -0.0000190 -0.0000065 -0.0000373 0.0000740 -0.0000406 0.0001561 0.0000114 0.0000703 0.0000036 0.0001464 -0.0000774 0.0001684 0.0000017 -0.0000187 0.0000218 -0.0000498 -0.0000162 -0.0000756 -0.0001056 0.0001231 0.0000651 0.0000177 -0.0000023 -0.0000596 -0.0011689 0.0011831 0.0000024 0.0000911 0.0002354 -0.0001751 -0.0000078 0.0000326 -0.0000050 -0.0002262 -0.0001702 0.0002333 -0.0032449 0.0020351 0.0007376 -0.0003168 0.0000408 -0.0000802 0.0000059 -0.0000046 -0.0000198 -0.0000377 0.0000874 -0.0001323 0.0000300 0.0001397 -0.0000192 0.0001514 -0.0000062 0.0000702 -0.0000670 0.0000703 -0.0000082 -0.0000163 -0.0000408 0.0000158 0.0000536 -0.0000585 0.0000217 -0.0000020 0.0000936 -0.0000681 0.0001003 -0.0000289 -0.0001559 0.0001452 -0.0000246 0.0000001 -0.0000417 0.0000154 0.0001304 -0.0002274 -0.0000094 -0.0000257 -0.0001821 0.0002583 -0.0000310 0.0002038 -0.0000263 -0.0000315 0.0000216 0.0000594 -0.0000375 -0.0000590 -0.0000426 0.0000287 0.0000107 -0.0000821 -0.0000431 0.0000826 0.0000661 -0.0001716 -0.0001730 0.0000566 -0.0000127 -0.0000340 -0.0000189 -0.0000017 -0.0000050 -0.0000294 0.0000486 -0.0000058 -0.0000274 0.0000624 0.0000096 -0.0000137 -0.0000231 0.0000953 0.0000005 -0.0000216 -0.0000024 0.0000049 0.0000289 -0.0000727 -0.0000080 -0.0000087 -0.0000346 0.0001003 -0.0000464 0.0000330 -0.0000203 0.0000191 -0.0000285 0.0000531 0.0000056 0.0000288 -0.0000928 0.0001214 0.0000131 0.0000152 0.0000512 0.0003157 -0.0000302 0.0000674 0.0000228 0.0000006 -0.0001184 0.0002286 0.0000180 -0.0000067 -0.0057840 0.0093078 -0.0000014 0.0000095 -0.0002481 0.0002500 -0.0000300 0.0000497 -0.0000097 0.0000924 0.0000063 0.0000049 0.0000131 -0.0000075 0.0000235 0.0000327 0.0000060 -0.0000132 0.0000066 -0.0000182 0.0000072 0.0000021 -0.0000493 0.0000605 0.0001148 -0.0000423 0.0002547 0.0000136 -0.0000542 0.0001227 0.0000255 -0.0000271 0.0000104 -0.0000255 -0.0002046 0.0001868 -0.0000830 0.0000586 0.0000361 -0.0000340 0.0000197 -0.0000316 0.0000001 -0.0000134 -0.0000201 0.0000204 -0.0004807 0.0004029 0.0000155 -0.0000178 0.0000159 0.0000151 0.0000347 -0.0000566 -0.0000148 0.0000473 0.0000592 -0.0000353
0.0000048 -0.0000103 -0.0000226 0.0001047 0.0000497 -0.0001124 -0.0000229 -0.0000380 -0.0000013 -0.0002431 0.0002025 -0.0001961 -0.0000309 -0.0000769 0.0000838 0.0002267 -0.0000392 0.0000092 -0.0000310 0.0001000 -0.0000264 0.0000270 0.0000255 0.0000754 -0.0000104 0.0001038 0.0000131 -0.0002058 0.0000564 -0.0001253 -0.0000187 -0.0002801 -0.0000915 0.0000753 0.0001011 -0.0001324 -0.0000222 -0.0003174 -0.0003096 0.0008338 0.0000061 0.0000541 0.0000654 -0.0000739 0.0000576 -0.0001168 -0.0000285 -0.0004990 -0.0004028 0.0003538 -0.0055244 -0.0001831 0.0003788 -0.0001258 -0.0002571 0.0001457 -0.0000088 -0.0000329 0.0000411 -0.0000406 0.0000282 -0.0000495 -0.0000397 0.0001700 -0.0000215 0.0002065 -0.0000108 0.0000947 -0.0000308 0.0000781 -0.0000028 -0.0000067 -0.0000365 0.0001129 -0.0000036 -0.0000002 -0.0000117 0.0000566 -0.0001437 0.0001302 0.0000986 0.0000059 -0.0002177 0.0003700 0.0000119 -0.0000038 0.0000268 -0.0000089 0.0003232 -0.0004611 0.0000286 -0.0000048 -0.0001473 0.0002567 -0.0002394 0.0004772 -0.0000149 0.0000817 -0.0000567 0.0001687 -0.0000511 0.0000986 -0.0000611 0.0000984 0.0000257 -0.0000231 0.0001410 -0.0003131 -0.0000645 0.0000994 -0.0001224 0.0001021 0.0000184 -0.0000264 -0.0000123 0.0000526 -0.0000107 0.0000242 -0.0000310 0.0001485 -0.0000302 0.0001181 0.0000031 0.0000659 0.0000754 0.0003426 0.0000097 0.0000215 -0.0000119 0.0000240 0.0000655 -0.0000618 0.0000435 0.0000622 -0.0000721 0.0002242 -0.0000108 0.0002504 -0.0000216 0.0001270 -0.0000438 0.0001430 0.0000182 0.0001335 -0.0000211 0.0000356 0.0000233 0.0001214 0.0000986 -0.0002027 0.0000268 0.0001234 0.0000786 -0.0000397 0.0000365 0.0002044 0.0000512 0.0000281 -0.0147709 0.0194959 -0.0000679 0.0000845 -0.0004238 0.0005564 -0.0000185 0.0001482 -0.0000158 0.0002033 0.0000063 0.0000837 0.0000080 0.0000278 0.0000153 0.0001437 -0.0000079 0.0001053 0.0000831 0.0000773 -0.0000363 0.0000887 -0.0001065 0.0001288 0.0001174 0.0000633 -0.0000597 0.0002036 -0.0000779 0.0001458 -0.0000002 0.0000168 -0.0000256 0.0000530 -0.0000933 0.0004231 -0.0001519 0.0001911 -0.0000900 0.0001404 0.0000003 0.0000615 -0.0000001 0.0000977 -0.0000663 0.0001050 -0.0002193 0.0002142 0.0000002 0.0000708 -0.0000124 0.0000871 -0.0000387 0.0000580 -0.0000286 0.0001383 -0.0000204 0.0001494
0.0000662 0.0000409 -0.0000199 0.0002046 0.0000430 -0.0000270 -0.0000224 0.0000035 0.0000015 -0.0001413 0.0003136 -0.0001556 -0.0000795 -0.0000165 0.0000662 0.0001848 0.0000073 -0.0000019 -0.0000256 0.0002079 0.0000186 0.0000641 0.0000299 0.0001737 0.0000361 0.0000819 0.0000108 -0.0000654 0.0000473 -0.0001173 -0.0000125 -0.0001668 -0.0000464 0.0000489 -0.0000343 0.0001052 -0.0000460 -0.0002423 0.0003219 0.0000227 -0.0000094 0.0001445 -0.0001421 0.0001397 0.0000835 -0.0001096 -0.0000379 -0.0003861 0.0000372 0.0001052 -0.0111236 0.0092157 -0.0006276 0.0007176 -0.0003422 0.0002132 -0.0000218 0.0000311 0.0000348 0.0001276 -0.0000124 0.0000563 -0.0000614 0.0002524 0.0000032 0.0002615 0.0000139 0.0001590 -0.0000532 0.0001851 -0.0000169 0.0000710 -0.0000214 0.0001778 -0.0000298 0.0000422 0.0001028 -0.0000877 -0.0001632 0.0001363 0.0000974 -0.0000002 0.0000851 0.0000804 -0.0000254 0.0000995 0.0000643 -0.0000412 -0.0001560 0.0001460 0.0000315 0.0000001 -0.0000537 0.0001737 -0.0002982 0.0005019 0.0000303 0.0001794 -0.0000243 0.0002824 -0.0000360 -0.0000472 0.0000486 -0.0000410 0.0000447 -0.0000796 0.0000935 -0.0001000 -0.0000932 0.0000535 -0.0000530 -0.0000029 0.0000817 -0.0001429 0.0000070 -0.0000513 -0.0000200 -0.0000469 -0.0000367 0.0000929 -0.0000153 0.0000256 0.0000416 -0.0000396 -0.0007300 0.0007400 0.0000017 -0.0001377 0.0000399 -0.0000852 0.0000926 -0.0002181 0.0000681 -0.0000430 -0.0000725 0.0000577 0.0003648 -0.0005118 0.0000821 -0.0001577 -0.0000404 -0.0000426 0.0000149 -0.0001398 0.0000963 -0.0001816 0.0000167 -0.0001034 0.0012896 -0.0015570 0.0000581 -0.0000143 0.0000520 0.0000057 0.0000420 0.0000909 0.0000582 0.0000324 -0.0148549 0.0166339 -0.0000182 0.0000218 -0.0003007 0.0003610 0.0000419 -0.0000546 -0.0000140 0.0001903 0.0000645 -0.0000580 0.0000089 0.0000257 0.0000327 0.0000631 -0.0000322 0.0000351 0.0000440 0.0000882 -0.0000372 0.0000681 -0.0001045 0.0001256 0.0000069 0.0001004 -0.0003852 0.0003802 -0.0000562 0.0000969 -0.0000124 0.0000203 -0.0000050 0.0000385 -0.0003362 0.0008209 -0.0002536 0.0002948 -0.0000793 0.0001212 0.0000260 0.0000530 -0.0000079 0.0001536 -0.0001016 0.0001636 -0.0000470 0.0001335 -0.0000145 0.0001354 -0.0000124 0.0000855 -0.0000364 0.0000836 -0.0000433 0.0002046 -0.0000106 0.0002430
0.0001920 -0.0000036 -0.0000052 0.0002414 0.0000673 0.0000293 0.0000140 0.0000602 0.0000052 -0.0000407 0.0000613 0.0001527 -0.0001048 0.0001423 0.0000242 0.0000715 0.0000358 0.0000597 -0.0000307 0.0003080 0.0000357 0.0000729 0.0000038 0.0002567 0.0000349 0.0001071 0.0000228 0.0000196 0.0000262 -0.0000755 0.0000006 -0.0000228 0.0000547 -0.0000307 -0.0000120 0.0001838 -0.0000281 -0.0000927 -0.0011528 0.0008955 -0.0000156 0.0002184 -0.0000823 0.0001574 0.0001001 -0.0000498 -0.0000325 -0.0001177 0.0002298 0.0000547 -0.0149008 0.0130579 -0.0002426 0.0003413 -0.0003479 0.0004757 -0.0000167 0.0000939 0.0000122 0.0003981 -0.0000031 0.0001618 -0.0000097 0.0003278 -0.0000304 0.0003472 0.0000389 0.0001956 0.0000443 0.0000795 -0.0000101 0.0001857 -0.0000064 0.0003154 -0.0000580 0.0001127 0.0001375 0.0000061 -0.0001125 0.0002273 -0.0000554 0.0002060 -0.0001605 0.0003751 -0.0000289 0.0003006 -0.0000197 0.0001486 -0.0004125 0.0006666 0.0000238 0.0000989 -0.0000697 0.0001899 -0.0003539 0.0006322 0.0000122 0.0002508 -0.0001153 0.0005560 -0.0000232 0.0001447 0.0001157 -0.0000466 0.0000145 0.0000881 -0.0000292 0.0003135 -0.0000816 0.0001672 -0.0001767 0.0001639 0.0000633 -0.0000380 -0.0000060 0.0000469 -0.0000274 0.0000336 -0.0000624 0.0002310 -0.0000709 0.0000935 0.0000369 0.0000531 -0.0011922 0.0013785 0.0000276 -0.0000184 0.0000659 -0.0000870 0.0000706 -0.0000782 -0.0000044 0.0000861 -0.0001299 0.0002000 0.0001137 -0.0003990 0.0000906 -0.0000669 -0.0000606 0.0000825 -0.0000144 0.0000362 -0.0000115 0.0000200 0.0000105 0.0000426 0.0020554 -0.0018873 0.0000263 0.0001060 -0.0000990 0.0002165 0.0000292 0.0002097 -0.0001591 0.0002699 -0.0096545 0.0005645 -0.0000430 0.0000596 -0.0003788 0.0004936 0.0000344 0.0000693 -0.0000338 0.0003645 -0.0000011 0.0001063 -0.0000329 0.0000983 0.0000452 0.0001735 0.0000112 0.0000626 0.0000029 0.0002522 -0.0000675 0.0001481 -0.0001842 0.0002197 -0.0000818 0.0002445 -0.0001389 0.0005505 -0.0000271 0.0001797 -0.0001288 0.0001605 -0.0000435 0.0001394 -0.0001864 0.0006800 -0.0001248 0.0002760 -0.0001031 0.0001666 -0.0000231 0.0001915 -0.0000200 0.0003029 -0.0001327 0.0002265 -0.0000413 0.0001399 0.0000020 0.0002124 0.0000125 0.0001463 -0.0000868 0.0001633 -0.0000341 0.0002811 -0.0000365 0.0004451
0.0001267 0.0001581 -0.0000028 0.0003278 0.0000558 0.0001602 -0.0000074 0.0001830 0.0000097 0.0001535 -0.0002511 0.0004523 -0.0001111 0.0002131 -0.0000715 -0.0001656 -0.0000092 0.0002626 -0.0000401 0.0004484 -0.0000057 0.0002268 -0.0000177 0.0003608 -0.0000246 0.0002337 0.0000372 0.0002074 -0.0000052 -0.0000351 0.0000146 0.0002073 0.0000236 0.0000317 -0.0000230 0.0002486 -0.0000316 0.0000781 0.0005318 0.0003822 -0.0000100 0.0002333 -0.0000495 0.0001551 0.0000619 0.0000269 -0.0000124 0.0000831 -0.0000073 0.0002118 0.0019449 -0.0013380 0.0003414 -0.0000410 -0.0004830 0.0004678 0.0000414 -0.0000446 0.0000560 0.0000375 0.0001297 -0.0000705 0.0000390 0.0002188 -0.0000528 0.0003402 -0.0000080 0.0001436 0.0000903 -0.0000826 -0.0000088 0.0000200 -0.0000100 0.0000844 0.0000735 -0.0000521 0.0000915 0.0000572 -0.0000132 0.0000145 -0.0000762 0.0003051 -0.0002748 0.0003251 -0.0000394 0.0001050 0.0000248 -0.0000364 -0.0002266 0.0003716 -0.0000212 0.0000389 -0.0000769 0.0001958 -0.0002486 0.0003681 -0.0002287 0.0004185 -0.0000419 0.0004774 -0.0000413 0.0000965 0.0000705 -0.0000552 -0.0000060 0.0000837 0.0001489 -0.0000432 -0.0000694 0.0002076 0.0000561 0.0000337 0.0000335 -0.0000165 -0.0000218 0.0001281 -0.0000150 0.0000395 -0.0000580 0.0003071 -0.0000699 0.0001807 0.0000233 0.0000959 0.0002336 0.0005362 0.0000341 0.0000497 0.0000685 -0.0000824 0.0000579 -0.0000509 0.0000544 0.0000896 -0.0001541 0.0002894 -0.0005560 0.0008177 -0.0000447 0.0001105 -0.0000657 0.0001466 -0.0000092 0.0001411 -0.0000486 0.0000895 -0.0000151 0.0001549 0.0008031 0.0009785 -0.0000079 0.0002085 -0.0000026 0.0002057 -0.0000366 0.0003140 -0.0001273 0.0003034 -0.0017750 -0.0127768 -0.0000788 0.0001056 -0.0004062 0.0005995 -0.0000047 0.0002086 -0.0000482 0.0004616 -0.0001118 0.0002867 -0.0000690 0.0001434 0.0000053 0.0002612 -0.0000343 0.0001837 -0.0000169 0.0003179 -0.0001090 0.0002293 -0.0001537 0.0001917 -0.0001547 0.0002661 -0.0001233 0.0005830 -0.0000352 0.0002721 -0.0002505 0.0003198 -0.0000709 0.0001822 -0.0002823 0.0006892 0.0000087 0.0002502 -0.0001881 0.0002816 -0.0000478 0.0003132 -0.0000530 0.0004462 -0.0001678 0.0002843 0.0000358 -0.0000123 0.0000074 0.0002731 -0.0000083 0.0001799 -0.0001352 0.0002487 -0.0000376 0.0003238 -0.0000324 0.0005605
-0.0000850 0.0004797 -0.0000190 0.0003916 -0.0000237 0.0003197 -0.0000349 0.0003836 0.0000175 0.0003869 -0.0002548 0.0005401 -0.0000752 0.0002510 -0.0001777 -0.0005337 -0.0000440 0.0004320 -0.0000344 0.0005069 -0.0000748 0.0003995 -0.0000142 0.0004253 -0.0001630 0.0003891 0.0000468 0.0005275 -0.0000669 0.0000915 0.0000228 0.0005009 -0.0001531 0.0002561 -0.0000596 0.0003807 -0.0000355 0.0002965 -0.0000791 0.0013681 -0.0000139 0.0003192 -0.0001161 0.0004090 0.0000587 0.0001626 -0.0000267 0.0003044 0.0000339 0.0003475 0.0023365 0.0004143 -0.0005980 0.0010631 -0.0002802 0.0004888 0.0000133 0.0000532 0.0000278 0.0002059 0.0001422 0.0000109 0.0000542 0.0002368 -0.0000747 0.0003730 -0.0000258 0.0002775 -0.0001149 0.0001118 -0.0000208 0.0001491 -0.0000389 0.0002298 -0.0000013 0.0000423 0.0001130 0.0001089 0.0001579 0.0000411 -0.0000769 0.0004534 -0.0002385 0.0002921 0.0000127 0.0002061 -0.0000564 0.0001507 -0.0002125 0.0003322 -0.0000809 0.0001647 -0.0000524 0.0002069 0.0002397 0.0001177 -0.0001145 0.0003388 -0.0001084 0.0005028 -0.0000741 0.0003285 -0.0002224 0.0003631 0.0000306 0.0001519 0.0000646 -0.0000160 0.0000229 0.0003703 0.0000319 0.0001132 0.0000335 0.0000495 -0.0000326 0.0002059 -0.0000098 0.0001008 -0.0000692 0.0004002 -0.0000807 0.0002215 0.0000444 0.0001737 0.0008754 -0.0000188 0.0000150 0.0001969 -0.0000144 0.0000727 0.0000322 0.0000970 0.0000906 0.0001011 -0.0001397 0.0003398 -0.0005301 0.0009256 -0.0000308 0.0002859 -0.0000856 0.0002511 -0.0000294 0.0003052 -0.0000768 0.0001395 -0.0000455 0.0003000 -0.0015272 0.0036421 0.0000005 0.0002792 -0.0000085 0.0001944 -0.0000250 0.0002998 0.0000033 0.0003097 0.0025548 -0.0034864 -0.0001328 0.0001785 -0.0002350 0.0004460 -0.0000450 0.0003655 -0.0000646 0.0005522 -0.0000140 0.0002381 -0.0001550 0.0002540 -0.0000027 0.0003212 0.0000094 0.0002088 0.0000392 0.0002367 -0.0001384 0.0002924 -0.0002035 0.0002487 -0.0002247 0.0003481 -0.0000711 0.0005600 0.0000248 0.0002759 -0.0002544 0.0003231 -0.0001376 0.0002683 -0.0004959 0.0008544 -0.0000900 0.0003464 -0.0001715 0.0002598 -0.0000312 0.0002729 -0.0000759 0.0004502 -0.0001747 0.0002730 0.0000854 -0.0000684 0.0000035 0.0001749 -0.0000162 0.0001217 -0.0001619 0.0002566 -0.0000749 0.0002854 -0.0000485 0.0003813
-0.0001396 0.0004705 -0.0000239 0.0002662 -0.0000241 0.0001776 -0.0000707 0.0003504 0.0000052 0.0002624 -0.0000332 0.0003602 -0.0000694 0.0000881 -0.0001554 -0.0005110 -0.0000093 0.0003641 -0.0000166 0.0003640 -0.0001798 0.0003279 -0.0000089 0.0003200 -0.0001277 0.0002437 0.0000609 0.0004381 -0.0000684 0.0000734 0.0000299 0.0004593 -0.0001676 0.0002574 -0.0000213 0.0002648 -0.0000233 0.0002929 -0.0023820 0.0025800 0.0000002 0.0001960 -0.0002796 0.0004664 0.0001451 -0.0000480 -0.0000381 0.0004216 0.0001078 0.0001571 -0.0011724 0.0032906 0.0010216 -0.0004278 0.0000059 0.0003993 -0.0000146 0.0000367 0.0000323 0.0002430 -0.0000348 0.0001458 0.0000022 0.0001680 -0.0000713 0.0002711 0.0000026 0.0001576 -0.0000562 0.0000771 -0.0000323 0.0001575 0.0000264 0.0001324 -0.0000292 0.0000725 0.0002400 -0.0000438 0.0001231 0.0001187 -0.0001864 0.0003303 -0.0003987 0.0005457 0.0000548 0.0002208 -0.0000886 0.0002158 -0.0001135 0.0003375 -0.0000773 0.0001630 -0.0003595 0.0003731 0.0004303 -0.0001080 0.0000963 0.0000700 -0.0000874 0.0004026 -0.0000692 0.0004192 -0.0003446 0.0005979 0.0000309 0.0001716 -0.0000455 0.0000356 0.0000556 0.0005395 -0.0000369 0.0002318 -0.0000605 0.0001694 -0.0000260 0.0002377 -0.0000309 0.0001424 0.0000207 0.0002438 -0.0001184 0.0002677 0.0000265 0.0002124 0.0008468 -0.0001863 -0.0000013 0.0003014 -0.0000483 0.0001251 0.0000272 0.0001743 0.0000562 0.0001431 -0.0000903 0.0003163 0.0001357 0.0001162 0.0000565 0.0002543 -0.0000918 0.0003180 -0.0000486 0.0004110 -0.0001690 0.0002887 -0.0000347 0.0003499 -0.0015322 0.0029179 0.0000543 0.0002471 -0.0000498 0.0002598 -0.0000181 0.0002692 0.0000019 0.0003903 0.0034989 0.0056320 -0.0002413 0.0002901 -0.0004154 0.0006268 -0.0000504 0.0004471 -0.0000781 0.0005834 0.0000577 0.0001769 -0.0001535 0.0002705 0.0000059 0.0003627 0.0000215 0.0002391 -0.0001408 0.0005673 -0.0001693 0.0003455 -0.0003014 0.0003586 -0.0002572 0.0006028 -0.0002717 0.0006646 -0.0000008 0.0003152 -0.0002482 0.0003111 -0.0001463 0.0003347 -0.0007229 0.0008721 -0.0000054 0.0001295 -0.0002457 0.0003404 -0.0000297 0.0003064 -0.0000876 0.0005386 -0.0001722 0.0002913 0.0004423 -0.0005864 0.0000135 0.0002212 0.0000013 0.0001420 -0.0002260 0.0003548 -0.0000907 0.0003681 -0.0000472 0.0004013
-0.0002089 0.0005720 -0.0000151 0.0002776 0.0000171 0.0002290 -0.0000737 0.0004548 -0.0000029 0.0003858 0.0000028 0.0004543 -0.0000905 0.0001156 -0.0002189 -0.0005913 0.0000301 0.0003601 -0.0000147 0.0003948 -0.0001615 0.0004331 -0.0000274 0.0003743 -0.0000608 0.0001798 0.0000757 0.0005508 -0.0000955 0.0001201 0.0000379 0.0006025 -0.0001623 0.0002509 0.0000362 0.0003357 -0.0000268 0.0004891 -0.0021142 0.0024525 -0.0000227 0.0002583 -0.0001511 0.0005381 0.0001057 0.0000774 -0.0000205 0.0006260 -0.0001562 0.0003753 0.0027595 -0.0063297 0.0017453 -0.0007457 0.0005373 0.0000842 0.0000068 0.0000625 0.0000981 0.0003398 -0.0001494 0.0003957 -0.0000777 0.0002270 -0.0000669 0.0002249 -0.0000027 0.0001849 -0.0000364 0.0000859 -0.0000285 0.0002266 0.0000017 0.0002507 -0.0000269 0.0000985 0.0001354 0.0001332 -0.0000873 0.0005769 -0.0001258 0.0002616 -0.0000933 0.0007564 0.0000843 0.0002654 -0.0000454 0.0002188 -0.0001849 0.0006313 -0.0000095 0.0002095 -0.0001459 0.0002897 0.0002277 0.0003671 -0.0001374 0.0003029 0.0001082 0.0002771 -0.0000760 0.0005544 -0.0001459 0.0005681 -0.0000111 0.0002960 -0.0000525 0.0000315 0.0000943 0.0005684 -0.0000325 0.0002419 0.0000077 0.0001611 -0.0000466 0.0002569 -0.0000410 0.0001611 0.0000567 0.0002092 -0.0001015 0.0001569 0.0000240 0.0001845 0.0001365 0.0000994 -0.0000526 0.0003072 -0.0000827 0.0001505 0.0000227 0.0001757 0.0000531 0.0000843 -0.0000479 0.0001860 -0.0001638 0.0001493 0.0000981 -0.0000200 -0.0000605 0.0001550 -0.0000308 0.0001561 -0.0001527 0.0002419 -0.0000054 0.0001183 0.0002011 -0.0000591 -0.0000375 0.0001921 -0.0000358 0.0002060 -0.0000320 0.0001490 -0.0000705 0.0003626 -0.0049340 0.0149926 -0.0002996 0.0003280 -0.0005183 0.0006992 -0.0000119 0.0001421 -0.0000512 0.0004301 0.0000365 0.0000266 -0.0000691 0.0001212 0.0000194 0.0001283 -0.0000192 0.0000426 -0.0001361 0.0002201 -0.0001026 0.0001865 -0.0001792 0.0002096 -0.0001107 0.0002751 -0.0003392 0.0006025 0.0000030 0.0002075 -0.0002874 0.0003440 -0.0000924 0.0002196 -0.0002931 0.0002184 0.0000662 -0.0000728 -0.0002149 0.0002585 -0.0000334 0.0002282 -0.0001302 0.0005171 -0.0001586 0.0002583 0.0002963 -0.0004390 0.0000205 0.0001810 0.0000094 0.0000689 -0.0001533 0.0002663 -0.0000815 0.0003028 0.0000337 0.0003116
-0.0000482 0.0004804 -0.0000163 0.0001946 0.0000341 0.0001781 -0.0000290 0.0004571 -0.0000020 0.0003765 -0.0001803 0.0005339 -0.0000799 0.0000664 -0.0001998 -0.0005777 -0.0000145 0.0003492 -0.0000373 0.0003565 -0.0001425 0.0004590 -0.0000194 0.0003135 -0.0000544 0.0001380 0.0000900 0.0005156 -0.0000984 0.0001159 0.0000551 0.0006059 -0.0001623 0.0002687 -0.0000086 0.0003936 -0.0000301 0.0005342 -0.0017999 0.0022979 -0.0000108 0.0002438 0.0001228 0.0004623 0.0000438 0.0001699 -0.0000196 0.0006772 -0.0000500 0.0004611 0.0045090 -0.0127558 -0.0013514 0.0014087 0.0002196 0.0003397 0.0000032 0.0000566 0.0001191 0.0004168 -0.0001200 0.0003834 0.0000027 0.0001197 -0.0000541 0.0001520 0.0000283 0.0001315 -0.0001387 0.0002341 -0.0000166 0.0002576 -0.0000548 0.0004134 -0.0001822 0.0002610 -0.0000422 0.0003561 -0.0001739 0.0008018 -0.0002418 0.0004216 0.0000203 0.0008434 -0.0000889 0.0004880 -0.0000366 0.0002948 -0.0002487 0.0006711 0.0000116 0.0002728 0.0000567 0.0001481 -0.0002189 0.0009109 -0.0003031 0.0004163 0.0000918 0.0002290 -0.0001297 0.0007665 -0.0000893 0.0004971 0.0000093 0.0003656 -0.0001224 0.0003129 0.0002832 0.0003317 0.0001124 0.0002572 0.0000831 0.0001665 -0.0000359 0.0003319 -0.0000283 0.0002269 -0.0000203 0.0003374 -0.0001024 0.0001775 -0.0000113 0.0002509 -0.0001935 0.0005029 -0.0000606 0.0004104 -0.0001116 0.0002251 -0.0000179 0.0003455 -0.0000509 0.0002675 -0.0000632 0.0002487 -0.0009447 0.0009266 0.0001250 0.0001020 -0.0000768 0.0002597 -0.0000441 0.0003217 -0.0001503 0.0002569 -0.0000533 0.0002763 0.0015165 -0.0013963 -0.0000326 0.0002422 -0.0000613 0.0000907 -0.0000182 0.0001275 -0.0001167 0.0004037 -0.0075538 0.0109118 -0.0002359 0.0002716 -0.0004013 0.0005702 -0.0000357 0.0002307 -0.0000542 0.0004494 0.0000549 0.0000716 -0.0000740 0.0001384 -0.0000061 0.0001963 -0.0000341 0.0001072 0.0000351 0.0001641 -0.0001123 0.0002261 -0.0001157 0.0001416 -0.0001195 0.0003229 -0.0001996 0.0007398 -0.0000507 0.0002235 -0.0003152 0.0003805 -0.0002756 0.0004282 -0.0001712 0.0002524 -0.0000812 0.0001764 -0.0002081 0.0002739 -0.0000692 0.0002734 -0.0001389 0.0005640 -0.0001999 0.0003181 -0.0004547 0.0006356 0.0000009 0.0002553 -0.0000211 0.0001568 -0.0002275 0.0003802 -0.0000898 0.0003448 -0.0000018 0.0004177
0.0001188 0.0003065 -0.0000262 0.0002059 0.0000246 0.0002258 0.0000265 0.0004047 -0.0000029 0.0003777 -0.0001637 0.0004630 -0.0001591 0.0000483 -0.0001837 -0.0004987 -0.0000324 0.0003532 -0.0000792 0.0004447 0.0001048 0.0002510 -0.0000027 0.0003125 -0.0000675 0.0001699 0.0000915 0.0005422 -0.0000791 0.0000852 0.0000575 0.0006056 -0.0001407 0.0002816 -0.0001424 0.0004791 -0.0000736 0.0004865 -0.0003494 0.0007787 0.0000126 0.0002703 0.0002148 0.0004530 -0.0000115 0.0002870 -0.0000432 0.0006035 0.0002686 0.0001711 -0.0013686 0.0030552 -0.0008896 0.0008641 -0.0003041 0.0007411 -0.0000040 0.0000658 0.0000336 0.0004668 -0.0000661 0.0003474 0.0000224 0.0000839 -0.0000408 0.0001009 0.0000161 0.0001201 -0.0002108 0.0002416 -0.0000304 0.0000908 -0.0000216 0.0002194 -0.0002321 0.0002768 0.0000149 0.0001025 -0.0004380 0.0007042 0.0000718 0.0001115 -0.0000415 0.0006265 -0.0002112 0.0004817 -0.0000221 0.0001686 -0.0001743 0.0003755 0.0000096 0.0001444 -0.0001091 0.0001822 -0.0008568 0.0012428 -0.0002124 0.0002659 -0.0000657 0.0002414 -0.0001141 0.0004439 -0.0000236 0.0002577 -0.0000118 0.0001758 -0.0001309 0.0003436 0.0002425 0.0000775 0.0004626 0.0000269 -0.0000037 0.0001486 -0.0000481 0.0003017 -0.0000392 0.0001525 -0.0000883 0.0003175 -0.0000568 -0.0000001 0.0000056 0.0001215 0.0005216 0.0002933 -0.0000705 0.0003857 -0.0000714 0.0001426 -0.0000489 0.0003048 0.0000063 0.0001837 -0.0000555 0.0002580 -0.0003585 0.0005850 0.0000768 0.0001238 -0.0000698 0.0002228 -0.0000600 0.0003256 -0.0001411 0.0002301 -0.0000950 0.0002425 0.0008816 -0.0009463 0.0000425 0.0001148 -0.0000510 -0.0001010 -0.0000316 0.0000645 -0.0001413 0.0004202 -0.0034961 -0.0011957 -0.0001667 0.0001981 -0.0000165 0.0001305 -0.0000326 0.0002641 -0.0000683 0.0004036 -0.0000988 0.0002157 -0.0000749 0.0001406 -0.0000049 0.0001790 -0.0000556 0.0001340 0.0001827 0.0001137 -0.0001216 0.0002358 -0.0000824 0.0001033 -0.0000412 0.0003050 -0.0003104 0.0009155 -0.0000453 0.0001906 -0.0002574 0.0003155 -0.0003151 0.0004661 -0.0002921 0.0005857 -0.0000900 0.0001922 -0.0002470 0.0003458 -0.0001221 0.0003072 -0.0001246 0.0005182 -0.0002115 0.0003363 -0.0005208 0.0007505 -0.0000005 0.0002861 -0.0000415 0.0001932 -0.0002371 0.0004027 -0.0001170 0.0003592 -0.0000437 0.0003881
0.0000514 0.0002644 -0.0000435 0.0001967 -0.0000354 0.0002908 0.0000062 0.0003464 -0.0000031 0.0003340 -0.0002003 0.0005144 -0.0001008 -0.0000690 -0.0001343 -0.0003406 -0.0000187 0.0002870 -0.0000666 0.0003999 0.0001880 0.0001454 -0.0000128 0.0003032 -0.0000138 0.0001198 0.0000863 0.0005010 -0.0000524 0.0000367 0.0000519 0.0004825 -0.0001577 0.0002853 -0.0001460 0.0004851 -0.0000795 0.0004061 0.0009544 -0.0004481 -0.0000032 0.0003163 -0.0000716 0.0006499 -0.0000017 0.0003565 -0.0000530 0.0004701 0.0001712 0.0001372 -0.0050220 -0.0034475 0.0011450 -0.0009472 0.0000829 0.0005398 -0.0000076 0.0000947 -0.0000392 0.0006695 -0.0001366 0.0005216 0.0000558 0.0000952 -0.0000600 0.0001144 0.0000169 0.0001578 -0.0002113 0.0001318 -0.0000216 0.0001116 0.0000618 0.0001905 -0.0002407 0.0003100 0.0002565 -0.0001422 -0.0003583 0.0006257 0.0001099 0.0001146 -0.0003131 0.0006957 -0.0000575 0.0004642 -0.0001530 0.0003571 0.0003522 -0.0001482 -0.0000527 0.0002748 -0.0001308 0.0000801 -0.0006998 0.0008105 -0.0000854 0.0001801 -0.0001041 0.0002974 -0.0000473 0.0004806 -0.0000010 0.0003476 -0.0000291 0.0002612 0.0000892 0.0001195 0.0002003 0.0002241 -0.0000430 0.0003447 -0.0000365 0.0002187 -0.0000915 0.0003594 -0.0000418 0.0002021 -0.0001195 0.0003811 -0.0000366 -0.0001064 0.0000783 0.0000824 0.0006101 0.0000268 -0.0000915 0.0004642 -0.0000425 0.0001461 -0.0000412 0.0003516 0.0000556 0.0001138 -0.0001192 0.0003377 0.0001216 0.0003290 0.0000222 0.0002408 -0.0000719 0.0002877 -0.0000659 0.0003739 -0.0002646 0.0004161 -0.0000769 0.0002608 0.0005012 -0.0004874 0.0000072 0.0001564 -0.0001322 -0.0000177 0.0000170 -0.0000021 -0.0000506 0.0003547 -0.0073958 0.0071578 -0.0001934 0.0002214 -0.0001547 0.0003032 -0.0000569 0.0003548 -0.0000746 0.0004096 -0.0001319 0.0003296 -0.0001810 0.0002540 -0.0000028 0.0002007 -0.0000743 0.0002069 0.0002795 0.0001341 -0.0001362 0.0002657 -0.0001487 0.0001769 0.0000396 0.0002984 -0.0001980 0.0007407 -0.0000529 0.0002170 -0.0002269 0.0002833 -0.0002940 0.0004657 0.0002525 0.0000126 -0.0000844 0.0001793 -0.0002859 0.0003889 -0.0001386 0.0003547 -0.0001441 0.0004985 -0.0002193 0.0003373 -0.0004343 0.0005352 -0.0000031 0.0002572 -0.0000349 0.0002019 -0.0001676 0.0002842 -0.0001135 0.0003089 -0.0001351 0.0003494
-0.0000675 0.0002932 -0.0000274 0.0001102 -0.0000659 0.0002208 -0.0000583 0.0002135 0.0000010 0.0001441 -0.0004860 0.0006401 -0.0000912 -0.0002186 -0.0000289 -0.0000659 -0.0000329 0.0001461 -0.0000684 0.0002057 -0.0000346 0.0001565 0.0000205 0.0001323 0.0000055 0.0000436 0.0000850 0.0002324 -0.0000069 -0.0000901 0.0000492 0.0001409 -0.0001990 0.0002409 -0.0000862 0.0001963 -0.0000691 0.0001480 -0.0012447 0.0014837 -0.0000177 0.0001235 -0.0001536 0.0004185 0.0000101 0.0001317 -0.0000459 0.0001658 0.0000939 -0.0000443 0.0050990 -0.0196217 0.0012584 -0.0012598 0.0002603 0.0000355 -0.0000078 -0.0000984 -0.0000557 0.0003057 -0.0001543 0.0002750 0.0001031 -0.0001251 -0.0000534 -0.0000147 0.0000782 -0.0001140 -0.0000798 -0.0000622 -0.0000126 -0.0000076 -0.0000405 0.0001017 -0.0001875 0.0002188 0.0003519 -0.0002751 -0.0001247 0.0002799 -0.0000858 0.0000795 -0.0008507 0.0009941 -0.0000270 0.0002736 -0.0001530 0.0003149 0.0002643 -0.0002458 -0.0001362 0.0002780 0.0001406 -0.0002708 0.0002596 -0.0002322 0.0000703 -0.0000477 0.0000127 0.0000250 -0.0000641 0.0004060 -0.0000453 0.0003215 -0.0000395 0.0002103 0.0003319 -0.0000965 -0.0001056 0.0004539 -0.0004183 0.0004797 0.0000150 0.0000891 -0.0000484 0.0003156 -0.0000449 0.0001748 -0.0001296 0.0002895 -0.0000733 -0.0000326 0.0000402 0.0000903 0.0003132 -0.0001952 -0.0000928 0.0004094 -0.0000469 0.0001539 -0.0000230 0.0002971 -0.0000110 0.0001285 -0.0001655 0.0003539 -0.0000320 0.0003799 0.0000233 0.0002658 -0.0000934 0.0003031 -0.0000372 0.0003674 -0.0002271 0.0003750 -0.0000627 0.0002270 0.0000488 -0.0007560 -0.0000542 0.0001607 -0.0000933 -0.0000031 0.0000121 -0.0000430 -0.0000278 0.0002482 -0.0046519 0.0051563 -0.0001292 0.0001501 -0.0003562 0.0004567 -0.0000937 0.0003803 -0.0000553 0.0003245 -0.0000123 0.0001542 -0.0001786 0.0002487 -0.0000381 0.0001790 -0.0000598 0.0001571 0.0000817 0.0002813 -0.0001317 0.0002447 -0.0001388 0.0001666 -0.0000062 0.0002391 -0.0003759 0.0006180 -0.0000615 0.0001590 -0.0002587 0.0003150 -0.0002508 0.0004258 0.0000787 0.0001278 -0.0000708 0.0001185 -0.0001731 0.0002427 -0.0001048 0.0003180 -0.0001761 0.0004763 -0.0002097 0.0003228 -0.0000150 0.0000418 0.0000053 0.0002732 -0.0000453 0.0002029 -0.0002069 0.0003248 -0.0001021 0.0002878 -0.0001224 0.0003102
-0.0001637 0.0003609 -0.0000209 0.0001106 -0.0000071 0.0001874 -0.0000736 0.0002797 0.0000015 0.0001630 -0.0004323 0.0005053 -0.0001464 -0.0001252 -0.0000202 0.0000081 0.0000471 0.0000230 -0.0000587 0.0001711 -0.0000692 0.0002130 0.0000092 0.0000834 -0.0000776 0.0001019 0.0000780 0.0001887 0.0000021 -0.0001000 0.0000399 0.0000283 -0.0001395 0.0001408 -0.0000337 0.0000846 -0.0000955 0.0000945 -0.0014503 0.0016982 -0.0000264 0.0001131 0.0001048 0.0001805 -0.0000219 0.0001988 -0.0000578 0.0000580 0.0001093 0.0000238 -0.0001416 0.0014338 -0.0008101 0.0007536 0.0000019 0.0002334 -0.0000344 -0.0000354 -0.0000798 0.0004347 -0.0000884 0.0001722 0.0000267 -0.0000490 -0.0000588 -0.0000230 0.0000675 -0.0000371 -0.0001982 0.0000324 -0.0000188 0.0000466 -0.0000133 0.0001829 -0.0001850 0.0002157 0.0002322 -0.0001660 -0.0003063 0.0004452 0.0001631 -0.0001329 -0.0005824 0.0007723 -0.0000822 0.0004090 -0.0002326 0.0004403 -0.0003034 0.0003590 -0.0001404 0.0002710 0.0002274 -0.0003198 0.0001017 0.0003272 0.0000411 -0.0000631 -0.0000751 0.0000520 -0.0001134 0.0004915 -0.0001446 0.0004110 -0.0000636 0.0002464 0.0004605 -0.0002525 0.0000462 0.0003284 0.0000964 0.0000007 0.0000036 0.0000632 -0.0000563 0.0002888 -0.0000776 0.0001782 -0.0001136 0.0002371 -0.0001467 -0.0000109 -0.0000274 0.0001244 0.0004100 -0.0001629 -0.0000934 0.0002456 -0.0001112 0.0001999 -0.0000405 0.0002444 0.0000493 -0.0000180 -0.0001183 0.0002187 0.0001743 -0.0001453 0.0000318 0.0000320 -0.0000828 0.0001245 -0.0000106 0.0000838 -0.0001192 0.0002003 -0.0000468 -0.0000107 -0.0030307 0.0008977 -0.0000696 0.0000487 -0.0000647 -0.0001877 -0.0001047 -0.0000259 -0.0001488 0.0001996 -0.0095496 0.0044690 -0.0000579 0.0000648 -0.0000087 0.0000250 -0.0000765 0.0001117 -0.0000223 0.0001119 0.0000417 -0.0001930 -0.0000636 0.0000562 -0.0000299 -0.0000713 -0.0000115 -0.0001883 0.0000472 -0.0001359 -0.0000365 0.0000291 0.0000221 -0.0000281 -0.0001066 -0.0000359 -0.0002654 0.0002102 -0.0001585 -0.0000052 -0.0001958 0.0002136 -0.0001416 0.0001799 -0.0002760 0.0003178 -0.0000567 -0.0000934 -0.0000205 0.0000041 -0.0000530 -0.0000378 -0.0002016 0.0001682 -0.0000839 0.0001081 0.0002209 -0.0002499 0.0000099 0.0001010 -0.0000477 0.0000120 -0.0000971 0.0001389 -0.0000822 0.0000704 -0.0001465 0.0000504
0.0000069 0.0000551 -0.0000220 -0.0000493 -0.0000470 0.0000104 -0.0000423 0.0001667 0.0000035 0.0000168 0.0000504 0.0000115 -0.0001118 -0.0002229 0.0000718 0.0002138 0.0000804 -0.0001522 -0.0000455 0.0000422 0.0000544 -0.0000236 -0.0000336 -0.0000502 -0.0001195 0.0000542 0.0000739 -0.0000248 0.0000239 -0.0001625 0.0000470 -0.0001819 0.0000939 -0.0001483 -0.0001290 -0.0000007 -0.0000852 -0.0001077 0.0002707 0.0000907 -0.0000070 -0.0000347 -0.0002435 0.0003304 0.0000597 0.0000526 -0.0000602 -0.0000936 -0.0001784 0.0002081 -0.0078098 0.0062379 -0.0009116 0.0007284 0.0000161 0.0002009 -0.0000247 -0.0000669 0.0000059 0.0004004 -0.0001089 0.0001140 0.0000022 -0.0001072 -0.0000166 -0.0001597 -0.0000088 -0.0000249 -0.0001720 0.0000106 -0.0000149 0.0000016 -0.0000204 0.0001549 -0.0000719 0.0000978 0.0002215 -0.0001616 -0.0005252 0.0005830 -0.0000720 0.0000399 -0.0003615 0.0003902 -0.0001074 0.0003712 -0.0002469 0.0004334 -0.0003910 0.0004568 -0.0000893 0.0001970 0.0003447 -0.0005084 -0.0002968 0.0003612 0.0000901 -0.0000977 -0.0000978 0.0000412 -0.0000432 0.0004208 -0.0001078 0.0002771 -0.0000561 0.0002278 0.0001753 0.0001572 0.0003681 0.0000573 0.0001835 -0.0000680 0.0000068 0.0000442 -0.0000809 0.0002695 -0.0000811 0.0001697 -0.0000678 0.0001806 -0.0001147 -0.0000065 -0.0000407 0.0001118 0.0004508 -0.0000800 -0.0000166 0.0001440 -0.0000846 0.0001743 -0.0000357 0.0001942 0.0000445 -0.0000217 -0.0001319 0.0002526 0.0005913 -0.0007471 0.0000043 0.0000598 -0.0000687 0.0001464 -0.0000004 0.0000953 -0.0001709 0.0002855 -0.0000421 0.0000321 -0.0024922 0.0010060 0.0000374 -0.0000131 -0.0000052 -0.0002727 -0.0000603 -0.0001049 -0.0002216 0.0001963 -0.0107587 0.0082374 -0.0000295 0.0000222 -0.0001375 0.0002318 -0.0000825 0.0001631 -0.0000119 0.0000550 0.0000343 -0.0001353 -0.0000540 0.0000499 0.0000277 -0.0000918 -0.0000100 -0.0001872 0.0001647 -0.0001717 -0.0000379 0.0000345 0.0000240 -0.0000311 -0.0001605 0.0000955 0.0001121 -0.0001657 -0.0002372 -0.0000373 -0.0001955 0.0002050 -0.0000770 0.0000683 -0.0004233 0.0004093 -0.0000110 -0.0001139 -0.0000808 0.0000638 -0.0000518 -0.0000687 -0.0001591 0.0001103 -0.0000847 0.0000989 0.0000134 -0.0000352 0.0000080 0.0001236 -0.0000297 -0.0000006 -0.0001454 0.0001984 -0.0000486 0.0000343 -0.0001980 0.0000200
0.0001025 -0.0001156 -0.0000330 0.0000089 -0.0001018 0.0001018 0.0000218 0.0000869 0.0000043 0.0001004 -0.0000016 0.0000792 -0.0000993 -0.0002375 0.0000764 0.0002391 -0.0000041 -0.0001238 -0.0000815 0.0000797 0.0000955 -0.0001340 -0.0000514 -0.0000307 -0.0000527 -0.0000171 0.0000692 -0.0000429 0.0000236 -0.0001790 0.0000569 -0.0001760 0.0001077 -0.0001864 -0.0001594 -0.0001323 -0.0000649 -0.0002079 0.0001534 0.0000169 0.0000276 -0.0001409 -0.0001269 0.0001348 0.0000644 -0.0000734 -0.0000565 -0.0001507 -0.0001657 0.0000799 -0.0263192 0.0214767 -0.0006684 0.0002837 0.0000584 -0.0000225 0.0000158 -0.0002012 0.0000666 0.0000079 -0.0000676 -0.0001403 -0.0000589 -0.0001531 0.0000172 -0.0002920 0.0000456 -0.0002028 -0.0000242 -0.0001204 -0.0000111 -0.0002417 -0.0000844 -0.0000542 -0.0000202 -0.0000129 0.0001539 -0.0002196 -0.0001190 -0.0001140 -0.0001527 0.0000021 -0.0003297 -0.0000021 -0.0001361 0.0000183 0.0000192 -0.0000425 -0.0002667 0.0001297 -0.0000689 -0.0000249 0.0003350 -0.0006167 -0.0004710 0.0000811 0.0000736 -0.0001983 0.0000280 -0.0002291 0.0000386 -0.0001620 -0.0000321 -0.0000753 -0.0000406 -0.0000675 0.0000498 0.0002627 0.0001645 0.0000232 -0.0000056 -0.0000564 -0.0000067 -0.0001395 -0.0000475 0.0000838 -0.0000365 -0.0000368 0.0000183 -0.0001454 0.0000007 -0.0001771 0.0000284 -0.0001513 0.0005486 -0.0003974 0.0000210 -0.0000482 -0.0000043 0.0000124 0.0000148 -0.0000847 0.0000027 -0.0001383 0.0000137 -0.0000121 -0.0010190 0.0006308 0.0000360 -0.0000718 -0.0000574 0.0000243 0.0000274 -0.0000468 -0.0000896 0.0001371 -0.0000362 -0.0001051 -0.0002508 -0.0007894 0.0000935 -0.0001795 -0.0000260 -0.0002659 0.0000403 -0.0003442 -0.0001497 -0.0000186 0.0040264 -0.0129443 0.0000175 -0.0000465 -0.0000090 0.0000501 -0.0000991 0.0000924 -0.0000097 -0.0000811 -0.0000244 -0.0001107 0.0000098 -0.0000429 0.0000069 -0.0001775 0.0000305 -0.0002812 0.0000766 -0.0001763 -0.0000272 -0.0000111 -0.0000088 -0.0000015 -0.0003038 0.0001053 0.0002539 -0.0002700 -0.0001043 -0.0002845 -0.0001318 0.0001218 -0.0000058 -0.0000448 -0.0005252 0.0003673 0.0000587 -0.0003513 -0.0000847 0.0000256 -0.0000904 -0.0000704 -0.0001016 -0.0000181 -0.0000592 0.0000528 -0.0001725 0.0000668 0.0000373 0.0000750 0.0000156 -0.0001023 -0.0001391 0.0001783 -0.0000216 -0.0000420 -0.0001194 -0.0001677
0.0000369 -0.0001648 -0.0000406 0.0000127 -0.0000587 0.0000903 -0.0000112 0.0000610 0.0000190 0.0002077 -0.0000730 -0.0000083 0.0000302 -0.0002436 0.0000587 0.0001300 0.0000265 -0.0001592 -0.0000654 -0.0000010 0.0000186 -0.0001285 -0.0000190 -0.0001131 -0.0000565 -0.0000550 0.0000595 -0.0000274 0.0000343 -0.0002025 0.0000622 -0.0001186 0.0001494 -0.0002499 -0.0000977 -0.0001354 -0.0000313 -0.0001471 0.0013228 -0.0008914 0.0000140 -0.0001285 0.0002597 -0.0001884 0.0000744 -0.0000877 -0.0000513 0.0000215 0.0002928 -0.0001897 -0.0088239 0.0142751 -0.0008820 0.0003470 -0.0000414 0.0001334 0.0000127 -0.0000996 0.0000535 0.0000459 -0.0000109 -0.0001490 -0.0000900 -0.0000346 0.0000510 -0.0002902 0.0000786 -0.0001581 -0.0000618 -0.0001329 -0.0000016 -0.0001509 -0.0000345 -0.0000409 0.0000008 -0.0000272 0.0001986 -0.0002211 0.0000093 -0.0002369 0.0001467 -0.0002066 -0.0005565 0.0003123 0.0000102 -0.0000953 0.0001328 -0.0001215 -0.0002495 0.0000607 -0.0001078 0.0000413 -0.0002375 -0.0001782 -0.0007054 0.0003276 -0.0000687 -0.0001566 -0.0000519 -0.0001651 0.0000342 -0.0001234 0.0000113 -0.0000693 -0.0000102 -0.0000464 0.0000667 0.0001705 0.0002807 0.0000418 -0.0000772 -0.0000219 0.0000221 -0.0001200 -0.0000011 0.0000179 -0.0000169 -0.0000296 -0.0000720 -0.0000574 -0.0000546 -0.0001532 0.0000284 -0.0001130 0.0007801 -0.0003994 0.0000012 -0.0000279 0.0000727 -0.0000861 0.0000265 -0.0000802 0.0000359 -0.0001549 0.0001612 -0.0001506 -0.0007377 0.0010016 0.0000480 -0.0000097 -0.0000316 0.0000134 0.0000384 -0.0000511 -0.0001200 0.0001825 -0.0000382 -0.0000529 -0.0002604 -0.0007313 0.0000583 -0.0001546 -0.0000600 -0.0002447 0.0000212 -0.0002908 -0.0000344 -0.0001155 -0.0000445 -0.0126453 0.0000637 -0.0000834 -0.0000983 0.0000590 -0.0000732 -0.0000294 -0.0000420 -0.0001328 -0.0000163 -0.0001809 0.0000075 -0.0000851 -0.0000545 -0.0002480 0.0001287 -0.0004502 0.0000222 -0.0003395 0.0000403 -0.0001287 0.0001195 -0.0001525 -0.0002566 -0.0000822 -0.0002042 -0.0001913 -0.0000516 -0.0004278 0.0000008 -0.0000350 0.0000512 -0.0001713 0.0000909 -0.0005108 -0.0000616 -0.0004138 0.0001212 -0.0002510 -0.0000990 -0.0002067 -0.0000586 -0.0002931 0.0000113 -0.0000811 -0.0001632 -0.0000895 0.0000525 -0.0001419 0.0000046 -0.0002479 0.0001035 -0.0001738 0.0000027 -0.0002573 -0.0000727 -0.0004790
0.0001427 -0.0002841 -0.0000148 -0.0001687 -0.0000361 -0.0001562 0.0000070 -0.0001081 0.0000378 0.0000967 -0.0000374 -0.0002583 0.0000270 -0.0002718 0.0000787 0.0000625 0.0000697 -0.0003004 -0.0000061 -0.0002931 -0.0000906 -0.0003008 0.0000080 -0.0003683 -0.0001226 -0.0000777 0.0000664 -0.0001799 0.0000845 -0.0003113 0.0000659 -0.0002024 0.0002027 -0.0003583 -0.0001062 -0.0001923 0.0000001 -0.0001482 0.0004067 -0.0005330 -0.0000017 -0.0002859 0.0000384 -0.0001513 0.0000879 -0.0002726 -0.0000295 0.0001432 0.0003572 -0.0003715 -0.0023737 0.0093536 -0.0008534 0.0003351 0.0002542 -0.0002487 0.0000181 -0.0000943 0.0000733 -0.0001162 0.0000201 -0.0001908 -0.0000295 -0.0001560 0.0000493 -0.0003290 0.0000571 -0.0001826 0.0000390 -0.0001741 0.0000024 -0.0001269 0.0000015 -0.0001919 0.0001532 -0.0001941 0.0003130 -0.0004210 0.0000485 -0.0002143 0.0001416 -0.0003990 -0.0005868 0.0004892 0.0001005 -0.0002349 0.0002007 -0.0002192 0.0000890 -0.0003351 -0.0000927 0.0000197 -0.0004883 0.0000214 -0.0004155 0.0000563 -0.0000280 -0.0002758 -0.0000072 -0.0002850 0.0000541 -0.0001280 0.0000665 -0.0001780 0.0000109 -0.0000685 0.0001269 0.0000585 0.0001370 0.0002175 0.0000486 -0.0000627 0.0000183 -0.0001215 0.0000664 -0.0000908 0.0000166 -0.0000526 -0.0001281 -0.0000183 -0.0000478 -0.0000891 0.0000011 -0.0000963 -0.0000227 0.0002250 0.0000233 -0.0000584 0.0001434 -0.0001954 0.0000209 -0.0000956 0.0000820 -0.0001216 0.0001018 -0.0000878 -0.0001440 0.0003178 0.0000517 -0.0000699 -0.0000073 -0.0000014 0.0000575 -0.0000554 -0.0000945 0.0001667 -0.0000494 -0.0000196 0.0013794 -0.0019746 0.0000039 -0.0001297 -0.0000094 -0.0003067 -0.0000983 -0.0002152 0.0000675 -0.0002197 -0.0199024 0.0205940 0.0001601 -0.0001673 -0.0003612 0.0003988 -0.0000533 0.0000054 -0.0000568 -0.0001487 0.0000751 -0.0002787 -0.0000286 -0.0000461 -0.0000145 -0.0002740 0.0000778 -0.0003555 0.0001688 -0.0004766 -0.0000005 -0.0000658 0.0001229 -0.0001527 -0.0000644 -0.0001979 -0.0006341 0.0000659 -0.0000694 -0.0003771 -0.0000141 -0.0000076 0.0000691 -0.0001731 0.0005126 -0.0009446 -0.0001634 -0.0001439 0.0001236 -0.0002105 -0.0000235 -0.0002258 -0.0000273 -0.0002465 -0.0000026 -0.0000493 0.0001326 -0.0003857 0.0000499 -0.0001120 -0.0000251 -0.0001875 0.0001181 -0.0001627 0.0000415 -0.0002673 -0.0000305 -0.0004031
0.0001381 -0.0000981 -0.0000222 -0.0000622 -0.0000139 -0.0001053 0.0000742 0.0000459 0.0000403 0.0003697 -0.0001221 -0.0000748 0.0000118 -0.0000893 -0.0000694 -0.0003369 0.0000562 -0.0002246 0.0000162 -0.0002690 -0.0000264 -0.0003577 -0.0000042 -0.0003154 -0.0001257 0.0000026 0.0000714 0.0001055 0.0000969 -0.0002554 0.0000586 0.0000894 0.0001052 -0.0002016 0.0000835 -0.0003317 0.0000071 0.0000374 0.0011043 -0.0008563 -0.0000099 -0.0002035 0.0001550 -0.0001309 0.0000424 -0.0001716 -0.0000300 0.0003361 0.0000554 -0.0001592 -0.0059408 0.0089196 -0.0009891 0.0004133 0.0002421 -0.0003772 0.0000186 -0.0000543 0.0001093 -0.0002486 -0.0000522 -0.0000988 -0.0000491 -0.0001095 0.0000030 -0.0002690 0.0000449 -0.0001797 0.0001305 -0.0002028 0.0000117 -0.0001541 0.0001133 -0.0003942 0.0002540 -0.0003221 0.0002999 -0.0004507 0.0000965 -0.0003637 -0.0000707 -0.0002179 -0.0001188 -0.0002887 -0.0000256 -0.0003138 0.0001291 -0.0002552 0.0003505 -0.0005762 -0.0000660 -0.0001415 -0.0002339 -0.0000780 -0.0000017 -0.0003251 -0.0000484 -0.0003070 -0.0000610 -0.0003291 0.0000858 -0.0004332 -0.0000208 -0.0002582 0.0000177 -0.0002557 0.0001504 -0.0001325 -0.0001310 0.0002960 0.0000536 -0.0001657 0.0000429 -0.0002473 0.0001346 -0.0003340 0.0000550 -0.0002384 -0.0000748 -0.0002680 0.0000659 -0.0003275 0.0000127 -0.0002768 0.0004552 -0.0005624 0.0000617 -0.0002904 0.0001898 -0.0003436 0.0000461 -0.0003542 0.0001675 -0.0003995 0.0001981 -0.0003827 0.0003172 -0.0005913 0.0000987 -0.0004205 0.0000328 -0.0002930 0.0001172 -0.0004390 0.0000734 -0.0001352 -0.0000062 -0.0003812 0.0026162 -0.0035474 -0.0000342 -0.0002949 -0.0000563 -0.0002549 -0.0000778 -0.0003326 0.0001070 -0.0003696 -0.0230275 0.0207865 0.0001993 -0.0002237 -0.0000789 0.0000097 -0.0000544 -0.0001700 -0.0000571 -0.0002626 0.0000909 -0.0005326 0.0000217 -0.0001245 0.0000124 -0.0004299 0.0000503 -0.0004409 0.0003731 -0.0007813 -0.0000109 -0.0000922 0.0000483 -0.0000777 -0.0000958 -0.0002575 -0.0001836 -0.0000339 -0.0000011 -0.0004808 0.0000524 -0.0000940 0.0001222 -0.0002798 0.0002019 -0.0007984 -0.0000373 -0.0003643 0.0001000 -0.0001672 -0.0000017 -0.0002831 -0.0000045 -0.0002903 0.0000313 -0.0000996 -0.0000528 -0.0001837 0.0000436 -0.0001149 0.0000429 -0.0002582 0.0000773 -0.0001304 0.0000735 -0.0002686 0.0000188 -0.0004067
-0.0000737 0.0001121 -0.0000377 0.0000052 0.0000443 -0.0001001 0.0000673 0.0001705 0.0000407 0.0005514 -0.0001756 0.0001182 0.0001319 0.0000203 -0.0001707 -0.0006578 0.0000606 -0.0001375 -0.0000125 -0.0002279 0.0000431 -0.0003479 -0.0000170 -0.0002842 -0.0001152 0.0000228 0.0000654 0.0002802 0.0000960 -0.0001723 0.0000664 0.0003359 0.0000963 -0.0001296 0.0001141 -0.0002974 0.0000096 0.0001409 0.0007991 -0.0002260 -0.0000049 -0.0001453 0.0003108 -0.0001808 0.0000730 -0.0001289 -0.0000450 0.0004932 0.0000466 0.0000408 0.0003356 -0.0011882 0.0012560 -0.0008613 -0.0000893 -0.0000009 0.0000056 0.0000411 0.0001356 -0.0001095 -0.0001283 0.0000299 -0.0000573 0.0000217 0.0000260 -0.0002493 0.0000249 -0.0000805 0.0001194 -0.0001766 0.0000091 0.0000278 0.0001359 -0.0002147 0.0002881 -0.0003225 0.0003000 -0.0003151 -0.0003123 -0.0001193 -0.0001862 0.0000701 0.0001673 -0.0004807 0.0000048 -0.0002125 -0.0000282 -0.0000026 0.0000639 -0.0001826 -0.0000473 -0.0001023 -0.0001325 -0.0001486 -0.0004950 -0.0000796 -0.0000597 -0.0002565 -0.0001515 -0.0002012 0.0000488 -0.0001957 0.0000308 -0.0001208 0.0000157 -0.0001666 -0.0001158 0.0002154 0.0000855 0.0002736 0.0000165 -0.0001605 0.0001568 -0.0002080 0.0001465 -0.0003175 0.0000633 -0.0002057 -0.0000017 -0.0002435 0.0000653 -0.0003404 -0.0000446 -0.0001686 0.0007090 -0.0004201 0.0000790 -0.0001588 0.0002083 -0.0003385 0.0000833 -0.0002900 0.0002603 -0.0004927 0.0001842 -0.0002207 0.0001672 -0.0004281 0.0001349 -0.0002913 0.0000606 -0.0002342 0.0001340 -0.0002827 0.0000386 -0.0000816 0.0000444 -0.0002614 0.0030102 -0.0029225 -0.0000670 -0.0001876 0.0000386 -0.0002309 0.0001404 -0.0004240 0.0001442 -0.0002010 -0.0203165 0.0103508 0.0001066 -0.0001212 0.0000011 -0.0000935 -0.0000457 -0.0000674 -0.0000458 -0.0001696 -0.0000116 -0.0003305 0.0000565 -0.0001284 -0.0000037 -0.0002591 0.0000635 -0.0003073 0.0002488 -0.0004413 -0.0000328 0.0000037 0.0000651 -0.0000876 0.0000737 -0.0002440 -0.0005921 0.0001910 0.0002160 -0.0005526 0.0001108 -0.0001610 0.0001449 -0.0002757 0.0001133 -0.0006895 0.0000303 -0.0003680 0.0000264 -0.0000753 -0.0000320 -0.0002291 0.0000755 -0.0003681 0.0000793 -0.0001627 -0.0003956 0.0001121 0.0000385 -0.0001226 0.0000707 -0.0002514 0.0001454 -0.0002354 0.0000458 -0.0002074 0.0000123 -0.0004707
-0.0000031 0.0001219 -0.0000500 0.0000355 0.0000170 -0.0000846 0.0000724 0.0001410 0.0000302 0.0005130 -0.0000850 0.0001808 0.0001358 0.0000105 -0.0001967 -0.0007484 0.0000330 -0.0000396 0.0000084 -0.0002521 0.0000775 -0.0003466 0.0000298 -0.0003244 -0.0000839 -0.0000892 0.0000637 0.0002444 0.0001051 -0.0001636 0.0000741 0.0003527 0.0000814 -0.0000864 -0.0000361 -0.0001498 0.0000243 0.0001200 -0.0000405 -0.0000174 0.0000318 -0.0002513 0.0000232 -0.0001680 0.0000884 -0.0003323 -0.0000427 0.0005351 0.0001666 0.0000043 0.0019260 0.0062422 0.0016127 -0.0006888 -0.0002609 0.0001378 0.0000424 -0.0000050 0.0001374 -0.0002279 -0.0000391 -0.0002442 -0.0000299 0.0000220 0.0000238 -0.0002509 0.0000112 -0.0000765 0.0001619 -0.0001935 0.0000088 0.0000916 0.0000961 -0.0002278 0.0003275 -0.0003506 0.0000311 -0.0000879 -0.0001515 -0.0003299 -0.0001655 -0.0000584 -0.0002733 -0.0000533 0.0001226 -0.0002414 0.0000471 -0.0001131 -0.0001992 0.0000034 -0.0000457 -0.0001045 -0.0002261 -0.0001013 -0.0003519 -0.0001382 -0.0000420 -0.0002590 -0.0001082 -0.0002218 0.0000460 -0.0001320 0.0001105 -0.0000495 0.0000424 -0.0001452 0.0001978 0.0000025 0.0002647 0.0001584 0.0000336 -0.0001317 0.0001071 -0.0001117 0.0001968 -0.0002973 0.0000768 -0.0001926 0.0000397 -0.0001859 0.0000738 -0.0002371 -0.0000402 -0.0001379 0.0000576 0.0001309 0.0000799 -0.0000272 0.0002582 -0.0003919 0.0000967 -0.0001937 0.0001511 -0.0003680 0.0000615 -0.0000465 -0.0006010 -0.0000002 0.0001372 -0.0002601 0.0000816 -0.0002034 0.0001343 -0.0001744 0.0000567 -0.0001000 0.0000400 -0.0001466 0.0004763 -0.0004273 -0.0000710 -0.0001367 0.0000218 -0.0000972 0.0000359 -0.0002095 0.0002684 -0.0001808 -0.0109053 0.0027020 0.0000734 -0.0000575 0.0001542 -0.0001909 -0.0000711 0.0000430 -0.0000042 -0.0001390 -0.0000745 -0.0001794 0.0000351 -0.0000970 0.0000449 -0.0001804 0.0000867 -0.0002463 -0.0000588 -0.0001074 -0.0000599 0.0000994 0.0000383 -0.0000477 0.0001752 -0.0001660 -0.0004936 0.0001340 0.0001716 -0.0004395 -0.0000335 0.0000195 0.0001504 -0.0001649 0.0005203 -0.0008172 -0.0000696 0.0000232 -0.0000209 -0.0000022 -0.0000377 -0.0000765 0.0000406 -0.0001637 0.0000707 -0.0001102 -0.0002142 -0.0000079 0.0000538 -0.0000156 0.0000601 -0.0001170 0.0000629 -0.0000795 0.0000332 -0.0000847 -0.0000379 -0.0002434
0.0000794 0.0002627 -0.0000427 0.0002010 0.0000052 0.0001019 0.0001332 0.0002301 0.0000194 0.0006741 0.0001053 0.0002777 0.0000669 0.0002247 -0.0003452 -0.0010450 0.0000531 0.0001570 0.0000095 -0.0000283 0.0001322 -0.0001632 0.0000714 -0.0001708 -0.0000220 -0.0000993 0.0000690 0.0004826 0.0000906 -0.0000722 0.0000729 0.0004993 0.0000024 0.0000681 -0.0001689 0.0002083 0.0000169 0.0002960 -0.0010605 0.0011153 0.0000275 -0.0000659 0.0001153 -0.0001188 0.0001118 -0.0002789 -0.0000542 0.0006577 0.0001392 0.0002497 -0.0014497 0.0095989 0.0000065 0.0003771 0.0000152 0.0001869 0.0000299 0.0001702 0.0002044 -0.0001179 0.0001078 -0.0001724 0.0000251 0.0001290 -0.0000035 -0.0000714 -0.0000448 0.0000967 0.0000025 0.0000515 0.0000136 0.0002462 0.0000520 -0.0000333 0.0003188 -0.0003130 -0.0000362 0.0000697 0.0001728 -0.0003235 -0.0000523 -0.0000111 -0.0000702 0.0000373 0.0001515 -0.0001821 0.0001203 -0.0001888 -0.0000847 -0.0001001 -0.0000825 -0.0000456 -0.0000753 -0.0001772 0.0001579 -0.0001933 -0.0000697 -0.0001990 -0.0000223 -0.0001766 0.0000828 -0.0002316 0.0000136 0.0001761 0.0000539 -0.0001533 0.0002509 -0.0001854 0.0003565 0.0002542 0.0000013 -0.0000692 0.0000210 -0.0000777 0.0002238 -0.0003530 0.0000901 -0.0002441 0.0000772 -0.0001679 0.0001019 -0.0002398 -0.0000237 -0.0001558 -0.0002212 -0.0001349 0.0000906 -0.0001157 0.0003406 -0.0005381 0.0000787 -0.0002631 0.0000881 -0.0004171 0.0001225 -0.0002629 0.0003653 -0.0009239 0.0001137 -0.0004692 0.0001002 -0.0003900 0.0001371 -0.0004395 0.0002111 -0.0003615 0.0000485 -0.0003630 -0.0029958 0.0010025 -0.0000162 -0.0002752 -0.0000119 -0.0001021 -0.0000866 -0.0000394 0.0002699 -0.0002054 -0.0007948 -0.0095727 0.0001861 -0.0001694 0.0004299 -0.0005613 -0.0000749 -0.0002049 -0.0000060 -0.0002222 0.0000403 -0.0005087 0.0000738 -0.0001815 0.0000626 -0.0003611 0.0001115 -0.0004104 0.0000166 -0.0005386 -0.0000091 -0.0000107 0.0000182 -0.0000328 0.0000504 -0.0000439 -0.0000267 -0.0000502 0.0001975 -0.0004739 0.0000105 -0.0000327 0.0001288 -0.0001553 0.0005539 -0.0008734 -0.0000948 0.0000251 0.0001081 -0.0001407 0.0000229 -0.0001222 0.0000158 -0.0001298 0.0000510 -0.0000908 -0.0000628 -0.0001289 0.0000504 -0.0000621 0.0000643 -0.0001269 0.0000538 -0.0000695 0.0000615 -0.0001281 -0.0000397 -0.0001666
0.0000685 0.0003224 -0.0000388 0.0002349 0.0000151 0.0001329 0.0001164 0.0002525 0.0000035 0.0005906 0.0000445 0.0004814 0.0000580 0.0003692 -0.0003925 -0.0012203 0.0000939 0.0002257 -0.0000117 0.0000779 0.0001639 -0.0000668 0.0000497 -0.0000586 -0.0000720 0.0001066 0.0000780 0.0005209 0.0000779 0.0000101 0.0000724 0.0004555 0.0000022 0.0001224 -0.0002319 0.0004042 0.0000229 0.0003400 -0.0010822 0.0014797 -0.0000238 0.0001001 0.0003542 -0.0001711 0.0000928 -0.0001819 -0.0000614 0.0005741 0.0000913 0.0003602 0.0063567 -0.0158129 0.0006428 0.0004428 -0.0002702 0.0005941 0.0000272 0.0003252 0.0002733 -0.0001050 0.0002222 -0.0001549 0.0000629 0.0001164 0.0000041 0.0000235 -0.0000594 0.0001435 -0.0000200 0.0001332 0.0000208 0.0003439 0.0001026 0.0001804 0.0003330 -0.0002984 0.0001284 -0.0000104 0.0003003 -0.0002734 -0.0000067 0.0000547 0.0001982 -0.0001619 0.0000535 0.0000953 0.0001506 -0.0000929 -0.0002833 0.0002917 -0.0000392 -0.0000280 -0.0000619 -0.0001236 -0.0000802 -0.0000041 -0.0000194 -0.0001801 0.0000150 -0.0000699 0.0001321 -0.0000543 0.0001417 0.0002550 0.0000508 -0.0000355 0.0000635 -0.0000321 0.0003083 0.0005674 -0.0000029 -0.0000105 0.0000550 -0.0000101 0.0001902 -0.0002538 0.0000899 -0.0001543 0.0001167 -0.0000805 0.0001591 -0.0001379 -0.0000625 0.0000123 -0.0007999 -0.0001700 0.0000875 -0.0000042 0.0002960 -0.0004370 0.0001082 -0.0001725 0.0001928 -0.0003912 0.0001654 -0.0001630 -0.0002018 -0.0003248 0.0001487 -0.0003153 0.0001028 -0.0002465 0.0001211 -0.0002326 0.0001369 -0.0002253 0.0000478 -0.0001821 -0.0021533 0.0015439 0.0000259 -0.0001698 0.0001591 -0.0001635 -0.0000374 0.0000597 0.0001476 0.0000125 -0.0086277 0.0063287 0.0000303 -0.0000114 0.0004264 -0.0004995 -0.0000841 -0.0000265 -0.0000304 -0.0000268 0.0001380 -0.0004477 -0.0000171 -0.0000504 0.0000055 -0.0000995 0.0000962 -0.0002331 0.0001815 -0.0003628 -0.0000673 0.0001159 -0.0000248 0.0000317 -0.0000930 0.0002829 -0.0005566 0.0004979 0.0003349 -0.0002808 -0.0000515 0.0000551 -0.0000003 0.0000375 0.0000532 0.0000019 -0.0001178 0.0001837 0.0000588 -0.0000453 0.0000606 0.0000172 0.0000682 0.0000138 0.0000122 -0.0000045 -0.0001897 0.0001818 0.0000252 0.0000729 0.0000235 0.0000395 -0.0000303 0.0000680 0.0000581 0.0000158 0.0001465 -0.0001128
0.0000509 0.0004199 -0.0000636 0.0003667 0.0000274 0.0002329 0.0001307 0.0003047 -0.0000131 0.0004974 -0.0001314 0.0007446 0.0000476 0.0003402 -0.0003729 -0.0011195 0.0000845 0.0001810 -0.0000132 0.0001752 0.0000843 0.0001050 -0.0000177 0.0001206 -0.0001797 0.0002755 0.0000742 0.0004443 0.0000870 0.0000198 0.0000541 0.0002228 -0.0000142 0.0001618 -0.0001889 0.0004070 0.0000311 0.0002462 0.0004606 -0.0000447 -0.0000439 0.0001491 0.0001897 -0.0000271 0.0000230 -0.0001257 -0.0000625 0.0003249 -0.0002185 0.0005397 0.0158356 -0.0212087 0.0007270 0.0005815 -0.0003766 0.0003445 0.0000468 0.0002589 0.0002003 -0.0004508 0.0001336 -0.0002842 0.0000051 0.0001136 0.0000135 0.0000144 0.0000035 -0.0000525 0.0001883 -0.0000893 0.0000195 0.0001881 0.0001262 -0.0000420 0.0003388 -0.0003422 0.0001294 -0.0001096 0.0002406 -0.0005515 -0.0001018 -0.0001687 0.0002270 -0.0006527 -0.0000403 0.0000669 0.0001622 -0.0001723 0.0000638 -0.0002588 0.0000056 -0.0001502 0.0001015 -0.0001620 0.0005506 -0.0007398 0.0000374 -0.0002267 -0.0000056 -0.0000524 0.0000538 -0.0000308 0.0002130 0.0000798 0.0000862 -0.0000968 0.0002773 -0.0003046 0.0003006 0.0005233 0.0002353 -0.0001507 0.0000984 -0.0000402 0.0001571 -0.0001724 0.0000877 -0.0001293 -0.0000435 0.0001588 0.0002020 -0.0000774 -0.0000866 0.0000865 -0.0000732 -0.0001619 0.0000596 0.0000551 0.0002021 -0.0003168 0.0001585 -0.0001877 0.0001724 -0.0003063 0.0002261 -0.0001450 -0.0001052 -0.0001267 0.0000854 -0.0002110 0.0000782 -0.0001333 0.0001568 -0.0001669 0.0000647 -0.0000989 0.0000687 -0.0001524 -0.0001977 0.0007834 0.0000103 -0.0000939 0.0001049 0.0000781 0.0000645 0.0000696 0.0001239 0.0001077 -0.0220606 0.0271635 -0.0001117 0.0001390 0.0003368 -0.0003231 -0.0000788 0.0001113 -0.0000328 0.0001293 0.0000808 -0.0003229 -0.0000693 0.0000412 -0.0000059 0.0000710 0.0000808 -0.0001247 0.0002450 -0.0002405 -0.0000808 0.0001583 -0.0000400 0.0000636 -0.0000940 0.0003498 -0.0009238 0.0010379 0.0000713 0.0000851 -0.0001236 0.0001449 -0.0000327 0.0001250 -0.0001083 0.0004497 -0.0000776 0.0002405 0.0000264 -0.0000133 -0.0000197 0.0002490 0.0000639 0.0001923 -0.0000263 0.0000727 -0.0002879 0.0003377 0.0000266 0.0001807 0.0000254 0.0001392 -0.0001641 0.0002687 0.0000667 0.0000863 0.0001091 0.0000831
-0.0001926 0.0006257 -0.0000714 0.0004611 0.0000677 0.0003057 0.0001658 0.0002431 -0.0000195 0.0003998 -0.0001451 0.0007162 0.0000773 0.0003836 -0.0002897 -0.0008132 0.0000229 0.0002446 -0.0000262 0.0003563 -0.0000398 0.0003348 -0.0000074 0.0002874 -0.0000433 0.0001871 0.0000763 0.0003848 0.0000898 0.0000118 0.0000615 0.0000904 -0.0001066 0.0002824 -0.0000575 0.0004425 0.0000135 0.0002056 0.0013407 -0.0005926 -0.0000460 0.0003255 0.0002963 0.0000865 -0.0000306 0.0000664 -0.0000777 0.0001611 -0.0002335 0.0005546 0.0128374 -0.0121589 0.0012029 0.0002356 0.0002401 -0.0001037 0.0000389 0.0003637 0.0001483 -0.0001811 0.0000722 0.0000190 0.0000813 0.0001967 0.0000347 0.0001568 0.0000152 0.0000821 0.0000459 0.0001437 0.0000299 0.0002877 0.0001221 0.0001370 0.0002062 -0.0001826 0.0000075 0.0001227 0.0000761 -0.0003246 0.0000139 -0.0000577 0.0002117 -0.0001137 -0.0000118 0.0003093 0.0000295 0.0000940 0.0002264 -0.0003478 -0.0000171 0.0000334 -0.0000360 0.0001451 0.0006955 -0.0006378 -0.0001760 0.0001513 0.0000481 0.0001426 0.0000157 0.0003012 0.0000444 0.0002459 0.0001049 0.0000762 0.0001204 -0.0000215 0.0002311 0.0004865 0.0004401 -0.0002121 0.0001375 0.0000290 0.0001546 -0.0000480 0.0000744 -0.0000030 -0.0001135 0.0004190 0.0001461 0.0000433 -0.0001222 0.0002719 0.0010070 -0.0003169 0.0000513 0.0002286 0.0001427 -0.0001744 0.0001608 -0.0000059 0.0001583 -0.0001672 0.0002213 0.0000126 0.0010515 -0.0008485 0.0000761 -0.0000170 0.0000376 0.0001009 0.0001690 0.0000618 0.0000596 -0.0000575 0.0000635 0.0000636 0.0030602 -0.0019119 -0.0000008 0.0000837 -0.0001007 0.0004480 0.0001459 0.0002150 0.0001043 0.0002153 -0.0139815 0.0269499 -0.0000692 0.0001189 -0.0001797 0.0002785 -0.0000962 0.0002959 -0.0000550 0.0003503 0.0000556 -0.0001677 -0.0001682 0.0001977 0.0000197 0.0001638 0.0000720 0.0000131 0.0001670 -0.0000970 -0.0000519 0.0001546 -0.0001320 0.0001709 0.0000171 0.0003501 -0.0008152 0.0012385 -0.0000160 0.0002833 -0.0000825 0.0001108 -0.0000628 0.0001608 0.0003358 0.0000127 0.0000006 0.0003124 0.0000795 -0.0000772 0.0000079 0.0002551 0.0000913 0.0002012 -0.0000621 0.0001048 -0.0000616 0.0001930 0.0000111 0.0001324 0.0000828 0.0001157 -0.0001119 0.0001859 0.0000920 -0.0000162 0.0001399 0.0000038
-0.0001747 0.0005216 -0.0000691 0.0003716 -0.0000143 0.0002711 0.0001243 0.0000545 -0.0000300 0.0000389 -0.0001750 0.0003753 0.0000039 0.0003257 -0.0000850 -0.0002619 -0.0000665 0.0001812 -0.0000920 0.0004651 -0.0000359 0.0003461 0.0000289 0.0003247 0.0000560 0.0001736 0.0000820 0.0001279 0.0000943 -0.0000645 0.0000737 -0.0001764 -0.0001489 0.0003098 -0.0000367 0.0004560 0.0000216 -0.0000075 0.0011398 -0.0005771 -0.0000490 0.0004068 0.0003200 0.0000447 -0.0000037 0.0000837 -0.0000888 -0.0001349 -0.0002704 0.0005272 0.0020658 -0.0031220 0.0010859 0.0001920 0.0005079 -0.0002225 0.0000537 0.0004325 0.0002020 -0.0000496 0.0000837 0.0001213 0.0000811 0.0002483 -0.0000175 0.0003212 0.0000051 0.0001811 -0.0001009 0.0003591 0.0000351 0.0002886 0.0002356 0.0001936 0.0001909 -0.0001521 -0.0000956 0.0002687 0.0001957 -0.0001894 0.0000215 0.0001166 0.0001305 0.0001292 -0.0000564 0.0006185 0.0000283 0.0001684 -0.0002679 0.0004117 -0.0000455 0.0001766 -0.0000575 0.0002786 0.0002767 -0.0000350 -0.0001695 0.0002287 0.0000172 0.0003298 0.0000989 0.0004594 0.0001364 0.0002947 0.0000959 0.0002260 -0.0001482 0.0001113 0.0000514 0.0000737 0.0001487 -0.0000622 0.0001793 0.0000953 0.0001359 0.0000349 0.0001025 0.0000485 -0.0000476 0.0003832 0.0000540 0.0002487 -0.0001107 0.0004010 -0.0000254 0.0004138 0.0000316 0.0003471 0.0001637 -0.0001441 0.0001658 0.0001328 0.0001021 0.0000004 0.0001100 0.0002679 0.0001813 -0.0003165 0.0001802 0.0000781 0.0000005 0.0003436 0.0001923 0.0002306 0.0000343 0.0000128 0.0000500 0.0002591 0.0033934 -0.0026181 0.0000317 0.0002636 -0.0001185 0.0005609 0.0000688 0.0004047 0.0000756 0.0002820 -0.0066284 0.0160971 -0.0001180 0.0001680 -0.0007932 0.0009886 -0.0001072 0.0005327 -0.0000841 0.0005508 0.0000791 0.0000447 -0.0002142 0.0003078 0.0000078 0.0003955 0.0000479 0.0002065 0.0002352 0.0002294 -0.0000908 0.0002646 -0.0002505 0.0003061 0.0000822 0.0005068 -0.0002030 0.0010084 0.0001501 0.0003404 -0.0001805 0.0002544 -0.0001496 0.0003146 0.0003766 0.0002738 0.0000522 0.0004490 0.0000006 0.0000389 0.0000534 0.0003593 0.0000734 0.0003739 -0.0000960 0.0001838 -0.0001835 0.0004585 -0.0000254 0.0002557 0.0000849 0.0002240 -0.0001334 0.0002491 0.0000653 0.0000754 0.0001966 0.0000480
-0.0000475 0.0003987 -0.0000867 0.0004121 -0.0001167 0.0003978 0.0000323 0.0001513 -0.0000422 -0.0000197 -0.0004236 0.0003766 -0.0000874 0.0003112 -0.0000147 0.0000432 -0.0001448 0.0000373 -0.0001350 0.0006461 -0.0000664 0.0005145 -0.0000084 0.0004742 -0.0000496 0.0003887 0.0000636 0.0000662 0.0000633 -0.0000262 0.0000382 -0.0003345 -0.0002176 0.0003565 -0.0002003 0.0006786 -0.0000039 -0.0000816 0.0023557 -0.0013531 -0.0000540 0.0005172 0.0000368 0.0003039 -0.0000427 0.0002825 -0.0000949 -0.0004137 -0.0000761 0.0003346 -0.0053445 0.0085696 0.0002332 0.0008212 0.0004303 -0.0000382 0.0000247 0.0005627 0.0001432 0.0001108 0.0000329 0.0002766 -0.0001374 0.0005312 -0.0000645 0.0004731 0.0000024 0.0003368 -0.0000221 0.0003201 0.0000234 0.0002575 0.0002144 0.0002738 0.0001363 -0.0000960 -0.0001585 0.0004451 0.0000897 0.0001196 -0.0000053 0.0001918 0.0002550 0.0001809 -0.0001864 0.0007704 -0.0001035 0.0002841 -0.0000395 0.0003776 -0.0000363 0.0002149 0.0000446 0.0001306 -0.0000058 0.0004845 -0.0000535 0.0002747 0.0000649 0.0003295 -0.0000064 0.0003831 0.0004278 0.0000588 0.0000875 0.0001902 -0.0001374 0.0000196 -0.0000758 -0.0004440 -0.0000870 -0.0000018 0.0001881 0.0000431 0.0000772 0.0000266 0.0001209 -0.0000158 -0.0001005 0.0003719 -0.0000138 0.0002946 -0.0000654 0.0003483 -0.0009378 0.0009762 0.0000385 0.0002030 0.0001745 -0.0002012 0.0001774 0.0000515 0.0000851 -0.0000051 0.0000550 0.0001933 -0.0004569 -0.0000508 0.0002737 -0.0001991 -0.0000295 0.0002585 0.0002191 -0.0001530 0.0000504 -0.0000439 0.0000496 -0.0000278 0.0031362 -0.0026322 0.0000363 0.0002025 -0.0000815 0.0004470 -0.0001214 0.0005614 0.0000396 0.0001849 -0.0117158 0.0141977 -0.0001699 0.0001959 -0.0002430 0.0003572 -0.0001012 0.0004038 -0.0000926 0.0005241 0.0001323 -0.0000894 -0.0000685 0.0001506 0.0000187 0.0003419 0.0000660 0.0000989 0.0001723 0.0001638 -0.0001177 0.0002599 -0.0001571 0.0001933 0.0000623 0.0005790 0.0005016 0.0004005 0.0001187 0.0002693 -0.0001598 0.0002323 -0.0000633 0.0002343 -0.0000962 0.0010538 0.0000111 0.0004166 -0.0000436 0.0000835 -0.0000070 0.0004230 0.0000619 0.0003296 -0.0000959 0.0001845 -0.0000157 0.0001766 -0.0000299 0.0002526 0.0000513 0.0002066 -0.0001035 0.0002228 0.0000643 0.0000303 0.0000825 0.0000107
-0.0000285 0.0002468 -0.0001004 0.0003622 -0.0001388 0.0003784 -0.0000130 0.0001091 -0.0000535 -0.0001271 -0.0004395 0.0003494 -0.0000150 0.0002193 0.0000674 0.0003758 -0.0001088 -0.0000987 -0.0000882 0.0006626 -0.0000949 0.0005296 -0.0000654 0.0005512 -0.0000191 0.0003946 0.0000614 -0.0000761 0.0000336 0.0000267 0.0000104 -0.0005023 -0.0002380 0.0003159 -0.0002279 0.0007066 -0.0000086 -0.0002063 0.0028386 -0.0013050 -0.0000571 0.0005712 -0.0000088 0.0003645 -0.0001044 0.0004269 -0.0000951 -0.0006573 0.0002592 0.0001413 -0.0006919 0.0043963 0.0029856 -0.0012415 0.0000322 0.0004180 0.0000260 0.0005979 0.0000681 0.0003143 -0.0000989 0.0005599 -0.0001000 0.0005547 -0.0000371 0.0005072 -0.0000482 0.0004353 -0.0001715 0.0004480 0.0000210 0.0003051 -0.0000361 0.0005921 0.0001138 -0.0000433 -0.0002896 0.0006676 -0.0000361 0.0002884 0.0000138 0.0003585 0.0001197 0.0007177 -0.0002698 0.0011024 -0.0002749 0.0006218 -0.0003282 0.0008322 -0.0000513 0.0003687 0.0001881 0.0000365 0.0000474 0.0005722 -0.0001288 0.0005398 0.0000545 0.0003991 -0.0000357 0.0006291 0.0002338 0.0002229 0.0001185 0.0003195 -0.0001781 0.0002612 -0.0001729 -0.0004076 0.0000918 -0.0000557 0.0001107 0.0001255 0.0000193 0.0001594 0.0001053 0.0000934 -0.0001979 0.0006338 0.0000067 0.0003744 -0.0001012 0.0004854 -0.0002757 0.0008394 0.0000746 0.0003022 0.0000698 -0.0000142 0.0001422 0.0002773 0.0002069 -0.0000113 0.0000577 0.0002746 -0.0003990 0.0004799 0.0003705 0.0000396 -0.0000563 0.0004407 0.0001875 0.0000527 -0.0001729 0.0002991 0.0000022 0.0002086 0.0005632 0.0000884 -0.0000068 0.0003488 -0.0000653 0.0004748 -0.0001241 0.0005772 0.0001043 0.0001261 -0.0077196 0.0047826 -0.0002625 0.0002889 0.0001379 -0.0000384 -0.0001460 0.0006407 -0.0001214 0.0006801 0.0001223 0.0001325 -0.0002587 0.0003897 0.0000461 0.0004320 0.0000165 0.0003015 -0.0000380 0.0005686 -0.0001860 0.0003897 -0.0002246 0.0002810 -0.0002489 0.0010107 0.0003942 0.0005574 0.0000517 0.0004525 -0.0003276 0.0004379 -0.0001178 0.0003547 0.0000495 0.0008071 -0.0000313 0.0004933 -0.0000962 0.0001779 -0.0000324 0.0005147 0.0000537 0.0003684 -0.0001388 0.0002512 -0.0001475 0.0005804 -0.0000309 0.0002897 0.0000423 0.0002467 -0.0001077 0.0002146 0.0000567 0.0000701 0.0001314 -0.0000802
-0.0001794 0.0003688 -0.0000982 0.0003385 -0.0001594 0.0003921 0.0000016 -0.0000168 -0.0000584 -0.0002134 -0.0001663 0.0000486 -0.0000552 0.0000852 0.0001383 0.0006918 -0.0000800 -0.0001219 -0.0001178 0.0006426 -0.0001647 0.0004383 -0.0001141 0.0005784 -0.0000245 0.0003486 0.0000569 -0.0002414 0.0000186 -0.0000011 0.0000051 -0.0006501 -0.0001949 0.0002090 -0.0002587 0.0005389 -0.0000219 -0.0003579 -0.0001680 0.0004941 -0.0000794 0.0004778 0.0001511 0.0000726 -0.0000897 0.0002810 -0.0000939 -0.0007685 0.0001810 0.0000511 0.0021536 -0.0014065 0.0029438 -0.0017276 -0.0000101 0.0001364 0.0000256 0.0003306 0.0000563 -0.0000300 -0.0000952 0.0003218 0.0000014 0.0003068 -0.0000066 0.0003895 -0.0000690 0.0002561 -0.0001884 0.0004597 0.0000254 0.0001262 -0.0000405 0.0003641 0.0002338 -0.0001988 -0.0001664 0.0004402 0.0000821 -0.0000178 -0.0000482 0.0002849 0.0000975 0.0004139 -0.0002644 0.0010722 -0.0002805 0.0005641 -0.0001820 0.0005774 -0.0000626 0.0003316 0.0003919 -0.0000574 0.0000604 0.0003102 -0.0001574 0.0004679 -0.0001153 0.0005335 0.0000762 0.0004804 0.0001622 0.0001396 0.0000783 0.0003101 -0.0001285 0.0000186 0.0000160 -0.0004999 0.0000698 -0.0000754 0.0000596 0.0000652 -0.0000197 0.0002019 0.0001136 0.0000487 -0.0001079 0.0004965 0.0000043 0.0004525 -0.0001272 0.0004762 0.0000733 0.0004551 0.0001091 0.0002136 0.0001116 -0.0000747 0.0001259 0.0002479 0.0002352 -0.0000768 0.0000612 0.0003243 0.0003963 -0.0000350 0.0003189 0.0001652 -0.0001036 0.0005124 0.0001429 0.0001621 -0.0002914 0.0004882 -0.0000008 0.0002455 -0.0002153 0.0010987 0.0000029 0.0003374 0.0000901 0.0004156 -0.0000516 0.0003352 0.0001724 0.0000490 -0.0038195 0.0043657 -0.0001899 0.0002044 -0.0001698 0.0003396 -0.0001333 0.0007025 -0.0000969 0.0006713 0.0000813 0.0002666 -0.0003293 0.0004645 0.0000010 0.0004502 -0.0000162 0.0003437 0.0001163 0.0005704 -0.0001701 0.0003838 -0.0002410 0.0003031 -0.0001125 0.0009616 0.0000283 0.0009202 -0.0001443 0.0005741 -0.0004135 0.0005310 -0.0002195 0.0004558 0.0002338 0.0003657 -0.0000125 0.0004306 -0.0001546 0.0002436 -0.0000630 0.0005605 0.0000210 0.0004134 -0.0001788 0.0003115 -0.0004498 0.0009094 -0.0000314 0.0003445 0.0000557 0.0002056 -0.0002988 0.0004716 0.0000709 0.0000733 0.0000831 -0.0000117
-0.0003017 0.0004795 -0.0000915 0.0003445 -0.0002184 0.0004840 -0.0000463 0.0000762 -0.0000458 -0.0000255 -0.0002074 0.0000990 -0.0000644 0.0000841 0.0001109 0.0006732 -0.0001361 -0.0000337 -0.0001091 0.0006334 -0.0000880 0.0004318 -0.0000530 0.0005457 -0.0000678 0.0003662 0.0000435 -0.0001350 -0.0000058 0.0000459 -0.0000025 -0.0004391 -0.0001366 0.0001468 -0.0002415 0.0004413 -0.0000737 -0.0002384 0.0004854 -0.0000696 -0.0001028 0.0005132 0.0000982 0.0002130 -0.0001236 0.0004135 -0.0001105 -0.0005660 0.0002105 -0.0000774 -0.0071784 0.0123182 0.0013733 -0.0008905 -0.0000903 0.0002432 -0.0000353 0.0002921 0.0000424 0.0002218 0.0000853 0.0001221 -0.0001635 0.0003908 -0.0000093 0.0004128 -0.0000464 0.0003382 -0.0000312 0.0003780 0.0000117 0.0002299 0.0000229 0.0004975 0.0001445 -0.0000919 -0.0000844 0.0004585 0.0001672 0.0000380 0.0000264 0.0002399 -0.0000565 0.0006060 -0.0002952 0.0011857 -0.0004252 0.0007819 -0.0002794 0.0009243 -0.0000943 0.0004634 0.0001345 0.0001455 0.0000673 0.0003136 -0.0000550 0.0004568 -0.0000613 0.0005928 0.0000379 0.0006621 0.0004009 0.0000731 0.0000186 0.0004544 -0.0000812 0.0000121 0.0002225 -0.0005019 -0.0000162 0.0000116 0.0000751 0.0000817 -0.0000526 0.0002860 0.0001085 0.0000946 -0.0000729 0.0004380 -0.0000369 0.0004599 -0.0001416 0.0005040 0.0000837 0.0002206 0.0001080 0.0001497 0.0001508 -0.0001294 0.0001170 0.0002093 0.0001335 -0.0000329 0.0000154 0.0003373 0.0012718 -0.0010740 0.0002736 0.0000720 -0.0001498 0.0004864 0.0001151 -0.0000191 -0.0002403 0.0004066 -0.0000100 0.0001121 0.0010047 -0.0000569 0.0000417 0.0002445 0.0001455 0.0002715 -0.0000182 0.0002707 0.0000364 0.0000877 -0.0007880 0.0061521 -0.0001408 0.0001489 -0.0006122 0.0007759 -0.0001096 0.0004828 -0.0001030 0.0006215 0.0001289 0.0000985 -0.0001239 0.0002218 0.0000130 0.0002851 0.0000453 0.0000868 -0.0000124 0.0003378 -0.0001167 0.0002546 -0.0001865 0.0002302 0.0000154 0.0006078 0.0000108 0.0006243 -0.0001358 0.0004048 -0.0001832 0.0002459 -0.0002038 0.0003333 -0.0000136 0.0004822 0.0000020 0.0002644 -0.0000166 0.0000401 -0.0000686 0.0003824 -0.0000112 0.0002402 -0.0001588 0.0002410 0.0005628 -0.0003590 -0.0000223 0.0002597 0.0000411 0.0000618 -0.0003068 0.0004803 0.0000851 -0.0000675 0.0000880 -0.0001539
-0.0001993 0.0002297 -0.0001083 0.0002401 -0.0002274 0.0003982 -0.0000466 0.0000799 -0.0000422 0.0000358 -0.0002795 0.0002325 -0.0001086 0.0000193 0.0001120 0.0006852 -0.0001605 -0.0001116 0.0000018 0.0004409 -0.0000844 0.0003720 -0.0000660 0.0004613 -0.0001144 0.0003534 0.0000422 -0.0001653 -0.0000283 0.0000758 -0.0000106 -0.0002646 -0.0000098 -0.0000025 -0.0002358 0.0003162 -0.0000934 -0.0002059 0.0007123 0.0002974 -0.0000759 0.0004132 0.0000538 0.0003017 -0.0001691 0.0004590 -0.0001295 -0.0003646 -0.0000414 0.0002072 -0.0071288 0.0148816 -0.0006440 0.0004535 -0.0001093 0.0004198 -0.0000617 0.0002604 0.0001074 0.0003120 0.0000316 0.0002496 -0.0001701 0.0003923 -0.0000516 0.0003953 -0.0000134 0.0003380 -0.0000447 0.0003931 -0.0000016 0.0002629 -0.0000250 0.0005997 0.0001167 -0.0000637 -0.0000789 0.0004727 0.0002023 -0.0000413 -0.0000370 0.0003170 -0.0005239 0.0011291 -0.0003348 0.0012173 -0.0003637 0.0007802 -0.0005892 0.0014179 -0.0001470 0.0005419 0.0000571 0.0001134 0.0003312 0.0002078 0.0000475 0.0004345 0.0000911 0.0004520 0.0000270 0.0007591 0.0004241 0.0000898 0.0000326 0.0004761 -0.0002773 0.0004947 0.0000828 -0.0002702 -0.0002139 0.0002579 0.0000678 0.0001123 -0.0000923 0.0003717 0.0001111 0.0001487 -0.0001935 0.0006175 -0.0000509 0.0004653 -0.0001776 0.0005595 -0.0001470 0.0005069 0.0000659 0.0002753 0.0001001 -0.0000210 0.0000846 0.0002988 0.0001295 0.0000426 0.0000131 0.0003811 0.0004203 -0.0003866 0.0002949 0.0001876 -0.0001663 0.0006011 0.0001401 0.0000912 -0.0002845 0.0004887 -0.0000498 0.0003109 0.0013862 -0.0005126 -0.0000051 0.0003408 0.0000714 0.0003066 -0.0000911 0.0003288 -0.0000466 0.0001735 0.0092123 -0.0069943 -0.0001022 0.0001244 -0.0003591 0.0004813 -0.0001438 0.0006422 -0.0001115 0.0006551 0.0000222 0.0002418 -0.0000996 0.0002198 0.0000278 0.0003331 -0.0000097 0.0002361 -0.0002587 0.0007039 -0.0001364 0.0003069 -0.0002435 0.0002937 -0.0003300 0.0008564 -0.0005995 0.0009449 -0.0000419 0.0003725 -0.0002293 0.0003125 -0.0002466 0.0004248 -0.0001502 0.0004321 -0.0000416 0.0002542 0.0000531 -0.0000291 -0.0001092 0.0004774 -0.0000772 0.0003364 -0.0001970 0.0002998 0.0008278 -0.0005154 -0.0000520 0.0003466 0.0000118 0.0001096 -0.0003655 0.0005660 0.0000807 -0.0000027 0.0001707 -0.0001816
-0.0001936 0.0002866 -0.0001316 0.0002898 -0.0002103 0.0004907 -0.0000225 0.0001858 -0.0000466 0.0002476 -0.0003085 0.0004575 -0.0001510 0.0000242 0.0000301 0.0004884 -0.0001431 -0.0000543 -0.0000743 0.0004870 -0.0001743 0.0003960 -0.0001243 0.0004713 -0.0001331 0.0003492 0.0000331 -0.0000799 -0.0000667 0.0001273 -0.0000352 -0.0000580 -0.0000877 0.0000857 -0.0003053 0.0003059 -0.0000970 -0.0000840 -0.0010468 0.0018245 -0.0000786 0.0003024 -0.0000640 0.0003663 -0.0002578 0.0004596 -0.0001398 -0.0001480 -0.0006123 0.0007237 -0.0054530 0.0049952 -0.0024363 0.0016217 -0.0001225 0.0000619 -0.0000811 0.0001452 0.0001138 -0.0000865 -0.0000577 0.0002155 -0.0000969 0.0003046 -0.0000658 0.0002791 -0.0000382 0.0002049 -0.0001162 0.0003784 -0.0000102 0.0000572 0.0000070 0.0003031 0.0002078 -0.0002098 0.0000172 0.0001691 0.0000159 -0.0000699 -0.0001318 0.0001961 -0.0003907 0.0006566 -0.0003953 0.0009710 -0.0001890 0.0004249 -0.0004407 0.0009507 -0.0001880 0.0004109 0.0000735 -0.0000450 -0.0003037 0.0007859 0.0001173 0.0003279 -0.0000209 0.0003578 -0.0000135 0.0003207 0.0002532 0.0000106 0.0000231 0.0002229 -0.0001908 0.0004653 -0.0000105 -0.0001593 -0.0002993 0.0002355 0.0000576 -0.0000288 -0.0000773 0.0002576 0.0001152 -0.0000043 -0.0002679 0.0005254 -0.0000561 0.0003617 -0.0001435 0.0003742 0.0004190 -0.0002192 0.0000445 0.0001888 0.0001857 -0.0001724 0.0000878 0.0001267 0.0001464 0.0000199 0.0001417 0.0001900 0.0004302 -0.0006582 0.0002431 0.0001006 -0.0001466 0.0004892 0.0001179 0.0000500 -0.0002665 0.0004559 -0.0000708 0.0002431 -0.0002389 0.0013100 -0.0000424 0.0002575 0.0001575 0.0002251 -0.0001019 0.0001709 -0.0001097 0.0001525 0.0001161 0.0091359 -0.0000243 0.0000345 0.0000216 0.0000512 -0.0001741 0.0006577 -0.0000796 0.0004864 0.0000172 0.0001883 -0.0001716 0.0002654 0.0000047 0.0002321 -0.0000443 0.0002059 -0.0000694 0.0004648 -0.0001232 0.0002722 -0.0001320 0.0001621 -0.0004957 0.0009125 -0.0004850 0.0005755 -0.0000782 0.0002731 -0.0002765 0.0003622 -0.0003025 0.0004912 0.0000182 -0.0000234 -0.0000612 0.0001537 0.0000793 -0.0000724 -0.0001345 0.0004883 -0.0000727 0.0003372 -0.0001942 0.0003061 0.0001607 -0.0000240 -0.0000757 0.0003310 -0.0000070 0.0000437 -0.0004259 0.0006436 0.0000738 -0.0000228 0.0000441 -0.0001330
-0.0003580 0.0004653 -0.0001257 0.0002537 -0.0001871 0.0004893 -0.0000975 0.0003367 -0.0000319 0.0004469 -0.0005186 0.0007620 -0.0001479 0.0001389 -0.0000602 0.0001736 -0.0001640 -0.0000100 -0.0001565 0.0005180 -0.0001427 0.0003089 -0.0000749 0.0003637 -0.0001147 0.0003122 0.0000242 0.0001114 -0.0000917 0.0002042 -0.0000609 0.0001859 -0.0002072 0.0002234 -0.0002360 0.0003636 -0.0001054 0.0001142 -0.0008153 0.0012495 -0.0000778 0.0003038 -0.0000756 0.0004703 -0.0002940 0.0005949 -0.0001585 0.0000925 -0.0006780 0.0009437 -0.0186481 0.0212923 -0.0017721 0.0014335 -0.0003054 0.0002981 -0.0001064 0.0002824 0.0000369 0.0001113 0.0000203 0.0001570 -0.0002183 0.0004091 -0.0000740 0.0002557 -0.0000484 0.0002360 -0.0000551 0.0002455 -0.0000312 0.0001838 0.0000133 0.0004577 0.0001356 -0.0001175 -0.0000811 0.0001824 0.0001194 -0.0001230 -0.0000930 0.0000569 0.0002676 0.0001315 -0.0004122 0.0010807 -0.0002590 0.0005590 -0.0000834 0.0004437 -0.0001592 0.0004828 -0.0001661 0.0001219 -0.0003647 0.0007792 0.0000470 0.0003997 -0.0000556 0.0003425 0.0000381 0.0004463 -0.0000165 0.0003246 0.0000313 0.0003278 0.0000897 -0.0000483 0.0001268 -0.0000315 0.0003406 -0.0001971 0.0000552 0.0000597 -0.0001215 0.0003235 0.0001150 0.0000544 -0.0003704 0.0005997 -0.0000816 0.0003236 -0.0001533 0.0004052 -0.0001910 0.0007606 0.0000920 0.0001078 0.0001858 -0.0001805 0.0001192 0.0001214 0.0000860 0.0000143 0.0002597 0.0000284 0.0005710 -0.0005067 0.0002605 0.0000165 -0.0001389 0.0004147 0.0000831 -0.0000711 -0.0002312 0.0003991 -0.0000416 0.0001133 -0.0022817 0.0019419 0.0000827 0.0000802 0.0000684 0.0001709 -0.0000124 0.0000207 -0.0001788 0.0001687 -0.0142646 0.0217250 -0.0000801 0.0000784 -0.0002505 0.0003746 -0.0001622 0.0004691 -0.0000751 0.0003518 0.0000795 -0.0000052 -0.0001160 0.0001674 -0.0000156 0.0000709 -0.0000392 0.0000333 -0.0001172 0.0000996 -0.0001075 0.0001854 -0.0000904 0.0001057 -0.0002391 0.0004955 0.0001304 -0.0001436 -0.0000090 0.0000452 -0.0002263 0.0002808 -0.0002943 0.0003863 0.0004295 -0.0005675 0.0000502 -0.0000220 0.0001015 -0.0001379 -0.0001626 0.0002897 -0.0000651 0.0001674 -0.0001307 0.0001801 0.0000875 -0.0003496 -0.0000504 0.0000853 0.0000087 -0.0002105 -0.0002804 0.0004107 0.0000557 -0.0002004 -0.0000949 -0.0002315
-0.0003101 0.0003632 -0.0001135 0.0000129 -0.0001459 0.0001259 -0.0001342 0.0002891 -0.0000342 0.0003429 -0.0003140 0.0004136 -0.0001786 0.0000646 -0.0000189 0.0001792 -0.0001542 -0.0001810 -0.0000756 0.0001943 -0.0001382 0.0000612 -0.0000421 0.0000864 -0.0000622 0.0001805 0.0000167 0.0000005 -0.0001017 0.0002085 -0.0000745 0.0001706 -0.0000854 0.0000823 -0.0002087 0.0001635 -0.0001039 0.0001130 -0.0009676 0.0009860 -0.0000370 0.0000963 -0.0001660 0.0003406 -0.0002447 0.0004778 -0.0001654 0.0002018 -0.0004437 0.0008016 -0.0050737 0.0157087 -0.0025235 0.0023630 -0.0002253 0.0003424 -0.0000721 0.0002842 0.0000441 0.0000232 0.0000621 0.0000056 -0.0002085 0.0002559 -0.0000690 0.0001203 -0.0000260 0.0000631 0.0000671 0.0001060 -0.0000336 0.0002042 -0.0000231 0.0003526 0.0001997 -0.0001890 0.0000325 0.0000415 0.0002929 -0.0003326 -0.0002065 0.0002463 0.0003103 -0.0001514 -0.0003702 0.0010214 -0.0002019 0.0004918 0.0005392 -0.0001055 -0.0001000 0.0003758 -0.0005034 0.0002988 0.0002273 -0.0002311 -0.0001620 0.0004085 0.0000515 0.0000609 0.0001627 0.0003317 0.0000286 0.0002313 0.0000682 0.0002779 -0.0000684 -0.0000137 0.0000155 0.0000599 0.0003101 -0.0001583 0.0000801 0.0000403 -0.0001527 0.0003249 0.0001601 -0.0000107 -0.0003808 0.0005258 -0.0000272 0.0002335 -0.0001769 0.0003570 -0.0006974 0.0013625 0.0001447 0.0000441 0.0001241 -0.0001014 0.0001225 0.0001081 0.0002614 -0.0001961 0.0002123 -0.0000060 0.0004689 -0.0006064 0.0003544 -0.0000452 -0.0001240 0.0004190 0.0000796 -0.0000271 -0.0002247 0.0003774 -0.0000017 0.0000954 0.0021282 -0.0018801 0.0001499 -0.0000279 0.0000765 -0.0000228 0.0000040 -0.0000420 -0.0001418 0.0001235 -0.0203463 0.0189960 0.0000208 -0.0000222 -0.0001785 0.0003002 -0.0001571 0.0004644 -0.0000823 0.0002700 -0.0000591 0.0001011 -0.0001662 0.0002242 -0.0000551 0.0000726 -0.0000413 0.0000536 -0.0001466 0.0002545 -0.0000927 0.0001725 -0.0001016 0.0001158 -0.0001687 0.0005050 -0.0000717 0.0001353 0.0000423 -0.0000140 -0.0003023 0.0003691 -0.0003456 0.0004520 0.0000710 -0.0001510 -0.0000299 0.0001061 0.0001268 -0.0001554 -0.0001744 0.0002873 -0.0000806 0.0001949 -0.0001343 0.0001854 0.0005590 -0.0007603 -0.0000608 0.0000906 0.0000452 -0.0002515 -0.0003284 0.0004777 0.0000559 -0.0001747 -0.0000389 -0.0002572
-0.0002278 0.0004276 -0.0001000 0.0000060 -0.0001514 0.0001423 -0.0000685 0.0003406 -0.0000226 0.0004804 -0.0000501 0.0002998 -0.0000766 -0.0000043 -0.0000684 -0.0000322 -0.0000609 -0.0001911 -0.0000946 0.0000633 -0.0000831 -0.0000603 -0.0000362 -0.0000049 -0.0000266 0.0000611 0.0000012 -0.0000059 -0.0001457 0.0002628 -0.0000810 0.0002059 -0.0000312 0.0000488 -0.0001839 0.0000115 -0.0000962 0.0001687 -0.0011822 0.0014086 -0.0000366 -0.0000489 -0.0002686 0.0002988 -0.0002155 0.0003298 -0.0001454 0.0003479 0.0000440 0.0003920 0.0022212 0.0035939 -0.0015253 0.0011745 -0.0001823 0.0000018 -0.0000517 0.0001706 0.0001134 -0.0004278 -0.0000009 -0.0000726 -0.0000113 -0.0001402 -0.0000332 -0.0001255 0.0000009 -0.0001757 0.0000526 0.0000100 -0.0000254 0.0000723 -0.0000575 0.0000970 0.0004304 -0.0004678 0.0001617 -0.0002764 0.0002117 -0.0005527 0.0002083 -0.0002045 0.0000438 -0.0003198 -0.0003124 0.0006361 0.0000163 0.0000228 -0.0001170 0.0002775 -0.0001015 0.0001071 -0.0001550 -0.0002321 -0.0002071 -0.0002462 -0.0003461 0.0002529 0.0000912 -0.0002126 0.0001256 -0.0001689 0.0002694 -0.0001986 0.0000944 -0.0000575 -0.0000736 0.0002313 0.0000296 -0.0001578 0.0000035 -0.0000325 0.0000604 -0.0001040 -0.0001337 0.0001769 0.0001886 -0.0002273 -0.0001948 0.0000760 -0.0000120 0.0001011 -0.0001792 0.0001555 0.0000997 -0.0002580 0.0001034 -0.0000598 0.0001919 -0.0002481 0.0001521 -0.0001548 0.0003459 -0.0004331 0.0001197 -0.0001398 0.0008424 -0.0012074 0.0003927 -0.0003485 -0.0000786 0.0002157 0.0001112 -0.0002078 -0.0000259 0.0000539 -0.0000016 -0.0001183 0.0042680 -0.0039059 0.0000505 -0.0001678 0.0001436 -0.0001840 0.0000256 -0.0002342 0.0000111 -0.0001082 0.0000268 0.0003517 0.0001003 -0.0001115 0.0000169 0.0000016 -0.0001305 0.0003121 -0.0000821 0.0000539 -0.0000637 0.0000037 -0.0001032 0.0001089 -0.0000628 -0.0001170 -0.0000126 -0.0001322 0.0000993 -0.0000712 -0.0000420 0.0000779 0.0000517 -0.0000676 -0.0001827 0.0003325 -0.0001157 0.0000581 -0.0001325 0.0000111 -0.0002762 0.0003327 -0.0003224 0.0003834 -0.0006817 0.0002826 -0.0000953 0.0000672 0.0001333 -0.0001906 -0.0001238 0.0002079 -0.0000674 0.0001363 -0.0001027 0.0001422 0.0004098 -0.0005641 -0.0000665 0.0000480 0.0000225 -0.0003009 -0.0002818 0.0004215 0.0000811 -0.0002360 0.0000627 -0.0003882
-0.0000723 0.0002602 -0.0000829 -0.0000174 -0.0001215 0.0002158 0.0000318 0.0002912 0.0000108 0.0005779 -0.0000700 0.0004636 0.0000620 -0.0000175 -0.0001452 -0.0003192 -0.0000434 -0.0001262 -0.0001202 -0.0000831 -0.0001559 -0.0000347 -0.0000046 -0.0001378 -0.0000608 -0.0000217 -0.0000071 0.0000682 -0.0001441 0.0002972 -0.0000645 0.0003099 -0.0000090 0.0000524 -0.0002041 0.0001182 -0.0000978 0.0002433 -0.0010208 0.0014062 -0.0000563 -0.0000554 -0.0002645 0.0004666 -0.0001915 0.0003196 -0.0001461 0.0005071 0.0002851 0.0002725 -0.0014025 0.0092492 -0.0005798 0.0005671 -0.0001912 0.0002197 -0.0000672 0.0002222 0.0001322 -0.0003087 0.0000140 -0.0000191 -0.0000248 -0.0001763 0.0000196 -0.0002933 0.0000418 -0.0002190 0.0000480 -0.0000656 0.0000037 0.0002204 0.0000569 0.0001145 0.0004497 -0.0004700 0.0001233 -0.0002887 0.0001314 -0.0005232 0.0004991 -0.0005750 0.0002051 -0.0006008 -0.0001912 0.0004918 -0.0000090 0.0000527 -0.0010929 0.0010793 -0.0001175 0.0001207 -0.0001420 -0.0002347 -0.0002677 -0.0001847 -0.0003802 0.0001800 -0.0000235 -0.0002587 0.0000655 -0.0000291 0.0001778 0.0000197 0.0001190 -0.0000383 0.0001497 0.0001156 0.0001647 -0.0000944 0.0001460 -0.0000499 0.0000768 -0.0000354 -0.0001128 0.0001669 0.0002045 -0.0001998 -0.0001475 0.0000130 -0.0000462 0.0001217 -0.0001990 0.0001954 -0.0012811 0.0006208 0.0000501 0.0000207 0.0001947 -0.0002477 0.0001432 -0.0000930 0.0001143 -0.0002703 0.0001021 -0.0001838 0.0011448 -0.0013556 0.0002852 -0.0004025 -0.0000244 0.0000830 0.0001236 -0.0003289 0.0000148 -0.0000102 0.0000063 -0.0002324 0.0006027 -0.0016835 0.0000846 -0.0002722 0.0000720 -0.0001212 0.0000365 -0.0003076 -0.0000116 -0.0000756 0.0056406 0.0006151 0.0000289 -0.0000400 0.0000797 -0.0000627 -0.0001321 0.0001192 -0.0000488 -0.0001557 -0.0000081 -0.0002622 -0.0000028 -0.0000626 -0.0000659 -0.0003297 -0.0000171 -0.0003391 0.0000556 -0.0003719 -0.0000068 -0.0000229 0.0001907 -0.0002389 -0.0002026 0.0001092 0.0001623 -0.0006262 -0.0001583 -0.0001539 -0.0001766 0.0001952 -0.0002538 0.0002267 -0.0007125 0.0000433 -0.0000329 -0.0002288 0.0002099 -0.0003251 -0.0001047 0.0000647 -0.0000481 -0.0000348 -0.0000412 0.0000186 0.0000434 -0.0001521 -0.0000405 -0.0001630 0.0000173 -0.0004680 -0.0000275 0.0000517 0.0001207 -0.0004484 0.0001024 -0.0005052
-0.0000077 0.0001228 -0.0000674 -0.0001680 -0.0000505 -0.0000181 0.0000379 0.0001963 0.0000274 0.0004547 -0.0000422 0.0003098 0.0000765 -0.0001055 -0.0001517 -0.0004190 -0.0000781 -0.0000913 -0.0001080 -0.0003239 -0.0002973 -0.0000262 0.0000256 -0.0004024 0.0000190 -0.0001978 -0.0000087 -0.0000136 -0.0000790 0.0002043 -0.0000554 0.0002038 0.0000382 0.0000217 -0.0001568 -0.0000913 -0.0000699 0.0001536 -0.0013539 0.0014724 -0.0000648 -0.0001975 -0.0003021 0.0004915 -0.0001876 0.0002235 -0.0001460 0.0004656 -0.0002361 0.0006739 0.0034588 0.0046643 0.0001057 0.0002563 -0.0001754 0.0002360 -0.0000719 0.0001777 0.0001375 -0.0003757 0.0000072 -0.0000991 -0.0001294 -0.0002101 0.0000257 -0.0004061 -0.0000010 -0.0003152 0.0000996 -0.0001388 0.0000100 0.0003180 0.0001659 -0.0000043 0.0003897 -0.0004115 0.0000873 -0.0002604 0.0002878 -0.0005017 0.0002363 -0.0003718 -0.0000302 -0.0006685 -0.0000421 0.0002664 0.0000839 -0.0000170 -0.0006670 0.0005002 -0.0000990 0.0000654 -0.0001515 -0.0002703 -0.0003465 -0.0003069 -0.0000147 -0.0001821 -0.0000197 -0.0005764 0.0000622 0.0000504 0.0000344 0.0003794 0.0001066 0.0000019 0.0000505 -0.0000446 0.0000138 0.0001670 0.0001478 -0.0000153 0.0001178 -0.0000513 -0.0000660 0.0001166 0.0002245 -0.0002250 -0.0001540 0.0000382 -0.0000139 0.0000706 -0.0001986 0.0001700 -0.0012980 0.0011678 0.0000364 0.0000987 0.0002238 -0.0002704 0.0000955 0.0000370 0.0000793 -0.0002571 0.0002493 -0.0003141 0.0007844 -0.0010026 0.0002296 -0.0003626 -0.0000078 0.0000981 0.0001260 -0.0001837 -0.0000569 0.0000979 0.0000559 -0.0001929 -0.0006292 -0.0001426 0.0000767 -0.0002941 0.0000409 -0.0001609 0.0001443 -0.0004719 -0.0000029 0.0000077 -0.0060718 0.0163271 -0.0000130 0.0000212 -0.0000449 0.0000301 -0.0001590 0.0001344 -0.0000225 -0.0002685 -0.0000385 -0.0002782 -0.0000659 0.0000001 -0.0000791 -0.0003130 -0.0001080 -0.0002323 -0.0000970 -0.0001036 -0.0000272 0.0000302 0.0000989 -0.0001306 -0.0002366 0.0002130 0.0001345 -0.0006440 0.0000981 -0.0003636 -0.0000597 0.0000691 -0.0002383 0.0002602 -0.0000068 -0.0004960 0.0000294 -0.0002546 0.0002120 -0.0003134 -0.0000627 0.0001106 -0.0000119 0.0000528 -0.0001013 0.0001024 -0.0000466 0.0000141 -0.0000556 -0.0000938 0.0000454 -0.0003962 -0.0000981 0.0001536 0.0001124 -0.0003750 0.0000710 -0.0003305
-0.0000630 0.0003005 -0.0000837 -0.0000199 -0.0000208 0.0000511 0.0000540 0.0003267 0.0000371 0.0006085 0.0000870 0.0003287 0.0000435 -0.0000298 -0.0002841 -0.0007464 -0.0001446 0.0001045 -0.0000896 -0.0003081 -0.0001399 -0.0001577 0.0000085 -0.0003815 0.0000720 -0.0002357 -0.0000163 0.0000682 -0.0000751 0.0002216 -0.0000580 0.0001089 -0.0000247 0.0001151 -0.0000330 -0.0002381 -0.0000557 0.0001441 -0.0006142 0.0009950 -0.0000522 -0.0002546 -0.0000012 0.0001694 -0.0002184 0.0001817 -0.0001265 0.0003660 -0.0002262 0.0006428 0.0032721 0.0024266 -0.0015569 0.0011421 -0.0002475 0.0000650 -0.0000513 0.0001216 0.0001567 -0.0007254 -0.0000240 -0.0002317 -0.0001023 -0.0003305 0.0000286 -0.0004521 0.0000332 -0.0005238 0.0001318 -0.0002979 -0.0000050 0.0002645 0.0001360 -0.0001500 0.0004269 -0.0004864 0.0001877 -0.0006588 0.0003650 -0.0007088 0.0002617 -0.0006905 -0.0004255 -0.0004883 0.0000818 -0.0001583 0.0003310 -0.0004267 0.0001416 -0.0005657 -0.0000934 -0.0001234 0.0001291 -0.0006505 -0.0003321 -0.0006389 0.0002285 -0.0006642 0.0000618 -0.0008900 0.0001334 -0.0003258 -0.0000851 0.0003080 0.0001023 -0.0001787 -0.0000398 -0.0000980 0.0001428 0.0001095 0.0000131 -0.0000455 0.0000975 -0.0001859 -0.0000467 -0.0000266 0.0002128 -0.0003551 -0.0000821 -0.0002464 0.0000701 -0.0001875 -0.0002380 0.0000333 -0.0004281 0.0001351 0.0000751 -0.0000506 0.0003343 -0.0004832 0.0000764 -0.0000359 0.0002459 -0.0005767 0.0002757 -0.0004772 -0.0002678 -0.0001733 0.0001152 -0.0005102 0.0000422 -0.0001205 0.0001797 -0.0003257 0.0000318 -0.0000612 0.0001246 -0.0004172 -0.0007056 -0.0002100 0.0000873 -0.0005111 0.0000154 -0.0003009 0.0001543 -0.0006602 0.0000600 -0.0000762 -0.0089315 0.0209250 -0.0000132 0.0000225 -0.0001429 0.0000396 -0.0001336 -0.0000112 -0.0000134 -0.0004302 -0.0000485 -0.0004050 0.0000462 -0.0001682 -0.0000824 -0.0004302 -0.0001199 -0.0002755 0.0000482 -0.0003785 -0.0000335 0.0000179 0.0000257 -0.0000513 -0.0001288 0.0000481 0.0000433 -0.0004831 0.0000170 -0.0003167 0.0000272 -0.0000374 -0.0001392 0.0001679 -0.0004234 -0.0001315 0.0001557 -0.0003224 0.0000907 -0.0001814 -0.0000319 0.0000489 -0.0000395 0.0001233 -0.0000848 0.0001018 0.0001702 -0.0003150 -0.0000731 -0.0000492 0.0000649 -0.0003528 -0.0002034 0.0002991 0.0001140 -0.0003261 0.0000801 -0.0003026
-0.0000480 0.0003517 -0.0000891 0.0000944 -0.0000040 0.0000719 0.0001581 0.0003276 0.0000414 0.0006987 0.0000228 0.0005044 0.0000748 0.0000839 -0.0003726 -0.0010054 -0.0001273 0.0001746 -0.0000472 -0.0003183 -0.0000403 -0.0001455 0.0000271 -0.0003349 0.0000500 -0.0001782 -0.0000031 0.0001753 -0.0000866 0.0003318 -0.0000432 0.0000524 -0.0001179 0.0002427 0.0000974 -0.0001311 -0.0000578 0.0001936 -0.0003853 0.0005307 -0.0000300 -0.0001538 0.0000763 0.0001484 -0.0002077 0.0002416 -0.0001191 0.0003215 -0.0000630 0.0005897 -0.0026696 0.0119685 -0.0017036 0.0015077 -0.0001841 0.0003378 -0.0000216 0.0002320 0.0001926 -0.0005428 0.0000601 -0.0002274 -0.0000631 -0.0001791 0.0000263 -0.0003580 0.0000762 -0.0004925 0.0000290 -0.0002034 -0.0000080 0.0004188 0.0002129 0.0000120 0.0003912 -0.0004057 0.0003687 -0.0008470 0.0003249 -0.0007384 0.0002519 -0.0008317 0.0000719 -0.0008418 0.0000707 0.0000007 0.0002012 -0.0002188 0.0001897 -0.0004980 -0.0000708 -0.0000563 -0.0001512 -0.0004032 0.0000644 -0.0008104 0.0001435 -0.0006836 -0.0000918 -0.0006604 0.0002216 -0.0001808 -0.0000146 0.0002946 0.0001156 -0.0000256 0.0001972 -0.0000258 0.0003043 0.0003074 -0.0004460 0.0003446 0.0001553 -0.0001225 -0.0000831 0.0000842 0.0001960 -0.0002463 -0.0001225 -0.0000420 0.0000359 -0.0001464 -0.0002799 0.0001680 -0.0006635 0.0001212 0.0001310 0.0000301 0.0003299 -0.0004413 0.0000282 0.0002106 0.0001721 -0.0003973 0.0002340 -0.0003545 0.0003323 -0.0005126 0.0001514 -0.0004580 0.0001088 -0.0001374 0.0002085 -0.0002770 0.0000768 -0.0001253 0.0000953 -0.0002881 -0.0013677 -0.0004283 0.0001689 -0.0004772 -0.0001101 -0.0002301 0.0000061 -0.0003981 0.0001314 -0.0000671 0.0016424 0.0085946 -0.0000552 0.0000622 -0.0001819 0.0000705 -0.0001012 -0.0001223 -0.0000149 -0.0004507 -0.0000595 -0.0005484 0.0000896 -0.0002414 -0.0000419 -0.0005403 -0.0000466 -0.0003885 0.0000579 -0.0006073 -0.0000108 -0.0000425 0.0000004 -0.0000243 -0.0001293 0.0000747 -0.0000190 -0.0005223 -0.0000634 -0.0002762 -0.0000107 -0.0000097 -0.0000903 0.0000890 -0.0005332 0.0004590 0.0000891 -0.0002931 0.0002279 -0.0003466 -0.0000222 -0.0000579 -0.0000420 0.0000612 -0.0000267 0.0000204 0.0000205 -0.0001164 -0.0000759 -0.0000986 0.0000427 -0.0003104 -0.0001265 0.0001859 0.0001459 -0.0003804 0.0001362 -0.0002449
-0.0001211 0.0003832 -0.0000579 0.0000499 -0.0000481 -0.0000200 0.0001017 0.0002145 0.0000422 0.0005060 0.0001149 0.0003819 0.0001693 -0.0000206 -0.0003056 -0.0009415 -0.0000494 0.0000324 -0.0000650 -0.0003304 -0.0000064 -0.0001838 0.0000246 -0.0003587 0.0000471 -0.0001863 0.0000158 0.0001022 -0.0000516 0.0002629 -0.0000169 -0.0001381 -0.0002074 0.0003586 0.0001445 -0.0001377 -0.0000337 0.0000747 0.0001960 -0.0000634 -0.0000184 -0.0001387 0.0000445 0.0001293 -0.0002214 0.0002005 -0.0001128 0.0001675 -0.0001427 0.0006513 -0.0050309 0.0109019 -0.0008569 0.0011653 -0.0001209 0.0002939 -0.0000065 0.0002789 0.0002177 -0.0004536 0.0000925 -0.0002547 -0.0000690 -0.0001017 0.0000035 -0.0002686 0.0000505 -0.0004202 0.0000850 -0.0001053 0.0000027 0.0004529 0.0002579 0.0000579 0.0004473 -0.0004270 0.0001556 -0.0005008 0.0004400 -0.0008042 0.0000403 -0.0006244 0.0004305 -0.0011574 0.0001473 0.0000225 0.0001253 -0.0001041 0.0002377 -0.0005032 -0.0000211 -0.0000630 -0.0003000 -0.0003200 0.0000450 -0.0006652 0.0001213 -0.0006968 -0.0000562 -0.0006326 0.0003215 -0.0000942 0.0001097 0.0002653 0.0001210 0.0000757 0.0003848 -0.0000615 0.0001853 0.0003120 -0.0000461 0.0001248 0.0002054 -0.0001016 -0.0001325 0.0002152 0.0002098 -0.0002333 -0.0001120 0.0001060 -0.0000040 -0.0000145 -0.0003013 0.0002405 -0.0009262 0.0004809 0.0000912 0.0001913 0.0002543 -0.0003145 0.0000050 0.0003725 0.0000732 -0.0002043 0.0003774 -0.0004281 0.0004117 -0.0004100 0.0002833 -0.0004030 0.0001025 -0.0000259 0.0001831 -0.0000229 0.0000672 -0.0001008 0.0000504 -0.0000725 0.0009423 -0.0029378 0.0000824 -0.0002897 -0.0001374 -0.0000974 0.0001002 -0.0003362 0.0001148 0.0001040 0.0122658 -0.0199936 -0.0001308 0.0001532 -0.0001769 0.0000809 -0.0000976 -0.0000290 -0.0000049 -0.0003242 0.0000358 -0.0005401 -0.0000051 -0.0000930 -0.0000369 -0.0003384 -0.0000692 -0.0002295 -0.0001357 -0.0001176 -0.0000043 0.0000089 0.0000034 -0.0000122 -0.0002481 0.0004214 -0.0004671 -0.0002185 0.0000741 -0.0003550 -0.0000966 0.0000942 -0.0001783 0.0002433 0.0001048 -0.0000825 -0.0000351 0.0000447 0.0001862 -0.0002388 -0.0000213 0.0001185 0.0000269 0.0001800 -0.0000757 0.0001229 -0.0002430 0.0001304 -0.0000646 0.0000937 0.0000105 -0.0000286 -0.0001582 0.0002596 0.0001596 -0.0002122 0.0000519 0.0001210
-0.0000618 0.0003906 -0.0000507 0.0002366 -0.0000711 0.0001781 0.0000860 0.0002827 0.0000449 0.0005239 0.0001030 0.0003980 0.0002376 0.0000274 -0.0002716 -0.0008677 -0.0000484 0.0000384 -0.0000681 -0.0000848 0.0000056 -0.0000952 0.0000214 -0.0001631 -0.0000527 -0.0000541 0.0000168 0.0001641 -0.0000487 0.0002174 -0.0000132 -0.0001357 -0.0002791 0.0004533 -0.0000782 0.0002331 -0.0000374 0.0000358 0.0002522 0.0003318 -0.0000427 0.0000721 0.0001733 0.0001954 -0.0003027 0.0003986 -0.0001250 0.0000792 0.0000872 0.0004235 0.0021205 0.0043908 -0.0010174 0.0018985 -0.0002371 0.0003781 -0.0000296 0.0004681 0.0001721 -0.0002115 0.0000293 -0.0000341 -0.0000497 0.0000474 0.0000100 -0.0001439 0.0000649 -0.0002521 0.0001070 -0.0000549 0.0000025 0.0004149 0.0002625 0.0001063 0.0003824 -0.0003585 0.0001316 -0.0003423 0.0004848 -0.0008056 -0.0001433 -0.0003823 0.0002491 -0.0008175 0.0001078 -0.0000609 0.0001473 -0.0001742 0.0008566 -0.0009848 -0.0000158 -0.0001221 -0.0001299 -0.0004183 -0.0000499 -0.0007201 -0.0000111 -0.0006007 0.0000930 -0.0006160 0.0002966 -0.0001962 0.0000289 0.0003613 0.0001313 0.0000261 0.0001599 -0.0001508 0.0001427 0.0000769 0.0007338 -0.0005098 0.0001678 -0.0001138 -0.0001732 0.0002003 0.0002159 -0.0003328 -0.0001937 0.0001574 0.0000057 -0.0000555 -0.0003272 0.0001982 -0.0010007 0.0007993 0.0000276 0.0001760 0.0001872 -0.0002809 -0.0000032 0.0003315 0.0001326 -0.0003437 0.0003032 -0.0004294 0.0006908 -0.0008278 0.0002874 -0.0006198 0.0001024 -0.0001576 0.0001505 -0.0000490 0.0000831 -0.0001587 0.0000745 -0.0002517 -0.0011687 0.0000623 0.0000773 -0.0003410 0.0000195 -0.0001579 0.0002351 -0.0004438 -0.0000886 0.0003357 0.0092107 -0.0281307 -0.0000971 0.0001376 -0.0002424 0.0002141 -0.0001091 -0.0000183 0.0000041 -0.0002328 0.0000752 -0.0005535 -0.0000062 -0.0000871 -0.0000456 -0.0001975 -0.0000639 -0.0001247 -0.0001531 -0.0000744 -0.0000012 0.0000483 0.0000502 -0.0000529 -0.0001462 0.0002747 -0.0004657 -0.0001065 -0.0001526 -0.0001068 -0.0001104 0.0001116 -0.0002426 0.0003310 0.0002621 -0.0007138 0.0000043 0.0001367 0.0000786 -0.0000586 -0.0000437 0.0002406 0.0000581 0.0002808 -0.0001030 0.0001895 -0.0003535 0.0002511 -0.0000561 0.0002753 0.0000411 0.0001670 -0.0002425 0.0003948 0.0001497 -0.0000257 0.0000153 0.0002230
-0.0000259 0.0003491 -0.0000620 0.0003796 -0.0000660 0.0002550 0.0001543 0.0002605 0.0000364 0.0004197 0.0000142 0.0003789 0.0001651 0.0001332 -0.0001451 -0.0005870 -0.0000691 0.0000107 -0.0000790 0.0001427 -0.0001722 0.0003048 0.0000328 0.0000257 -0.0000535 0.0000370 0.0000140 0.0001058 -0.0000595 0.0002180 -0.0000169 -0.0002038 -0.0002594 0.0004261 -0.0000869 0.0003960 -0.0000435 -0.0000388 0.0021367 -0.0013193 -0.0000665 0.0002627 -0.0000103 0.0004969 -0.0003859 0.0005746 -0.0001366 -0.0000662 0.0001325 0.0004104 0.0050714 -0.0002489 0.0000650 0.0012920 -0.0004366 0.0007843 -0.0000544 0.0005727 0.0001138 0.0000885 -0.0000239 0.0002013 0.0000152 0.0002085 -0.0000145 0.0000646 0.0000637 0.0000079 0.0000123 0.0001472 -0.0000130 0.0004751 0.0003224 0.0002405 0.0001619 -0.0001086 0.0002215 -0.0002538 0.0004178 -0.0006625 -0.0001383 -0.0002387 -0.0001150 -0.0002048 -0.0000249 0.0002418 0.0000325 0.0000815 0.0006653 -0.0007411 -0.0000247 0.0000393 0.0000770 -0.0003221 -0.0002298 -0.0003149 -0.0001494 -0.0002580 0.0000523 -0.0003662 0.0002238 0.0001797 0.0000011 0.0005324 0.0001306 0.0002199 -0.0002293 0.0001156 0.0002630 0.0001239 0.0004379 -0.0001973 0.0001125 0.0000219 -0.0002113 0.0003354 0.0001904 -0.0002038 -0.0002590 0.0004036 -0.0000366 0.0000931 -0.0003209 0.0003764 -0.0006064 0.0007624 0.0000401 0.0003188 0.0001269 -0.0001361 -0.0000224 0.0005012 0.0000668 -0.0001855 0.0001792 -0.0001924 0.0013812 -0.0010290 0.0001899 -0.0003510 0.0000992 -0.0000095 0.0001259 0.0002114 0.0000956 -0.0001404 0.0000393 0.0000024 -0.0027877 0.0021043 0.0000947 -0.0001398 0.0000891 -0.0000992 0.0002190 -0.0001725 -0.0000315 0.0004488 -0.0102869 0.0034051 -0.0001626 0.0002224 -0.0003479 0.0003873 -0.0001085 0.0001977 -0.0000095 -0.0000068 -0.0000086 -0.0002873 -0.0000969 0.0000603 -0.0000306 0.0000258 -0.0000574 0.0000632 -0.0000520 0.0000534 -0.0000578 0.0001930 -0.0001067 0.0001374 0.0000597 0.0003207 0.0000513 -0.0000626 -0.0001240 0.0001976 -0.0002445 0.0002870 -0.0001732 0.0003359 -0.0000612 0.0000393 -0.0000210 0.0003766 0.0000228 0.0000539 -0.0000481 0.0003048 0.0000396 0.0003996 -0.0001717 0.0002889 -0.0006672 0.0008022 -0.0000667 0.0003725 0.0000569 0.0002861 -0.0003374 0.0005186 0.0001175 0.0001261 0.0000698 0.0002850
-0.0001361 0.0003736 -0.0000833 0.0004221 -0.0000229 0.0001815 0.0001281 0.0001517 0.0000179 0.0001613 0.0000879 0.0002144 0.0000944 0.0000621 0.0000151 -0.0001419 -0.0001397 -0.0000750 -0.0000365 0.0002396 -0.0001886 0.0004198 -0.0000112 0.0001665 -0.0000420 0.0001380 0.0000136 -0.0000968 -0.0000643 0.0001706 -0.0000258 -0.0004423 -0.0002363 0.0003590 -0.0000238 0.0002154 -0.0000645 -0.0002010 0.0013099 -0.0006861 -0.0000586 0.0002387 -0.0001983 0.0005119 -0.0004252 0.0005042 -0.0001314 -0.0003759 -0.0001440 0.0004354 0.0026615 -0.0018016 0.0012367 0.0000379 -0.0000889 0.0003576 -0.0000719 0.0004541 0.0001192 -0.0001304 -0.0000440 0.0000348 -0.0000518 0.0002974 -0.0000230 0.0001421 0.0000338 0.0000750 0.0000117 0.0001782 -0.0000217 0.0003452 0.0002294 0.0001891 0.0000737 -0.0000150 0.0000419 -0.0000890 0.0000868 -0.0003784 -0.0002298 -0.0000497 -0.0000395 -0.0003808 -0.0000007 0.0002179 -0.0000253 0.0001621 0.0002104 -0.0004515 -0.0000333 0.0000601 0.0001311 -0.0002922 -0.0003740 -0.0000004 0.0000648 -0.0003348 -0.0000882 -0.0001508 0.0001938 0.0003462 -0.0000583 0.0004806 0.0000762 0.0003333 -0.0001971 0.0001086 0.0002532 0.0000634 -0.0000092 0.0001765 0.0000863 0.0000445 -0.0002396 0.0004594 0.0001741 -0.0001407 -0.0001790 0.0003870 -0.0000454 0.0002227 -0.0003229 0.0004873 -0.0009047 0.0011622 0.0000323 0.0003900 0.0001399 -0.0001205 -0.0000331 0.0005833 -0.0000472 -0.0000044 0.0001593 -0.0001201 -0.0003399 0.0006212 0.0001756 -0.0001709 0.0000789 0.0001214 0.0000618 0.0004178 0.0000570 -0.0000644 0.0000177 0.0001856 -0.0003570 -0.0006004 0.0001152 -0.0000166 0.0001471 -0.0001174 0.0001517 0.0000789 0.0001426 0.0004299 -0.0185434 0.0179053 -0.0002229 0.0002829 0.0000039 -0.0000495 -0.0001036 0.0003330 -0.0000349 0.0001783 0.0000373 -0.0001724 -0.0001606 0.0001814 -0.0000759 0.0002289 -0.0000908 0.0002025 0.0000562 0.0003118 -0.0001100 0.0003016 -0.0001814 0.0002262 -0.0000013 0.0005721 0.0005267 -0.0005609 0.0000361 0.0002707 -0.0003309 0.0004037 -0.0001861 0.0004301 -0.0003074 0.0005558 -0.0001746 0.0005792 0.0000106 0.0000949 -0.0000590 0.0004170 0.0000463 0.0005082 -0.0002467 0.0004206 -0.0003739 0.0007104 -0.0000856 0.0005709 0.0000352 0.0004184 -0.0004083 0.0006373 0.0000948 0.0003063 0.0000823 0.0005419
-0.0001529 0.0003985 -0.0000804 0.0005183 -0.0000109 0.0002600 0.0001151 0.0001957 0.0000018 0.0001897 -0.0001054 0.0001784 0.0000504 0.0001382 0.0000630 0.0000832 -0.0002064 -0.0000448 -0.0000237 0.0004697 -0.0000356 0.0003827 -0.0000702 0.0004169 -0.0001769 0.0003725 0.0000112 -0.0000165 -0.0001362 0.0002806 -0.0000591 -0.0003473 -0.0002033 0.0002893 -0.0002295 0.0005433 -0.0001062 -0.0001479 -0.0020242 0.0024286 -0.0000556 0.0004001 -0.0000985 0.0005172 -0.0004598 0.0006795 -0.0001370 -0.0003847 -0.0002129 0.0004588 -0.0005961 -0.0004010 0.0031347 -0.0011706 -0.0000762 0.0006491 -0.0000732 0.0005367 0.0001465 0.0001349 -0.0000584 0.0001736 -0.0000753 0.0004880 -0.0000307 0.0002787 -0.0000001 0.0003426 0.0000372 0.0001650 -0.0000299 0.0004125 0.0001051 0.0005590 -0.0000529 0.0001482 -0.0002136 0.0003849 -0.0001806 0.0001462 -0.0000385 0.0001294 0.0006685 -0.0005803 -0.0000713 0.0004877 -0.0001981 0.0004605 0.0001743 -0.0001553 -0.0000975 0.0002716 0.0001567 -0.0002969 0.0002922 -0.0002862 0.0001491 -0.0001935 -0.0000290 0.0000925 0.0000976 0.0005310 0.0000120 0.0005843 0.0000303 0.0004889 -0.0000855 -0.0001243 -0.0001459 0.0002388 -0.0000720 0.0001944 0.0000461 0.0001164 -0.0003145 0.0005500 0.0001581 -0.0001050 -0.0002178 0.0005243 -0.0000728 0.0002008 -0.0003535 0.0005349 -0.0006876 0.0007890 0.0000179 0.0003304 0.0001103 -0.0001031 -0.0000669 0.0006517 0.0000240 -0.0000097 0.0002463 -0.0001612 -0.0006620 0.0011293 0.0002932 -0.0003331 0.0000630 0.0000611 -0.0000196 0.0003187 0.0000574 -0.0000974 0.0000257 0.0000392 0.0001895 -0.0008159 0.0001652 -0.0000443 0.0000836 0.0000016 0.0000467 0.0001488 0.0000586 0.0004828 -0.0123194 0.0145986 -0.0002353 0.0002916 0.0002510 -0.0003065 -0.0001489 0.0002179 -0.0000429 0.0002359 0.0001031 -0.0003726 -0.0001058 0.0000954 -0.0000758 0.0001731 -0.0000553 0.0000953 0.0001210 -0.0001387 -0.0000980 0.0002364 -0.0001296 0.0001692 -0.0002088 0.0005100 0.0005665 -0.0004958 -0.0000029 0.0001956 -0.0002475 0.0003031 -0.0002938 0.0004839 -0.0000017 0.0001104 -0.0001305 0.0004388 0.0001214 -0.0000427 -0.0000916 0.0003818 0.0000043 0.0004908 -0.0002580 0.0004272 -0.0001214 0.0003125 -0.0000852 0.0006433 0.0000066 0.0004256 -0.0003278 0.0005369 0.0001047 0.0003254 0.0001563 0.0004701
-0.0001214 0.0002226 -0.0000678 0.0004692 -0.0001018 0.0002695 0.0001132 0.0000617 -0.0000215 0.0000930 -0.0000860 -0.0000133 -0.0000121 0.0001588 0.0001631 0.0003333 -0.0001625 -0.0000936 -0.0000927 0.0006052 -0.0000301 0.0003688 -0.0000366 0.0004403 -0.0001423 0.0003629 0.0000092 -0.0000499 -0.0001840 0.0003142 -0.0000650 -0.0002465 -0.0000680 0.0001105 -0.0002229 0.0005823 -0.0000963 -0.0001427 0.0011839 0.0000524 -0.0000675 0.0004353 -0.0000697 0.0003931 -0.0004638 0.0007513 -0.0001267 -0.0002449 -0.0000408 0.0003084 -0.0048647 0.0009228 0.0032431 -0.0014181 -0.0003859 0.0007880 -0.0000820 0.0004559 0.0001023 0.0003314 -0.0001037 0.0002319 -0.0001037 0.0006033 -0.0000685 0.0003885 -0.0000300 0.0004697 -0.0000799 0.0003886 -0.0000265 0.0004168 -0.0000805 0.0008165 -0.0000825 0.0001806 -0.0002378 0.0004594 0.0000218 0.0000965 0.0001774 0.0000370 0.0003609 -0.0000762 -0.0001102 0.0007782 -0.0002838 0.0006499 -0.0003725 0.0006310 -0.0001488 0.0004441 0.0000333 0.0000188 0.0004643 -0.0002607 -0.0001023 0.0002578 -0.0000361 0.0002836 0.0000205 0.0007816 0.0000356 0.0005288 0.0000300 0.0005973 -0.0003330 0.0000653 -0.0001036 0.0002609 -0.0001792 0.0003787 0.0000035 0.0001924 -0.0003850 0.0006681 0.0001100 0.0000441 -0.0002071 0.0006202 -0.0001450 0.0002607 -0.0003716 0.0006381 0.0001600 0.0001000 0.0000312 0.0003827 0.0000442 0.0000185 -0.0000936 0.0007755 0.0000085 0.0001884 0.0002545 -0.0000194 0.0001444 0.0003496 0.0002876 -0.0000799 0.0000251 0.0002500 -0.0000454 0.0005245 0.0000068 0.0000316 0.0000277 0.0002087 -0.0010848 0.0007309 0.0000584 0.0002248 -0.0000791 0.0002641 0.0000847 0.0002189 -0.0001233 0.0007155 -0.0017545 0.0050090 -0.0003120 0.0003858 -0.0002723 0.0004048 -0.0001655 0.0004143 -0.0000391 0.0004042 0.0000374 -0.0001803 -0.0001252 0.0001574 -0.0000318 0.0003219 -0.0000869 0.0002890 0.0002675 -0.0001162 -0.0001448 0.0003314 -0.0001529 0.0002068 -0.0002880 0.0007131 0.0003311 0.0001336 -0.0000494 0.0002994 -0.0003721 0.0004668 -0.0003775 0.0006356 0.0005646 -0.0000846 -0.0000243 0.0004763 -0.0000705 0.0002034 -0.0000923 0.0004956 -0.0000674 0.0006810 -0.0002812 0.0004826 -0.0005650 0.0006762 -0.0001075 0.0007871 -0.0000213 0.0005312 -0.0004237 0.0006734 0.0000860 0.0004342 0.0000481 0.0006064
-0.0001544 0.0004093 -0.0000826 0.0005564 -0.0001830 0.0005362 0.0000593 0.0000732 -0.0000223 0.0002468 0.0000693 0.0000521 -0.0000737 0.0002293 0.0001357 0.0002892 -0.0002178 0.0001606 -0.0001267 0.0007460 -0.0001813 0.0006181 0.0000022 0.0005048 -0.0001871 0.0004487 0.0000104 0.0000221 -0.0002172 0.0003308 -0.0000528 -0.0000231 -0.0002127 0.0002896 -0.0002217 0.0005406 -0.0000944 -0.0000460 0.0027929 -0.0010997 -0.0000774 0.0004391 -0.0001450 0.0004140 -0.0004997 0.0007977 -0.0001104 -0.0000556 -0.0000279 0.0001899 0.0008411 0.0048641 0.0010410 -0.0005990 -0.0001479 0.0001828 -0.0001322 0.0002758 0.0000232 0.0002247 -0.0000675 0.0001078 -0.0001640 0.0006153 -0.0000915 0.0004232 -0.0000953 0.0004847 -0.0001288 0.0004900 -0.0000258 0.0002122 -0.0001712 0.0006507 0.0000080 0.0000582 -0.0002765 0.0003797 0.0000100 -0.0001548 -0.0000361 0.0001686 -0.0001896 0.0003846 -0.0001162 0.0006617 -0.0001312 0.0003935 -0.0003195 0.0004648 -0.0001382 0.0002931 0.0000367 0.0001465 0.0002264 -0.0000788 -0.0000780 0.0002089 -0.0001475 0.0004705 0.0000494 0.0005386 0.0000207 0.0003083 0.0000130 0.0004882 -0.0001813 -0.0000288 -0.0000993 0.0000574 -0.0005030 0.0006612 -0.0000183 0.0001470 -0.0003982 0.0007175 0.0000751 0.0000612 -0.0001876 0.0005860 -0.0002176 0.0003930 -0.0003212 0.0006158 0.0008339 -0.0001499 0.0000135 0.0003906 0.0000643 0.0000178 -0.0000989 0.0007314 -0.0001717 0.0003386 0.0002051 0.0001262 -0.0001381 0.0004081 0.0003647 -0.0000816 -0.0000022 0.0003387 -0.0000768 0.0006365 -0.0000009 0.0000686 -0.0000005 0.0002502 -0.0013640 0.0005621 0.0000556 0.0002680 -0.0001073 0.0002883 0.0000980 0.0002581 -0.0001459 0.0007283 -0.0024099 0.0027054 -0.0003432 0.0004162 -0.0004242 0.0006165 -0.0001934 0.0005574 -0.0000510 0.0005316 0.0000466 -0.0000846 -0.0001707 0.0002567 -0.0000102 0.0003754 -0.0001137 0.0003458 0.0003140 0.0001151 -0.0001531 0.0003721 -0.0001582 0.0002128 -0.0002540 0.0007046 -0.0001462 0.0006006 -0.0002606 0.0004615 -0.0004670 0.0005809 -0.0003522 0.0006206 0.0006894 -0.0001780 -0.0001657 0.0005834 -0.0001619 0.0003069 -0.0001219 0.0005670 -0.0000692 0.0007231 -0.0003137 0.0005444 -0.0004883 0.0006899 -0.0001177 0.0008670 -0.0000178 0.0005327 -0.0005454 0.0008427 0.0000447 0.0005295 0.0000133 0.0006668
-0.0002350 0.0005798 -0.0000771 0.0005701 -0.0002142 0.0007024 0.0000320 0.0001411 -0.0000147 0.0004219 0.0000400 0.0001709 -0.0001340 0.0003136 0.0000812 0.0001788 -0.0002435 0.0003220 -0.0001287 0.0008666 -0.0001855 0.0006468 -0.0000675 0.0006174 -0.0002427 0.0005516 0.0000151 0.0001450 -0.0002605 0.0003973 -0.0000647 0.0002506 -0.0003665 0.0004731 -0.0003214 0.0007223 -0.0001185 0.0001146 0.0005744 0.0002426 -0.0000929 0.0005563 -0.0002617 0.0007055 -0.0005429 0.0009294 -0.0001162 0.0001374 -0.0002542 0.0005501 0.0070853 -0.0054903 0.0014933 -0.0007581 -0.0002193 0.0004411 -0.0001453 0.0002999 -0.0000205 0.0005716 -0.0001160 0.0003430 -0.0000808 0.0005849 -0.0001098 0.0004560 -0.0001538 0.0006781 -0.0002122 0.0005318 -0.0000457 0.0002870 -0.0000504 0.0006967 -0.0000940 0.0001842 -0.0003674 0.0006917 -0.0002252 0.0002242 -0.0001119 0.0003795 0.0002258 0.0002460 -0.0001262 0.0008584 -0.0003701 0.0007776 -0.0001607 0.0003130 -0.0001545 0.0004502 0.0001036 0.0001039 0.0006670 -0.0004340 0.0000267 0.0001619 -0.0000108 0.0005242 0.0000656 0.0007106 0.0000799 0.0005045 -0.0000384 0.0006627 0.0003280 -0.0002932 -0.0000342 -0.0000667 -0.0004698 0.0007118 -0.0000202 0.0002237 -0.0004270 0.0008296 0.0000735 0.0001794 -0.0002343 0.0007290 -0.0002507 0.0004852 -0.0003595 0.0007225 0.0003200 0.0002110 -0.0000423 0.0005812 0.0000107 0.0001577 -0.0001048 0.0008531 -0.0002080 0.0004126 0.0002256 0.0003032 -0.0001786 0.0008265 0.0003030 0.0001321 -0.0000175 0.0005160 -0.0001659 0.0009140 -0.0001307 0.0002551 -0.0000586 0.0004761 -0.0019512 0.0019923 0.0001465 0.0002525 -0.0000732 0.0002340 -0.0000786 0.0004532 -0.0000955 0.0006660 -0.0032973 0.0023252 -0.0003940 0.0004657 -0.0002024 0.0003841 -0.0001921 0.0006042 -0.0000465 0.0006302 -0.0000318 0.0001307 -0.0002770 0.0003715 -0.0000166 0.0003775 -0.0001006 0.0003068 0.0003035 0.0000036 -0.0001381 0.0003438 -0.0002192 0.0002783 -0.0002324 0.0006597 -0.0005187 0.0009404 -0.0001925 0.0004302 -0.0004048 0.0004999 -0.0003356 0.0005493 0.0001362 -0.0000232 -0.0003716 0.0007472 -0.0001665 0.0002992 -0.0001376 0.0004640 -0.0000880 0.0006318 -0.0003558 0.0005705 -0.0002650 0.0005428 -0.0001382 0.0007807 -0.0000016 0.0004236 -0.0004961 0.0007605 0.0000225 0.0004755 0.0000839 0.0004845
-0.0002627 0.0004272 -0.0000709 0.0003944 -0.0002975 0.0005308 0.0000416 0.0000495 -0.0000339 0.0003076 -0.0000849 0.0001419 -0.0001855 0.0001568 0.0001078 0.0003095 -0.0001566 0.0000856 -0.0000957 0.0007463 -0.0001470 0.0003929 -0.0000879 0.0005313 -0.0001621 0.0004388 0.0000174 0.0001042 -0.0002535 0.0003742 -0.0000900 0.0002409 -0.0002733 0.0003491 -0.0002498 0.0004925 -0.0001456 0.0001368 -0.0010525 0.0013480 -0.0001132 0.0005227 -0.0003244 0.0007888 -0.0005498 0.0008952 -0.0001307 0.0002065 -0.0000113 0.0004209 0.0059056 -0.0133590 0.0030680 -0.0014913 -0.0006765 0.0008986 -0.0001593 0.0002780 -0.0000019 0.0006300 -0.0002704 0.0004383 -0.0000489 0.0005142 -0.0001366 0.0003963 -0.0001550 0.0006948 -0.0003268 0.0005805 -0.0000589 0.0002682 -0.0000680 0.0007201 -0.0000613 0.0001483 -0.0003074 0.0007134 -0.0002522 0.0004786 0.0000191 0.0003119 0.0000920 0.0006358 -0.0001990 0.0010261 -0.0006307 0.0011179 -0.0004392 0.0008022 -0.0001385 0.0005180 -0.0000158 0.0001526 0.0001809 0.0000790 -0.0001649 0.0003899 -0.0000228 0.0005230 0.0000285 0.0008803 0.0001273 0.0004920 -0.0000473 0.0007387 0.0000610 0.0000819 0.0001804 -0.0001448 -0.0001317 0.0004766 0.0000187 0.0001912 -0.0004782 0.0009105 0.0000419 0.0002907 -0.0003254 0.0008800 -0.0002576 0.0004456 -0.0003810 0.0007459 0.0001930 0.0000335 -0.0000167 0.0006207 -0.0000368 0.0002470 -0.0001085 0.0009382 -0.0002092 0.0004801 0.0000229 0.0005079 -0.0000088 0.0008079 0.0000580 0.0005067 -0.0000530 0.0006844 -0.0001447 0.0010505 -0.0002955 0.0005142 -0.0000659 0.0006539 -0.0027502 0.0033412 0.0000888 0.0004043 0.0000091 0.0001507 -0.0000522 0.0004588 -0.0000290 0.0005809 -0.0037821 0.0088760 -0.0003697 0.0004404 -0.0002732 0.0004548 -0.0002104 0.0007762 -0.0000551 0.0007016 -0.0000972 0.0004008 -0.0003890 0.0005128 -0.0000333 0.0004972 -0.0001399 0.0004667 0.0002479 0.0003782 -0.0001720 0.0004191 -0.0002695 0.0003407 -0.0003001 0.0008446 -0.0003064 0.0006588 -0.0000917 0.0004358 -0.0004671 0.0005900 -0.0004149 0.0006955 -0.0003160 0.0004515 -0.0002323 0.0007271 -0.0003088 0.0004771 -0.0001956 0.0005701 -0.0001307 0.0008038 -0.0004183 0.0006678 -0.0007591 0.0009788 -0.0001568 0.0008757 -0.0000339 0.0004880 -0.0005503 0.0008560 -0.0000332 0.0005947 0.0001066 0.0005722
-0.0001578 0.0004162 -0.0000966 0.0004494 -0.0003278 0.0006183 -0.0000306 0.0003118 -0.0000534 0.0005537 -0.0000364 0.0003364 -0.0002013 0.0001839 -0.0000139 0.0000958 -0.0002067 0.0002041 -0.0001423 0.0008197 -0.0002541 0.0006380 -0.0000380 0.0005670 -0.0000683 0.0003657 0.0000124 0.0003798 -0.0002922 0.0004722 -0.0001128 0.0004057 -0.0003130 0.0004328 -0.0001778 0.0004650 -0.0001734 0.0002962 -0.0014652 0.0025741 -0.0001381 0.0006065 -0.0002549 0.0009405 -0.0005566 0.0010326 -0.0001369 0.0003623 0.0002558 0.0003056 -0.0089354 0.0113870 0.0007988 0.0003552 -0.0003589 0.0008835 -0.0001790 0.0002873 -0.0000274 0.0006457 -0.0002213 0.0004548 -0.0000762 0.0005029 -0.0001608 0.0004500 -0.0001767 0.0007441 -0.0004030 0.0006003 -0.0000805 0.0002068 -0.0000211 0.0006132 0.0000442 0.0000398 -0.0003578 0.0005698 -0.0007259 0.0008325 0.0002214 0.0002668 -0.0001032 0.0008275 -0.0002308 0.0009875 -0.0005410 0.0009144 -0.0001798 0.0005367 -0.0001803 0.0005087 -0.0000342 0.0001604 -0.0002660 0.0007307 -0.0002964 0.0004596 0.0000305 0.0004410 -0.0000074 0.0006668 0.0000949 0.0003499 -0.0000387 0.0006036 -0.0001421 0.0004883 0.0002274 -0.0002238 0.0001142 0.0002247 0.0000016 0.0000713 -0.0004737 0.0008181 0.0000257 0.0002035 -0.0003125 0.0007647 -0.0003092 0.0003476 -0.0003403 0.0005896 0.0003663 -0.0003055 0.0000017 0.0003789 -0.0000603 0.0002113 -0.0001294 0.0007830 -0.0002573 0.0004079 -0.0001238 0.0004529 0.0005967 -0.0001212 0.0001318 0.0002404 -0.0000884 0.0005266 -0.0001419 0.0007117 -0.0002040 0.0003595 -0.0000778 0.0003571 -0.0040405 0.0036959 0.0000368 0.0003014 0.0000222 -0.0000068 0.0001066 0.0001133 -0.0001847 0.0006185 -0.0085962 0.0135409 -0.0003645 0.0004116 -0.0004265 0.0005847 -0.0002187 0.0006686 -0.0000697 0.0006013 -0.0000811 0.0002283 -0.0002328 0.0003301 -0.0000329 0.0003854 -0.0001309 0.0003112 0.0001471 0.0004160 -0.0001384 0.0003474 -0.0002009 0.0002617 -0.0005361 0.0009498 -0.0003910 0.0006705 -0.0001200 0.0003464 -0.0005915 0.0007196 -0.0004264 0.0006871 -0.0006173 0.0006622 0.0000330 0.0003180 -0.0004214 0.0005832 -0.0002660 0.0005503 -0.0001505 0.0007446 -0.0004442 0.0006923 -0.0006344 0.0007314 -0.0001580 0.0008613 -0.0001190 0.0004805 -0.0005884 0.0008993 -0.0000485 0.0005915 0.0000032 0.0006616
-0.0001815 0.0004033 -0.0000953 0.0003911 -0.0002834 0.0006159 -0.0000432 0.0004063 -0.0000673 0.0006600 -0.0001338 0.0004864 -0.0002138 0.0001629 -0.0000631 -0.0000217 -0.0003167 0.0003900 -0.0002100 0.0007933 -0.0003134 0.0007125 -0.0000395 0.0005020 -0.0001302 0.0003961 0.0000133 0.0004374 -0.0003250 0.0005282 -0.0001217 0.0004118 -0.0004469 0.0005938 -0.0003436 0.0006461 -0.0002014 0.0003018 -0.0002953 0.0015936 -0.0001701 0.0005977 -0.0000902 0.0009031 -0.0005295 0.0010255 -0.0001395 0.0003995 -0.0000547 0.0005456 -0.0023853 0.0122895 -0.0006943 0.0016219 0.0001396 0.0006380 -0.0001773 0.0002472 -0.0000900 0.0008839 -0.0001447 0.0003963 -0.0001291 0.0004870 -0.0001925 0.0004201 -0.0001867 0.0007460 -0.0003639 0.0004701 -0.0000969 0.0002787 -0.0000704 0.0007222 -0.0000655 0.0001578 -0.0004389 0.0005829 -0.0007081 0.0009231 -0.0000091 0.0004299 0.0000415 0.0006185 -0.0002959 0.0011251 -0.0005292 0.0009235 -0.0002924 0.0005311 -0.0002868 0.0006602 -0.0001814 0.0002678 -0.0003572 0.0007201 -0.0004250 0.0005297 0.0000716 0.0003347 0.0000149 0.0007557 0.0000269 0.0005511 -0.0000721 0.0006737 -0.0000968 0.0005325 0.0004252 -0.0001558 -0.0000175 0.0003528 -0.0000378 0.0001294 -0.0004319 0.0007900 0.0000012 0.0002827 -0.0003487 0.0007821 -0.0004309 0.0004450 -0.0004074 0.0006563 -0.0003542 0.0003756 -0.0000479 0.0004544 -0.0000800 0.0002722 -0.0001513 0.0008331 -0.0003382 0.0005473 -0.0000401 0.0004412 0.0000759 0.0005489 0.0001742 0.0003298 -0.0001327 0.0006666 -0.0002431 0.0008981 -0.0003066 0.0005164 -0.0001332 0.0005258 -0.0078004 0.0070877 0.0001179 0.0002387 -0.0000741 -0.0001513 0.0001291 0.0000882 -0.0002013 0.0006997 0.0008696 -0.0051399 -0.0004696 0.0005207 -0.0004464 0.0005993 -0.0002147 0.0007679 -0.0000556 0.0005989 -0.0000812 0.0002683 -0.0003210 0.0004328 -0.0000112 0.0004100 -0.0001708 0.0003705 0.0000113 0.0006201 -0.0001794 0.0004197 -0.0002123 0.0002767 -0.0006410 0.0010985 -0.0006876 0.0011627 -0.0001383 0.0003300 -0.0006077 0.0007285 -0.0004483 0.0007074 0.0002395 -0.0002331 -0.0001044 0.0004362 -0.0004827 0.0006582 -0.0002420 0.0004552 -0.0001898 0.0006769 -0.0004435 0.0006784 -0.0002911 0.0003458 -0.0001685 0.0008163 -0.0001399 0.0004598 -0.0006233 0.0009149 -0.0000611 0.0005570 -0.0001481 0.0006925
