-0.0000000 -0.0000000 -0.0000000 -0.0000000 -0.0000000 -0.0000000 -0.0000000 -0.0000000 -0.0000000 -0.0000000 -0.0000000 -0.0000000 -0.0000000 -0.0000000 -0.0000000 -0.0000000 -0.0000000 -0.0000000 -0.0000000 -0.0000000 -0.0000000 -0.0000000 -0.0000000 -0.0000000 -0.0000000 -0.0000000 -0.0000000 -0.0000000 -0.0000000 -0.0000000 -0.0000000 -0.0000000 -0.0000000 -0.0000000 -0.0000000 -0.0000000 -0.0000000 -0.0000000 -0.0000000 -0.0000000 -0.0000000 -0.0000000 -0.0000000 -0.0000000 -0.0000000 -0.0000000 -0.0000000 -0.0000000 -0.0000000 -0.0000000 -0.0000000 -0.0000000 -0.0000000 -0.0000000 -0.0000000 -0.0000000 -0.0000000 -0.0000000 -0.0000000 -0.0000000 -0.0000000 -0.0000000 -0.0000000 -0.0000000 -0.0000000 -0.0000000 -0.0000000 -0.0000000 -0.0000000 -0.0000000 -0.0000000 -0.0000000 -0.0000000 -0.0000000 -0.0000000 -0.0000000 -0.0000000 -0.0000000 -0.0000000 -0.0000000 -0.0000000 -0.0000000 -0.0000000 -0.0000000 -0.0000000 -0.0000000 -0.0000000 -0.0000000 -0.0000000 -0.0000000 -0.0000000 -0.0000000 -0.0000000 -0.0000000 -0.0000000 -0.0000000 -0.0000000 -0.0000000 -0.0000000 -0.0000000 -0.0000000 -0.0000000 -0.0000000 -0.0000000 -0.0000000 -0.0000000 -0.0000000 -0.0000000 -0.0000000 -0.0000000 -0.0000000 -0.0000000 -0.0000000 -0.0000000 -0.0000000 -0.0000000 -0.0000000 -0.0000000 -0.0000000 -0.0000000 -0.0000000 -0.0000000 -0.0000000 -0.0000000 -0.0000000 -0.0000000 -0.0000000 -0.0000000 -0.0000000 -0.0000000 -0.0000000 -0.0000000 -0.0000000 -0.0000000 -0.0000000 -0.0000000 -0.0000000 -0.0000000 -0.0000000 -0.0000000
-0.0000000 -0.0000000 -0.0000000 -0.0000000 -0.0000000 -0.0000000 -0.0000000 -0.0000000 -0.0000000 -0.0000000 -0.0000000 -0.0000000 -0.0000000 -0.0000000 -0.0000000 -0.0000000 -0.0000000 -0.0000000 -0.0000000 -0.0000000 -0.0000000 -0.0000000 -0.0000000 -0.0000000 -0.0000000 -0.0000000 -0.0000000 -0.0000000 -0.0000000 -0.0000000 -0.0000000 -0.0000000 -0.0000000 -0.0000000 -0.0000000 -0.0000000 -0.0000000 -0.0000000 -0.0000000 -0.0000000 -0.0000000 -0.0000000 -0.0000000 -0.0000000 -0.0000000 -0.0000000 -0.0000000 -0.0000000 -0.0000000 -0.0000000 -0.0000000 -0.0000000 -0.0000000 -0.0000000 -0.0000000 -0.0000000 -0.0000000 -0.0000000 -0.0000000 -0.0000000 -0.0000000 -0.0000000 -0.0000000 -0.0000000 -0.0000000 -0.0000000 -0.0000000 -0.0000000 -0.0000000 -0.0000000 -0.0000000 -0.0000000 -0.0000000 -0.0000000 -0.0000000 -0.0000000 -0.0000000 -0.0000000 -0.0000000 -0.0000000 -0.0000000 -0.0000000 -0.0000000 -0.0000000 -0.0000000 -0.0000000 -0.0000000 -0.0000000 -0.0000000 -0.0000000 -0.0000000 -0.0000000 -0.0000000 -0.0000000 -0.0000000 -0.0000000 -0.0000000 -0.0000000 -0.0000000 -0.0000000 -0.0000000 -0.0000000 -0.0000000 -0.0000000 -0.0000000 -0.0000000 -0.0000000 -0.0000000 -0.0000000 -0.0000000 -0.0000000 -0.0000000 -0.0000000 -0.0000000 -0.0000000 -0.0000000 -0.0000000 -0.0000000 -0.0000000 -0.0000000 -0.0000000 -0.0000000 -0.0000000 -0.0000000 -0.0000000 -0.0000000 -0.0000000 -0.0000000 -0.0000000 -0.0000000 -0.0000000 -0.0000000 -0.0000000 -0.0000000 -0.0000000 -0.0000000 -0.0000000 -0.0000000 -0.0000000 -0.0000000
0.0000161 -0.0000547 0.0000174 0.0000181 0.0000099 -0.0000776 -0.0000023 0.0000005 0.0000100 -0.0001692 0.0000061 0.0000001 0.0000109 -0.0000059 -0.0000100 -0.0000180 0.0000141 -0.0000112 -0.0000009 -0.0000084 0.0000065 -0.0000270 -0.0000372 -0.0000070 -0.0000050 -0.0000475 -0.0000072 0.0000129 0.0000002 0.0000085 -0.0000150 -0.0000137 0.0000061 -0.0000388 0.0000171 -0.0000711 -0.0000253 -0.0000476 0.0000008 -0.0000162 0.0000033 -0.0000565 0.0000188 0.0000089 0.0000050 -0.0000778 0.0000066 -0.0000818 -0.0000261 -0.0000051 0.0000030 -0.0000473 0.0000084 -0.0001722 -0.0000173 -0.0001044 0.0000100 -0.0000956 -0.0000081 -0.0001941 -0.0068549 0.0062274 0.0003177 -0.0004030 -0.0001333 -0.0001782 0.0000018 -0.0000991 -0.0006897 0.0005482 0.0000051 0.0000448 -0.0000021 0.0000554 0.0000047 0.0000281 0.0000086 0.0001013 -0.0000060 0.0000711 -0.0000119 0.0000651 0.0000074 0.0001273 -0.0000012 0.0000954 0.0000033 0.0000523 -0.0000225 0.0000616 0.0000069 0.0000143 -0.0000036 0.0000296 0.0000394 0.0003467 0.0000136 0.0001877 0.0000272 0.0002497 -0.0000029 0.0000617 -0.0000037 0.0000339 0.0000006 0.0000803 -0.0000070 0.0000812 -0.0000033 0.0000165 -0.0000023 0.0000754 0.0000118 0.0001093 -0.0000055 0.0000671 0.0000007 -0.0000155 0.0000101 -0.0000143 0.0000222 -0.0000204 0.0000041 -0.0000736 0.0000475 -0.0000553 0.0001507 -0.0001083 0.0000554 -0.0000506 0.0000014 0.0000291 0.0000353 -0.0001322 -0.0000098 -0.0001501 -0.0000113 -0.0000774 -0.0000006 -0.0001196
0.0000301 -0.0003599 0.0000017 -0.0000325 0.0000005 -0.0002123 0.0000140 -0.0000792 0.0000369 -0.0001884 0.0000013 -0.0000733 -0.0000020 -0.0001321 0.0000112 -0.0000416 0.0000321 -0.0000743 0.0000193 0.0000013 0.0000202 -0.0000385 0.0000611 -0.0000705 -0.0000125 -0.0000192 -0.0000043 0.0000248 0.0000042 0.0000010 -0.0000026 0.0000084 -0.0000009 -0.0000344 0.0000154 -0.0000364 -0.0000088 -0.0000566 0.0000053 -0.0000120 0.0000025 -0.0000313 0.0000055 0.0000499 0.0000095 -0.0000172 -0.0000255 -0.0000292 -0.0000466 -0.0000064 0.0000056 0.0000103 0.0000285 -0.0000699 0.0000134 -0.0001645 0.0000245 -0.0000609 0.0001891 -0.0002558 0.0000207 -0.0000334 -0.0004312 0.0003230 -0.0001260 -0.0004138 -0.0017174 0.0003971 -0.0008118 0.0007009 0.0000092 -0.0000710 0.0000008 -0.0000829 0.0000022 -0.0000564 0.0000091 -0.0000568 -0.0000015 -0.0000842 0.0000003 -0.0000552 0.0000118 -0.0000651 0.0000062 -0.0000280 0.0000037 -0.0000529 -0.0000022 -0.0000369 0.0000109 -0.0000374 0.0000110 -0.0000808 0.0000309 0.0001168 0.0000173 0.0000916 0.0000147 0.0000070 0.0000021 -0.0000707 0.0000016 -0.0000537 0.0000115 -0.0000340 -0.0000021 -0.0001086 -0.0000001 -0.0000341 -0.0000108 -0.0001023 0.0000198 0.0001453 -0.0000070 -0.0000617 -0.0000005 -0.0000725 0.0000100 -0.0000366 0.0000098 -0.0000073 -0.0000019 -0.0000640 0.0000884 -0.0001029 -0.0001997 0.0002177 0.0000788 0.0001016 0.0000252 0.0000196 0.0000126 0.0001128 0.0000160 0.0000992 -0.0000053 0.0000387 -0.0000005 0.0000799
0.0000227 0.0001097 0.0000021 0.0000147 0.0000092 0.0001242 0.0000123 0.0000548 0.0000241 0.0002085 -0.0000029 0.0000384 -0.0000047 0.0001218 0.0000050 0.0000468 0.0000112 0.0000356 -0.0000142 0.0000582 -0.0000220 0.0000668 0.0000312 0.0000052 -0.0000038 0.0002151 -0.0000042 0.0000787 0.0000032 0.0000976 -0.0000266 0.0000740 -0.0000118 0.0000719 -0.0000073 0.0001873 -0.0000215 0.0001222 0.0000007 0.0000660 -0.0000118 0.0000901 -0.0000062 0.0002013 0.0000049 0.0001772 -0.0000168 0.0001073 -0.0000942 0.0001421 0.0000543 0.0000612 0.0000211 0.0001858 -0.0002005 0.0003881 0.0000065 0.0001393 0.0001327 -0.0001751 -0.0046743 0.0072991 -0.0005839 0.0004649 0.0005409 -0.0007344 -0.0004605 0.0008859 0.0001837 0.0000344 0.0000073 0.0000846 -0.0000042 0.0000967 0.0000026 0.0000450 0.0000169 0.0001290 -0.0000156 0.0001427 -0.0000073 0.0001258 -0.0000047 0.0002135 -0.0000012 0.0001489 -0.0000035 0.0000956 0.0000065 0.0000620 -0.0000154 0.0000684 0.0000217 0.0000419 0.0000043 0.0001734 0.0000100 0.0001564 0.0000023 0.0000700 -0.0000096 0.0000428 -0.0000182 0.0000809 -0.0000051 0.0001316 -0.0000243 0.0001156 -0.0000063 0.0000198 0.0000017 0.0000636 0.0000142 0.0001846 0.0000023 0.0000007 -0.0000147 -0.0000654 0.0000016 -0.0000399 -0.0000232 0.0000256 -0.0000012 -0.0000067 0.0000127 0.0000001 -0.0001677 0.0002248 -0.0000134 0.0001526 0.0000132 -0.0000245 0.0000112 0.0001213 0.0000073 0.0001244 0.0000003 0.0000633 -0.0000008 0.0000997
-0.0000146 0.0001108 0.0000169 0.0000791 -0.0000101 0.0001200 0.0000067 0.0001032 0.0000365 0.0001107 0.0000024 0.0000620 -0.0000019 0.0001996 -0.0000248 0.0000539 -0.0000089 0.0000794 -0.0000212 0.0000364 -0.0000309 0.0000557 0.0000047 0.0000084 0.0000004 0.0002485 0.0000037 0.0001057 -0.0000074 0.0001317 -0.0000120 0.0000242 -0.0000069 0.0000691 -0.0000463 0.0002299 -0.0000087 0.0000858 -0.0000050 0.0000758 -0.0000043 0.0000765 -0.0000117 0.0001948 -0.0000064 0.0001402 0.0000073 0.0000669 -0.0000968 0.0001637 -0.0000087 0.0001210 -0.0000092 0.0001539 -0.0004296 0.0006718 0.0000269 0.0001135 -0.0000717 -0.0000655 -0.0044609 0.0082721 -0.0005191 0.0002543 0.0002239 -0.0004344 -0.0002584 0.0005843 0.0004014 -0.0004218 0.0000093 0.0000864 -0.0000059 0.0000876 -0.0000008 0.0000524 0.0000120 0.0001122 -0.0000219 0.0001551 -0.0000163 0.0001221 -0.0000130 0.0002022 -0.0000077 0.0001478 -0.0000149 0.0000854 0.0000088 0.0000476 -0.0000065 0.0000492 -0.0000142 0.0000486 -0.0000075 0.0000655 0.0000089 0.0001217 -0.0000098 0.0000139 -0.0000164 0.0000249 -0.0000093 0.0000476 -0.0000058 0.0001380 -0.0000513 0.0000840 -0.0000092 -0.0000054 0.0000040 -0.0000231 0.0000083 0.0001536 0.0000240 -0.0001327 -0.0000153 -0.0001736 0.0000209 -0.0001626 0.0000124 -0.0000809 -0.0000188 -0.0000334 -0.0000374 -0.0000260 -0.0001096 0.0000934 -0.0000065 0.0000221 0.0000070 -0.0000426 -0.0000143 -0.0000175 -0.0000278 -0.0000452 0.0000106 -0.0000286 0.0000081 -0.0000503
-0.0000130 -0.0002342 0.0000096 0.0000765 -0.0000040 -0.0001744 -0.0000010 0.0000362 0.0000627 -0.0003103 -0.0000254 -0.0000117 -0.0000007 0.0000332 -0.0000243 -0.0000191 -0.0000288 -0.0000009 -0.0000179 -0.0000019 -0.0000185 -0.0000284 0.0000962 -0.0001895 -0.0000060 0.0000748 0.0000005 0.0000887 -0.0000146 0.0000785 0.0000024 -0.0000379 -0.0000164 -0.0000054 -0.0000382 0.0000495 0.0000080 -0.0000901 -0.0000043 0.0000209 -0.0000025 -0.0000169 -0.0000140 0.0000830 -0.0000039 -0.0000249 0.0000275 -0.0000564 0.0000350 -0.0000863 -0.0000445 0.0000749 0.0000050 -0.0000578 -0.0003008 0.0003532 0.0000480 -0.0000272 0.0000870 -0.0001942 0.0003913 0.0010430 -0.0003419 0.0001128 -0.0001916 0.0000320 -0.0025978 0.0014734 0.0001793 -0.0004480 0.0000132 -0.0000299 -0.0000020 -0.0000642 -0.0000045 -0.0000325 0.0000132 -0.0000724 -0.0000181 0.0000140 -0.0000179 -0.0000098 -0.0000160 -0.0000038 -0.0000124 0.0000213 -0.0000011 -0.0000430 -0.0000067 -0.0000048 0.0000161 -0.0000302 -0.0000190 -0.0000541 -0.0000045 -0.0000493 0.0000030 0.0000205 -0.0000025 -0.0000599 -0.0000193 0.0000114 -0.0000010 -0.0000009 -0.0000174 0.0000980 -0.0000463 0.0000744 -0.0000049 -0.0000180 -0.0000055 0.0000379 0.0000120 0.0001474 0.0000038 0.0001270 -0.0000180 -0.0000830 0.0000204 -0.0000788 0.0000157 0.0000257 -0.0000957 0.0001969 0.0000267 -0.0000279 -0.0000168 0.0001345 0.0000583 0.0001297 0.0000325 -0.0000232 -0.0000300 0.0002704 -0.0000218 0.0002893 0.0000105 0.0001426 -0.0000103 0.0002297
0.0000234 0.0000269 -0.0000301 0.0000987 -0.0000009 0.0000503 0.0000075 0.0000798 -0.0000013 0.0000357 0.0000153 -0.0000163 -0.0000190 0.0001199 0.0000013 0.0000272 -0.0000262 0.0000434 -0.0000156 0.0000533 0.0000023 0.0000214 0.0000261 0.0000330 -0.0000057 0.0001830 -0.0000131 0.0001344 -0.0000033 0.0001207 -0.0000210 0.0000190 -0.0000411 0.0000728 -0.0000279 0.0001603 -0.0000049 0.0000501 -0.0000044 0.0000604 -0.0000029 0.0000728 -0.0000303 0.0001773 -0.0000071 0.0001224 -0.0000045 0.0000598 0.0000882 -0.0000140 0.0000320 0.0000869 -0.0000122 0.0001469 -0.0001518 0.0002477 0.0000039 0.0000917 0.0000195 0.0000641 -0.0023854 0.0019869 -0.0008063 0.0002834 -0.0007234 0.0007588 -0.0011516 0.0001880 -0.0003809 -0.0002005 0.0000094 0.0001512 -0.0000076 0.0001674 -0.0000059 0.0000842 0.0000111 0.0001011 -0.0000297 0.0001568 -0.0000278 0.0001255 -0.0000224 0.0001952 -0.0000245 0.0001521 0.0000015 0.0000375 -0.0000400 0.0000989 -0.0000014 0.0000297 -0.0000181 0.0000176 -0.0000036 0.0001130 0.0000049 0.0001025 -0.0000015 0.0000816 -0.0000317 0.0000641 -0.0000288 0.0000672 -0.0000255 0.0001698 -0.0000400 0.0001202 -0.0000073 0.0000132 -0.0000146 0.0000789 0.0000125 0.0001671 -0.0000140 0.0001589 -0.0000339 -0.0000515 -0.0000070 -0.0000335 0.0000150 0.0000385 -0.0000400 0.0001752 0.0000362 -0.0000126 0.0002299 -0.0000173 0.0000339 0.0001315 0.0000298 -0.0000131 -0.0000423 0.0002867 -0.0000008 0.0002449 0.0000268 0.0001043 -0.0000044 0.0002021
0.0000499 0.0005019 -0.0000180 0.0001951 0.0000162 0.0004374 0.0000117 0.0002147 0.0000163 0.0004674 0.0000088 0.0001522 -0.0000165 0.0004193 -0.0000077 0.0001292 -0.0000427 0.0001917 -0.0000407 0.0001027 -0.0000455 0.0001589 -0.0000990 0.0002987 -0.0000168 0.0003610 -0.0000215 0.0001996 -0.0000054 0.0001790 -0.0000331 0.0000270 -0.0000501 0.0001195 -0.0000442 0.0002859 -0.0000333 0.0002121 -0.0000099 0.0001058 -0.0000030 0.0001211 -0.0000394 0.0002062 0.0000037 0.0001405 -0.0000137 0.0001032 0.0000153 0.0000841 -0.0000646 0.0001090 -0.0000016 0.0001080 -0.0000595 0.0000914 -0.0000174 0.0001255 -0.0000605 0.0001161 0.0012123 -0.0014897 -0.0006434 -0.0001437 -0.0004104 0.0003755 -0.0006034 0.0002219 -0.0002662 -0.0004152 0.0000089 0.0001317 -0.0000079 0.0001442 -0.0000057 0.0000838 0.0000132 0.0000840 -0.0000348 0.0001263 -0.0000249 0.0000796 -0.0000238 0.0001359 -0.0000249 0.0001204 -0.0000018 -0.0000110 -0.0000233 0.0000332 -0.0000088 -0.0000004 -0.0000362 -0.0000156 -0.0000043 0.0000701 0.0000120 0.0001125 -0.0000061 0.0000647 -0.0000392 0.0000153 -0.0000099 0.0000112 -0.0000237 0.0001195 -0.0000567 0.0000204 -0.0000130 -0.0000138 -0.0000135 -0.0000802 0.0000095 0.0001481 -0.0000147 -0.0000098 -0.0000379 -0.0001289 -0.0000260 -0.0001053 0.0000379 -0.0000810 0.0000246 0.0000309 0.0000120 -0.0000815 0.0002462 -0.0000359 -0.0000213 0.0000510 0.0000150 0.0000032 0.0000422 0.0000569 -0.0000310 0.0000588 0.0000103 0.0000055 -0.0000008 0.0000532
0.0000216 0.0002907 0.0000046 0.0001858 0.0000256 0.0002307 0.0000052 0.0001645 0.0000980 0.0001422 -0.0000174 0.0001285 -0.0000050 0.0003209 -0.0000203 0.0000889 -0.0000344 0.0001343 -0.0000299 0.0000669 -0.0000339 0.0001073 -0.0001862 0.0002271 -0.0000273 0.0002754 -0.0000140 0.0001956 -0.0000075 0.0001563 -0.0000304 0.0000177 -0.0000348 0.0000558 -0.0000332 0.0001857 -0.0000426 0.0001394 -0.0000133 0.0000816 -0.0000094 0.0000551 -0.0000306 0.0001350 0.0000134 0.0000117 0.0000002 0.0000010 0.0000682 -0.0000607 -0.0000082 -0.0001029 0.0000198 -0.0001248 -0.0001620 0.0000643 0.0000030 0.0000241 0.0000853 -0.0000513 0.0025890 -0.0020380 -0.0002692 0.0001092 -0.0000325 -0.0003802 -0.0021396 0.0009773 -0.0003325 0.0000277 0.0000140 0.0000421 -0.0000054 0.0000115 -0.0000083 0.0000751 0.0000274 0.0000590 -0.0000349 0.0001767 -0.0000181 0.0000558 -0.0000316 0.0001824 -0.0000181 0.0001285 0.0000050 0.0000149 0.0000025 0.0000335 -0.0000013 -0.0000031 -0.0000443 0.0000162 0.0000054 0.0002123 0.0000013 0.0001510 0.0000028 0.0001967 -0.0000548 0.0001583 -0.0000187 0.0000829 -0.0000495 0.0002449 -0.0000689 0.0002535 -0.0000181 0.0000320 -0.0000062 0.0001773 0.0000071 0.0001910 -0.0000353 0.0003286 -0.0000179 -0.0000191 -0.0000220 -0.0000144 -0.0000007 0.0000884 -0.0000659 0.0002720 0.0000051 0.0000141 0.0000109 0.0003920 -0.0000029 0.0001449 0.0000272 -0.0000272 0.0000511 0.0000717 -0.0000402 0.0001516 -0.0000247 0.0000762 -0.0000104 0.0000752
0.0000235 -0.0001175 -0.0000045 0.0001030 0.0000127 -0.0000649 -0.0000012 0.0000404 0.0000706 -0.0001625 0.0000219 -0.0000523 -0.0000223 0.0000867 -0.0000158 0.0000234 -0.0000171 0.0000317 -0.0000140 0.0000530 -0.0000054 0.0000254 -0.0000643 0.0000421 -0.0000245 0.0001968 -0.0000059 0.0001699 -0.0000020 0.0001268 -0.0000413 0.0000577 -0.0000024 0.0000142 -0.0000255 0.0001587 -0.0000510 0.0001065 -0.0000074 0.0000704 -0.0000114 0.0000777 -0.0000381 0.0001879 0.0000065 0.0000815 -0.0000076 0.0000115 0.0000957 -0.0000890 0.0000793 -0.0001475 0.0000541 -0.0000634 -0.0001890 0.0001980 0.0000180 0.0000596 0.0000860 0.0001794 0.0013287 -0.0050698 -0.0004176 0.0004797 0.0003066 -0.0003543 -0.0013893 0.0004780 -0.0004073 0.0003379 0.0000145 0.0000501 -0.0000122 0.0000252 -0.0000049 0.0001038 0.0000267 0.0001188 -0.0000441 0.0001707 -0.0000196 0.0000656 -0.0000251 0.0002289 -0.0000273 0.0001345 0.0000160 0.0000003 -0.0000075 0.0000408 -0.0000121 -0.0000034 -0.0000476 0.0000131 0.0000063 0.0002560 0.0000043 0.0001952 -0.0000002 0.0002394 -0.0000716 0.0001964 -0.0000386 0.0000890 -0.0000595 0.0003059 -0.0000723 0.0002350 -0.0000214 0.0000420 -0.0000120 0.0001787 -0.0000070 0.0001565 -0.0000420 0.0003273 -0.0000202 -0.0000081 -0.0000325 -0.0000184 -0.0000350 0.0001315 -0.0000584 0.0002234 0.0000311 0.0000271 0.0001662 0.0002678 -0.0000059 0.0001315 -0.0000143 -0.0000058 -0.0000151 0.0000260 -0.0000104 0.0000300 -0.0000094 0.0000195 0.0000041 -0.0000376
0.0000590 0.0003223 -0.0000061 0.0001544 0.0000150 0.0002764 -0.0000033 0.0001650 -0.0000164 0.0003741 0.0000064 0.0000708 -0.0000324 0.0003296 -0.0000402 0.0001396 -0.0000533 0.0001721 -0.0000384 0.0001100 -0.0000519 0.0001579 -0.0001158 0.0002650 -0.0000194 0.0004120 -0.0000250 0.0002450 -0.0000034 0.0002280 -0.0000513 0.0001056 -0.0000022 0.0001319 -0.0000512 0.0004074 -0.0000277 0.0002810 -0.0000092 0.0001500 -0.0000173 0.0002123 -0.0000514 0.0003715 0.0000028 0.0002883 -0.0000008 0.0001983 0.0000312 0.0001336 0.0000726 0.0000943 0.0000184 0.0002167 0.0001147 0.0002336 -0.0000162 0.0002263 0.0000266 0.0003096 -0.0043030 -0.0000281 -0.0002934 0.0004614 0.0010512 -0.0010505 -0.0011290 0.0014064 -0.0006408 0.0006963 0.0000156 -0.0000070 -0.0000120 -0.0000406 -0.0000004 0.0000674 0.0000291 0.0000631 -0.0000467 0.0000860 -0.0000168 -0.0000086 -0.0000221 0.0001305 -0.0000321 0.0000600 0.0000202 -0.0000855 -0.0000265 0.0000101 -0.0000164 -0.0000409 -0.0000186 -0.0000937 -0.0000003 0.0001302 0.0000124 0.0001828 -0.0000077 0.0001405 -0.0000800 0.0001323 -0.0000233 0.0000166 -0.0000529 0.0002583 -0.0000794 0.0000974 -0.0000206 0.0000126 -0.0000124 0.0000329 -0.0000165 0.0000854 -0.0000449 0.0001654 -0.0000169 -0.0000788 -0.0000221 -0.0000943 -0.0000195 0.0000286 -0.0000205 0.0000732 -0.0000577 0.0000901 0.0002575 0.0000287 -0.0000078 0.0001074 -0.0000627 0.0000757 0.0000168 0.0001320 -0.0000023 0.0001635 0.0000121 0.0000743 -0.0000169 0.0001636
0.0000383 0.0002136 -0.0000018 0.0001906 -0.0000123 0.0001788 -0.0000066 0.0001735 -0.0000796 0.0002254 -0.0000156 0.0000867 -0.0000227 0.0003351 -0.0000495 0.0000931 -0.0000427 0.0001681 -0.0000558 0.0000917 -0.0000549 0.0001358 -0.0000547 0.0001316 -0.0000293 0.0003753 -0.0000314 0.0002515 0.0000012 0.0002738 -0.0000448 0.0000830 -0.0000300 0.0001347 -0.0000625 0.0003944 -0.0000473 0.0002184 -0.0000125 0.0001462 -0.0000329 0.0001947 -0.0000350 0.0003397 -0.0000012 0.0001830 0.0000531 0.0000998 0.0000845 0.0000913 0.0001374 0.0000394 -0.0000507 0.0001603 0.0004043 -0.0001746 -0.0000098 0.0001587 -0.0001736 0.0004137 -0.0106868 0.0122160 -0.0002042 0.0003791 0.0006322 -0.0007277 0.0010161 -0.0007737 0.0001359 0.0000059 0.0000153 0.0001545 -0.0000094 0.0001526 -0.0000121 0.0002002 0.0000339 0.0002662 -0.0000543 0.0003523 -0.0000288 0.0001757 -0.0000363 0.0004502 -0.0000401 0.0002692 0.0000101 0.0000881 -0.0000311 0.0001369 -0.0000103 0.0000503 0.0000216 0.0000303 0.0000058 0.0003803 0.0000063 0.0003013 -0.0000029 0.0003576 -0.0000973 0.0002911 -0.0000330 0.0001342 -0.0000611 0.0004232 -0.0000826 0.0003337 -0.0000242 0.0000764 -0.0000136 0.0002413 -0.0000126 0.0001357 -0.0000338 0.0001722 -0.0000187 -0.0000605 0.0000023 -0.0000916 0.0000057 -0.0000056 0.0000215 0.0000046 -0.0000533 0.0000850 -0.0001385 0.0001828 -0.0000166 0.0000673 -0.0000257 0.0000162 0.0000650 0.0000407 0.0000103 0.0001009 -0.0000086 0.0000730 -0.0000028 0.0001139
0.0000411 -0.0002556 0.0000001 0.0001120 -0.0000456 -0.0001519 -0.0000095 0.0000514 -0.0001330 -0.0002264 0.0000071 -0.0000747 -0.0000156 0.0000853 -0.0000307 -0.0000286 0.0000027 0.0000014 -0.0000434 0.0000312 -0.0000423 0.0000270 0.0000334 -0.0000922 -0.0000266 0.0001178 -0.0000296 0.0001699 0.0000103 0.0002304 -0.0000260 -0.0000097 -0.0000185 -0.0000193 -0.0000274 0.0001588 -0.0000724 0.0000376 -0.0000088 0.0000645 -0.0000299 0.0001059 -0.0000071 0.0002129 0.0000170 -0.0000333 0.0000618 -0.0001338 0.0001311 -0.0001201 0.0000837 -0.0001041 -0.0000086 -0.0000999 0.0002068 -0.0002673 -0.0000151 0.0000176 -0.0000454 0.0002486 -0.0084856 0.0119231 0.0003538 -0.0002943 0.0003169 -0.0002829 0.0033745 -0.0037943 -0.0002776 0.0002307 0.0000148 0.0001505 -0.0000106 0.0001476 -0.0000141 0.0002119 0.0000343 0.0002881 -0.0000616 0.0003520 -0.0000307 0.0001642 -0.0000430 0.0004504 -0.0000414 0.0002592 0.0000008 0.0000685 -0.0000240 0.0001003 -0.0000092 0.0000287 0.0000359 -0.0000044 0.0000064 0.0003523 0.0000037 0.0002915 -0.0000083 0.0003390 -0.0001073 0.0002705 -0.0000404 0.0001340 -0.0000640 0.0004054 -0.0000818 0.0002732 -0.0000254 0.0000596 -0.0000187 0.0001590 -0.0000095 0.0001573 -0.0000216 0.0000466 -0.0000238 -0.0000966 -0.0000000 -0.0001265 -0.0000092 -0.0000995 0.0000662 -0.0001241 0.0000681 -0.0000965 -0.0001227 0.0000653 -0.0000406 0.0000145 -0.0000454 -0.0000237 0.0000790 -0.0001398 0.0000196 -0.0000785 0.0000029 -0.0000329 0.0000096 -0.0000667
0.0000212 0.0000286 -0.0000332 0.0001070 -0.0000310 0.0000760 -0.0000057 0.0000998 -0.0000170 0.0000237 0.0000065 -0.0000387 -0.0000429 0.0001884 -0.0000152 0.0000403 -0.0000278 0.0000525 -0.0000373 0.0000584 -0.0000516 0.0001004 -0.0000254 0.0000933 -0.0000179 0.0002207 -0.0000323 0.0001709 0.0000151 0.0002898 -0.0000184 -0.0000026 -0.0000126 0.0000518 -0.0000412 0.0003158 -0.0000504 0.0001628 -0.0000103 0.0001082 -0.0000287 0.0001815 -0.0000040 0.0003548 0.0000255 0.0001200 0.0000447 -0.0000347 0.0000042 0.0000496 0.0000002 0.0001265 0.0000413 0.0000452 0.0000267 0.0002044 -0.0000249 0.0001192 0.0001238 0.0001895 0.0019918 -0.0051955 0.0000435 0.0002900 -0.0000835 0.0000089 0.0016160 -0.0031262 -0.0009951 0.0006924 0.0000143 0.0000545 -0.0000033 0.0000181 -0.0000121 0.0001445 0.0000395 0.0001741 -0.0000525 0.0002132 -0.0000219 0.0000453 -0.0000407 0.0002601 -0.0000394 0.0001301 0.0000007 -0.0000547 -0.0000393 0.0000221 -0.0000038 -0.0000511 -0.0000001 -0.0000824 0.0000053 0.0001819 -0.0000034 0.0001769 -0.0000166 0.0001821 -0.0001142 0.0002030 -0.0000326 0.0000850 -0.0000741 0.0003171 -0.0000857 0.0002024 -0.0000232 0.0000291 -0.0000189 0.0001227 -0.0000007 0.0002056 -0.0000398 0.0002406 -0.0000046 -0.0000063 0.0000144 -0.0000478 -0.0000616 0.0000243 0.0000380 0.0000454 0.0001159 -0.0000304 0.0001923 -0.0000586 -0.0000324 0.0001774 -0.0000816 -0.0000085 0.0000174 0.0000555 0.0000125 0.0001841 0.0000175 0.0000103 -0.0000100 0.0000539
0.0000163 0.0005818 -0.0000326 0.0001968 -0.0000197 0.0005184 -0.0000071 0.0002795 0.0000333 0.0005405 -0.0000285 0.0001570 -0.0000736 0.0005445 -0.0000405 0.0001806 -0.0000987 0.0002720 -0.0000681 0.0001209 -0.0000973 0.0002624 -0.0000982 0.0002984 -0.0000201 0.0004250 -0.0000471 0.0002293 0.0000177 0.0004144 -0.0000509 0.0000353 -0.0000253 0.0001889 -0.0000556 0.0005306 -0.0000588 0.0003300 -0.0000127 0.0001753 -0.0000481 0.0002594 0.0000102 0.0004465 0.0000102 0.0001880 0.0000297 0.0000580 0.0000463 0.0001011 0.0000621 0.0000801 -0.0000496 0.0000917 0.0000376 0.0002358 0.0000317 0.0001025 -0.0000258 0.0002650 -0.0010410 -0.0062062 -0.0000766 0.0005470 -0.0007954 0.0006400 0.0010293 -0.0024927 0.0006223 -0.0008379 0.0000117 0.0000780 -0.0000002 0.0000587 -0.0000158 0.0001659 0.0000411 0.0001739 -0.0000515 0.0001621 -0.0000139 0.0000112 -0.0000316 0.0002083 -0.0000478 0.0000846 0.0000091 -0.0001017 -0.0000334 -0.0000373 -0.0000029 -0.0000743 -0.0000122 -0.0001228 0.0000034 0.0001124 -0.0000057 0.0001144 -0.0000182 0.0001161 -0.0001178 0.0001493 -0.0000397 0.0000641 -0.0000745 0.0002655 -0.0000892 0.0001036 -0.0000189 -0.0000028 -0.0000260 0.0000285 0.0000099 0.0002101 -0.0000324 0.0001417 0.0000182 -0.0000653 0.0000292 -0.0000808 -0.0000346 -0.0000064 0.0000088 0.0000346 0.0000691 0.0000004 -0.0000011 0.0000250 -0.0000550 0.0001203 -0.0000747 -0.0000186 -0.0000556 -0.0000137 0.0000019 0.0000801 0.0000189 -0.0000720 0.0000175 -0.0000844
0.0000152 0.0002911 0.0000201 0.0001522 -0.0000264 0.0002873 -0.0000092 0.0002330 0.0000135 0.0002834 -0.0000157 0.0000881 -0.0000634 0.0004353 -0.0000501 0.0001035 -0.0000921 0.0002090 -0.0000643 0.0000750 -0.0001138 0.0002029 -0.0001181 0.0002077 -0.0000213 0.0003078 -0.0000494 0.0001937 0.0000248 0.0004208 -0.0000426 -0.0000183 -0.0000360 0.0001289 -0.0000282 0.0003960 -0.0000573 0.0001947 -0.0000072 0.0001494 -0.0000629 0.0002123 0.0000307 0.0003834 0.0000153 0.0000591 0.0000240 -0.0000219 0.0001621 -0.0000684 0.0000872 0.0000150 -0.0000476 -0.0001536 0.0000091 0.0000852 0.0000023 0.0000210 -0.0000754 0.0001515 -0.0083910 0.0059630 -0.0004860 0.0005585 -0.0001018 -0.0000717 0.0008027 0.0000664 0.0004944 -0.0005541 0.0000117 -0.0000174 0.0000015 -0.0000686 -0.0000159 0.0001032 0.0000411 0.0000613 -0.0000498 0.0000155 0.0000020 -0.0001338 -0.0000270 0.0000150 -0.0000432 -0.0000560 0.0000046 -0.0002066 -0.0000150 -0.0001513 0.0000003 -0.0001402 0.0000059 -0.0002669 -0.0000015 -0.0001433 -0.0000071 -0.0000244 -0.0000369 -0.0001104 -0.0001158 0.0000082 -0.0000163 -0.0000455 -0.0000633 0.0001319 -0.0000732 -0.0001048 -0.0000156 -0.0000787 -0.0000282 -0.0001858 0.0000202 0.0001774 -0.0000113 -0.0000977 0.0000367 -0.0001938 0.0000471 -0.0002045 0.0000071 -0.0001818 -0.0000527 -0.0000979 0.0000156 -0.0000847 -0.0002092 0.0001580 -0.0000004 -0.0001049 -0.0000441 -0.0000602 -0.0000042 -0.0001587 -0.0000196 -0.0000647 0.0000125 -0.0001252 0.0000159 -0.0001348
0.0000160 -0.0002013 0.0000172 0.0000689 -0.0000260 -0.0000973 -0.0000058 0.0001111 -0.0000166 -0.0001605 0.0000319 -0.0001055 -0.0000505 0.0001602 -0.0000300 -0.0000239 -0.0000857 0.0000415 -0.0000313 0.0000074 -0.0000723 0.0000565 -0.0001928 0.0001725 -0.0000258 0.0001672 -0.0000485 0.0001438 0.0000203 0.0003721 -0.0000324 -0.0000389 -0.0000171 0.0000284 -0.0000410 0.0002792 -0.0000226 0.0000374 -0.0000015 0.0001185 -0.0000449 0.0001673 0.0000225 0.0004016 0.0000272 0.0000761 -0.0000005 -0.0000479 0.0000803 -0.0000236 0.0000950 0.0001299 -0.0000024 -0.0001394 -0.0001702 0.0003317 -0.0000282 0.0000547 -0.0001659 0.0003289 -0.0077479 0.0018892 -0.0004212 0.0005288 0.0005521 -0.0004376 -0.0002566 0.0018431 -0.0009239 0.0008782 0.0000139 0.0000171 0.0000036 -0.0000683 -0.0000139 0.0001349 0.0000471 0.0001429 -0.0000424 0.0001482 -0.0000001 -0.0000606 -0.0000323 0.0001675 -0.0000388 0.0000370 0.0000032 -0.0000996 -0.0000133 -0.0000809 -0.0000076 -0.0000856 0.0000010 -0.0001617 -0.0000050 -0.0000487 -0.0000249 -0.0000320 -0.0000447 -0.0000568 -0.0001307 0.0001300 -0.0000074 0.0000303 -0.0000894 0.0002504 -0.0000689 0.0001606 -0.0000128 -0.0000363 -0.0000235 0.0001058 0.0000251 0.0002585 -0.0000104 0.0001936 0.0000422 -0.0000708 0.0000401 -0.0000884 0.0000258 -0.0001169 0.0000004 -0.0001144 0.0000926 -0.0001198 -0.0001227 0.0000874 0.0000022 -0.0001333 -0.0000119 -0.0000959 0.0000362 -0.0002776 -0.0000266 -0.0001329 0.0000141 -0.0001690 0.0000180 -0.0002121
0.0000563 0.0001407 -0.0000051 0.0001158 -0.0000458 0.0002587 -0.0000194 0.0002613 -0.0000225 0.0002751 0.0000013 0.0000174 -0.0000737 0.0004058 -0.0000381 0.0000771 -0.0001105 0.0001396 -0.0000377 0.0000578 -0.0000565 0.0001222 -0.0002127 0.0002890 -0.0000275 0.0003754 -0.0000621 0.0001967 0.0000186 0.0004321 -0.0000543 0.0000230 0.0000041 0.0001058 -0.0000607 0.0004811 -0.0000318 0.0002213 -0.0000082 0.0001809 -0.0000369 0.0002808 0.0000048 0.0005405 0.0000229 0.0002812 -0.0000237 0.0000738 -0.0000633 0.0002321 0.0001819 0.0001457 0.0000117 0.0000326 -0.0001300 0.0006411 -0.0000451 0.0001690 -0.0003584 0.0005221 -0.0098854 0.0025207 0.0003162 -0.0002753 0.0006717 -0.0007058 0.0000524 0.0011002 -0.0011736 0.0010393 0.0000155 -0.0000313 -0.0000030 -0.0001333 -0.0000106 0.0001092 0.0000425 0.0001168 -0.0000338 0.0000801 0.0000034 -0.0001099 -0.0000242 0.0001030 -0.0000351 -0.0000342 0.0000139 -0.0001547 -0.0000196 -0.0001315 -0.0000141 -0.0001162 0.0000062 -0.0002081 -0.0000167 -0.0001632 -0.0000253 -0.0001116 -0.0000466 -0.0001592 -0.0001384 0.0000629 -0.0000200 -0.0000041 -0.0000887 0.0001811 -0.0000552 0.0000418 -0.0000140 -0.0000905 -0.0000266 0.0000051 0.0000244 0.0002214 0.0000114 0.0000571 0.0000575 -0.0001681 0.0000255 -0.0001474 0.0000127 -0.0002066 0.0000942 -0.0003221 0.0001547 -0.0002391 0.0000811 -0.0001971 -0.0000205 -0.0002346 -0.0000056 -0.0001164 -0.0000038 -0.0004593 -0.0000120 -0.0003773 0.0000106 -0.0002977 0.0000238 -0.0004145
-0.0000029 0.0000710 -0.0000332 0.0001397 -0.0000565 0.0001994 -0.0000169 0.0002746 0.0000167 0.0001010 -0.0000074 0.0000173 -0.0000739 0.0004448 -0.0000474 0.0000422 -0.0000940 0.0000998 -0.0000606 0.0000345 -0.0000767 0.0000993 -0.0002243 0.0001925 -0.0000293 0.0003689 -0.0000520 0.0001607 0.0000232 0.0003861 -0.0000417 -0.0000420 0.0000058 0.0000692 -0.0000425 0.0003925 -0.0000464 0.0001676 -0.0000111 0.0001638 -0.0000315 0.0002401 -0.0000022 0.0004956 0.0000213 0.0002125 -0.0000498 0.0000711 0.0000011 0.0001245 0.0001342 0.0000670 0.0000176 -0.0000892 0.0000072 0.0003780 -0.0000276 0.0000765 -0.0002619 0.0003248 -0.0060084 0.0022943 0.0005246 -0.0004269 0.0002285 -0.0006629 0.0013227 -0.0024088 -0.0009144 0.0007065 0.0000182 -0.0001716 -0.0000065 -0.0003264 -0.0000068 0.0000034 0.0000394 -0.0000584 -0.0000117 -0.0001295 0.0000172 -0.0002876 -0.0000124 -0.0001688 -0.0000195 -0.0002379 0.0000082 -0.0003104 -0.0000093 -0.0002722 -0.0000006 -0.0002311 -0.0000059 -0.0003460 -0.0000271 -0.0005080 -0.0000239 -0.0003054 -0.0000636 -0.0004480 -0.0001324 -0.0001265 -0.0000118 -0.0001504 -0.0000656 -0.0000104 -0.0000294 -0.0002137 -0.0000181 -0.0002067 -0.0000176 -0.0002507 0.0000219 0.0001209 0.0000261 -0.0002006 0.0000701 -0.0003139 0.0000415 -0.0002806 -0.0000058 -0.0003067 0.0001049 -0.0004637 0.0000418 -0.0001935 0.0004031 -0.0004240 0.0000016 -0.0002026 -0.0000160 -0.0000976 0.0000217 -0.0003241 -0.0000104 -0.0001946 0.0000272 -0.0002421 0.0000150 -0.0002680
-0.0000364 -0.0002513 -0.0000338 0.0000691 -0.0000652 -0.0000637 -0.0000137 0.0001950 0.0000495 -0.0002932 0.0000230 -0.0001167 -0.0000616 0.0002548 -0.0000177 -0.0000602 -0.0000931 -0.0000158 -0.0000591 -0.0000358 -0.0000864 0.0000153 -0.0003129 0.0002372 -0.0000247 0.0002175 -0.0000346 0.0000922 0.0000203 0.0002885 -0.0000133 -0.0001422 0.0000242 -0.0000361 -0.0000167 0.0001936 0.0000044 -0.0000396 -0.0000024 0.0000866 -0.0000151 0.0001115 0.0000021 0.0003841 0.0000244 0.0000595 -0.0000289 -0.0000523 -0.0000277 0.0000727 0.0001323 -0.0000526 -0.0000243 -0.0002181 0.0000284 -0.0000100 0.0000209 -0.0000583 -0.0001074 0.0002170 -0.0055495 0.0046395 -0.0000471 0.0001731 -0.0010491 0.0008564 -0.0005186 -0.0008918 -0.0003834 0.0010184 0.0000166 -0.0000470 -0.0000101 -0.0002063 -0.0000049 0.0000838 0.0000453 0.0000805 -0.0000126 0.0000587 0.0000156 -0.0001651 -0.0000125 0.0000250 -0.0000183 -0.0001065 0.0000078 -0.0001782 0.0000027 -0.0001868 0.0000111 -0.0001702 -0.0000359 -0.0002049 -0.0000213 -0.0003234 -0.0000369 -0.0002456 -0.0000572 -0.0002760 -0.0001353 0.0000059 0.0000015 -0.0000753 -0.0000812 0.0001305 -0.0000330 0.0000746 -0.0000181 -0.0001664 0.0000045 0.0000015 0.0000220 0.0001681 0.0000361 -0.0000891 0.0000921 -0.0002995 0.0000495 -0.0002462 0.0000293 -0.0003039 0.0000885 -0.0004278 0.0000173 -0.0001592 0.0001285 -0.0001764 0.0000732 -0.0002914 -0.0000362 -0.0000737 0.0000262 -0.0003727 -0.0000093 -0.0002467 0.0000328 -0.0002889 0.0000271 -0.0003387
0.0000004 0.0000074 -0.0000590 0.0000910 -0.0000219 0.0001598 -0.0000145 0.0002906 0.0000605 0.0000725 0.0000403 -0.0000556 -0.0000618 0.0003820 -0.0000146 0.0000066 -0.0001191 0.0000634 -0.0000519 -0.0000167 -0.0000815 0.0000681 -0.0002038 0.0002719 -0.0000197 0.0003734 -0.0000347 0.0001284 0.0000127 0.0003309 -0.0000270 -0.0000823 0.0000338 0.0000378 -0.0000142 0.0003292 0.0000192 0.0001051 -0.0000042 0.0001202 -0.0000202 0.0001866 0.0000044 0.0004873 0.0000248 0.0002169 0.0000135 0.0000403 -0.0001142 0.0002932 0.0001939 0.0000472 0.0000741 -0.0001138 -0.0000560 0.0004286 0.0000049 0.0000810 -0.0001794 0.0005407 0.0019177 -0.0039482 -0.0001746 0.0002129 -0.0011252 0.0012571 0.0000025 -0.0000920 0.0003372 0.0002464 0.0000174 -0.0000922 -0.0000095 -0.0002873 0.0000012 0.0000582 0.0000465 0.0000282 -0.0000095 -0.0000151 0.0000224 -0.0002428 -0.0000042 -0.0000842 -0.0000145 -0.0001814 0.0000292 -0.0002645 0.0000122 -0.0002763 -0.0000023 -0.0002115 -0.0000197 -0.0002935 -0.0000247 -0.0004136 -0.0000368 -0.0002929 -0.0000606 -0.0003339 -0.0001157 -0.0000976 0.0000149 -0.0001517 -0.0000643 0.0000333 -0.0000148 -0.0000614 -0.0000164 -0.0002363 0.0000095 -0.0001403 0.0000254 0.0001448 0.0000493 -0.0002466 0.0001147 -0.0003969 0.0000672 -0.0003425 0.0000201 -0.0004050 0.0000369 -0.0005244 0.0001733 -0.0003316 -0.0000531 -0.0001449 0.0000310 -0.0003919 -0.0000260 -0.0000926 0.0000133 -0.0005373 0.0000199 -0.0004910 0.0000126 -0.0004068 0.0000307 -0.0005327
0.0000021 0.0004031 -0.0000677 0.0001811 -0.0000223 0.0003910 -0.0000148 0.0004137 -0.0000110 0.0003027 0.0000418 0.0000730 -0.0000432 0.0005923 -0.0000523 0.0000628 -0.0001115 0.0001481 -0.0000674 -0.0000431 -0.0000894 0.0000822 -0.0002154 0.0002521 -0.0000373 0.0004702 -0.0000419 0.0001581 0.0000075 0.0003600 -0.0000519 -0.0000905 0.0000280 0.0000501 -0.0000009 0.0003126 -0.0000085 0.0001612 -0.0000071 0.0001265 -0.0000238 0.0001731 0.0000110 0.0004906 0.0000167 0.0002132 0.0000021 0.0000538 0.0000087 0.0002103 0.0001303 0.0000583 0.0000160 -0.0000706 -0.0002037 0.0005338 -0.0000101 0.0000699 -0.0001394 0.0004360 0.0016194 -0.0029947 0.0001637 0.0000381 -0.0000885 0.0000802 0.0013580 -0.0021020 -0.0002489 0.0001283 0.0000253 -0.0002270 0.0000004 -0.0004919 0.0000187 -0.0000536 0.0000524 -0.0001481 0.0000197 -0.0002175 0.0000411 -0.0004288 0.0000146 -0.0003591 0.0000068 -0.0003731 0.0000376 -0.0004374 -0.0000076 -0.0003727 0.0000062 -0.0003234 -0.0000242 -0.0004298 -0.0000375 -0.0007036 -0.0000334 -0.0004576 -0.0000740 -0.0005764 -0.0000913 -0.0002882 0.0000273 -0.0002834 -0.0000348 -0.0001639 0.0000314 -0.0003096 -0.0000105 -0.0003490 0.0000096 -0.0003219 0.0000273 0.0000836 0.0000589 -0.0002583 0.0001198 -0.0003718 0.0000777 -0.0003383 -0.0000096 -0.0003775 0.0000786 -0.0005297 0.0001343 -0.0002638 -0.0001737 -0.0000585 -0.0000368 -0.0002187 -0.0000512 -0.0000460 0.0000282 -0.0003596 0.0000235 -0.0002447 0.0000027 -0.0002603 0.0000207 -0.0003322
0.0000331 -0.0000065 -0.0000266 0.0000788 -0.0000962 0.0001627 -0.0000288 0.0003460 -0.0000227 -0.0000545 0.0000169 -0.0000283 -0.0000359 0.0003958 -0.0000398 -0.0000371 -0.0000824 0.0000119 -0.0000633 -0.0001162 -0.0000655 -0.0000398 -0.0002423 0.0001166 -0.0000406 0.0002983 -0.0000363 0.0001031 0.0000047 0.0002948 -0.0000264 -0.0001794 0.0000149 -0.0000403 0.0000371 0.0000722 0.0000018 -0.0000399 -0.0000054 0.0000446 -0.0000251 0.0000476 0.0000199 0.0003726 0.0000119 0.0000461 -0.0000439 -0.0000736 -0.0000150 0.0001117 0.0000403 -0.0000425 -0.0000839 -0.0002269 -0.0001626 0.0002606 -0.0000318 -0.0000751 -0.0001033 0.0001133 -0.0103122 0.0085418 -0.0000231 -0.0000032 -0.0002017 -0.0001379 0.0009054 -0.0012739 -0.0012155 0.0011516 0.0000243 -0.0000659 -0.0000006 -0.0003153 0.0000223 0.0000589 0.0000570 0.0000692 0.0000264 0.0000077 0.0000395 -0.0002387 0.0000180 -0.0000778 0.0000111 -0.0001797 0.0000312 -0.0002551 0.0000078 -0.0002194 0.0000276 -0.0002370 -0.0000142 -0.0002709 -0.0000314 -0.0004528 -0.0000317 -0.0003352 -0.0000606 -0.0003648 -0.0000928 -0.0001724 0.0000134 -0.0001735 -0.0000299 -0.0000478 0.0000457 -0.0001261 -0.0000076 -0.0003053 0.0000076 -0.0001567 0.0000270 0.0001052 0.0000725 -0.0002330 0.0001309 -0.0003588 0.0000727 -0.0002886 0.0000197 -0.0003917 0.0000697 -0.0004928 0.0000474 -0.0001516 -0.0001422 -0.0000365 -0.0000320 -0.0002782 -0.0000829 -0.0000230 0.0000458 -0.0004393 0.0000127 -0.0002739 -0.0000182 -0.0002556 0.0000191 -0.0003607
0.0000476 -0.0004281 -0.0000307 -0.0000851 -0.0000818 -0.0000143 -0.0000274 0.0002760 0.0000147 -0.0001364 -0.0000066 -0.0001395 -0.0000447 0.0002164 -0.0000107 -0.0000983 -0.0000778 -0.0001008 -0.0000559 -0.0001367 -0.0000656 -0.0000766 -0.0001278 -0.0000122 -0.0000063 0.0002412 -0.0000423 0.0000799 -0.0000043 0.0002503 -0.0000097 -0.0001995 -0.0000171 -0.0000306 0.0000148 0.0000852 0.0000405 -0.0001013 -0.0000086 0.0000123 -0.0000337 0.0000589 0.0000176 0.0003783 -0.0000001 0.0001099 -0.0000803 -0.0000204 0.0000180 0.0000871 0.0000012 0.0000348 -0.0000943 -0.0001780 -0.0000439 0.0002629 -0.0000373 -0.0000607 -0.0001320 0.0002145 -0.0019367 0.0006844 -0.0000493 -0.0000331 -0.0007331 0.0005935 -0.0014383 0.0021194 0.0001053 -0.0001702 0.0000243 -0.0000963 0.0000001 -0.0003595 0.0000221 0.0000490 0.0000510 0.0000606 0.0000254 -0.0000525 0.0000450 -0.0002755 0.0000344 -0.0001428 0.0000173 -0.0002289 0.0000356 -0.0002879 0.0000497 -0.0002901 0.0000088 -0.0002592 0.0000079 -0.0003255 -0.0000323 -0.0005000 -0.0000167 -0.0003215 -0.0000515 -0.0003933 -0.0000694 -0.0002503 0.0000236 -0.0002343 -0.0000111 -0.0001234 0.0000490 -0.0002575 -0.0000057 -0.0003562 0.0000091 -0.0002967 0.0000278 0.0000431 0.0000778 -0.0003869 0.0001492 -0.0004474 0.0000834 -0.0003723 -0.0000102 -0.0004270 0.0000261 -0.0005877 0.0000635 -0.0001905 -0.0001859 -0.0000480 -0.0000128 -0.0004031 -0.0000479 -0.0001154 0.0000265 -0.0005770 0.0000193 -0.0004587 0.0000009 -0.0003883 0.0000264 -0.0005312
-0.0000204 0.0000499 -0.0000572 -0.0000600 -0.0000354 0.0002931 -0.0000239 0.0004060 0.0000178 0.0003145 -0.0000186 -0.0000118 -0.0000300 0.0004345 -0.0000240 -0.0000040 -0.0000961 0.0000210 -0.0000751 -0.0001085 -0.0001092 0.0000280 -0.0001842 0.0001208 -0.0000025 0.0004944 -0.0000529 0.0001350 -0.0000077 0.0002835 -0.0000069 -0.0002153 -0.0000530 0.0001127 -0.0000132 0.0003037 0.0000060 0.0001288 -0.0000177 0.0000768 -0.0000492 0.0001834 0.0000061 0.0005191 -0.0000152 0.0003358 -0.0000341 0.0000818 0.0000489 0.0001916 -0.0000512 0.0001586 -0.0001511 0.0000337 -0.0000623 0.0003072 -0.0000155 0.0000417 0.0000441 0.0001341 -0.0012504 0.0027109 -0.0001831 0.0001899 -0.0005086 0.0002733 -0.0029496 0.0023619 0.0002243 -0.0004111 0.0000267 -0.0002003 -0.0000023 -0.0005048 0.0000286 -0.0000355 0.0000538 -0.0000770 0.0000319 -0.0002021 0.0000536 -0.0004146 0.0000496 -0.0003561 0.0000357 -0.0003875 0.0000430 -0.0003968 0.0000656 -0.0003995 -0.0000049 -0.0003178 0.0000051 -0.0004385 -0.0000291 -0.0006658 -0.0000050 -0.0004032 -0.0000460 -0.0005126 -0.0000358 -0.0003277 0.0000340 -0.0003008 0.0000029 -0.0002143 0.0000673 -0.0003182 0.0000049 -0.0004081 0.0000178 -0.0002740 0.0000289 0.0000172 0.0000798 -0.0002043 0.0001516 -0.0003156 0.0000896 -0.0002843 -0.0000574 -0.0002249 0.0000390 -0.0004594 0.0001112 -0.0001188 -0.0001566 0.0000297 -0.0000372 -0.0001855 -0.0000085 -0.0001084 -0.0000679 -0.0002121 -0.0000007 -0.0001119 0.0000065 -0.0002242 0.0000329 -0.0002878
-0.0001097 -0.0000332 -0.0000438 -0.0000604 -0.0000518 0.0001681 -0.0000206 0.0003774 -0.0000551 0.0001236 -0.0000264 -0.0000400 -0.0000229 0.0004036 -0.0000320 -0.0000699 -0.0000702 -0.0000330 -0.0000847 -0.0001560 -0.0000976 -0.0000485 -0.0002542 0.0000554 -0.0000146 0.0004571 -0.0000407 0.0000892 -0.0000061 0.0002424 0.0000299 -0.0003141 -0.0000433 0.0000395 0.0000223 0.0001902 0.0000042 0.0000392 -0.0000129 0.0000341 -0.0000334 0.0000986 0.0000050 0.0004468 -0.0000106 0.0002217 -0.0000222 -0.0000087 -0.0000906 0.0003115 -0.0001697 0.0000699 -0.0001074 -0.0001275 -0.0002282 0.0004515 0.0000063 -0.0000440 0.0000272 0.0000417 0.0014027 -0.0012397 -0.0004871 0.0001721 0.0004273 -0.0006206 0.0011021 -0.0018848 -0.0002067 0.0001912 0.0000231 0.0000013 -0.0000103 -0.0002481 0.0000255 0.0001108 0.0000592 0.0001695 0.0000269 0.0000477 0.0000400 -0.0001793 0.0000421 -0.0000286 0.0000321 -0.0001578 0.0000340 -0.0001862 0.0000546 -0.0002308 0.0000239 -0.0002128 0.0000175 -0.0002477 -0.0000154 -0.0003911 0.0000047 -0.0002526 -0.0000292 -0.0002711 -0.0000316 -0.0002312 0.0000317 -0.0002035 0.0000155 -0.0001181 0.0000558 -0.0001570 0.0000118 -0.0003551 0.0000158 -0.0001654 0.0000302 0.0000367 0.0000858 -0.0001863 0.0001439 -0.0002520 0.0000829 -0.0002237 -0.0000635 -0.0001517 -0.0000113 -0.0003608 0.0001100 -0.0000553 -0.0000306 0.0000135 -0.0001154 -0.0001266 -0.0000102 -0.0000794 -0.0001167 -0.0001618 -0.0000008 -0.0001478 -0.0000231 -0.0001878 0.0000350 -0.0002946
-0.0001141 -0.0004566 -0.0000301 -0.0001714 -0.0000668 -0.0001549 -0.0000209 0.0002543 -0.0000258 -0.0003269 -0.0000223 -0.0001916 -0.0000200 0.0001691 -0.0000130 -0.0002063 -0.0000366 -0.0002103 -0.0000799 -0.0002307 -0.0000529 -0.0002064 -0.0003050 -0.0001052 -0.0000058 0.0002177 -0.0000243 -0.0000016 -0.0000141 0.0001246 0.0000488 -0.0003931 -0.0000213 -0.0001270 0.0000522 -0.0000221 0.0000537 -0.0002093 -0.0000035 -0.0000654 -0.0000054 -0.0000599 0.0000126 0.0002735 -0.0000088 0.0000362 -0.0000785 -0.0000588 -0.0000927 0.0002065 -0.0002605 0.0000205 -0.0000779 -0.0002613 -0.0001974 0.0003649 0.0000546 -0.0001942 -0.0001801 0.0001781 -0.0003439 -0.0099809 -0.0008668 0.0004290 0.0000596 -0.0003060 0.0002787 -0.0001541 0.0004732 -0.0004684 0.0000232 -0.0000200 -0.0000053 -0.0002535 0.0000261 0.0001035 0.0000572 0.0001648 0.0000320 -0.0000107 0.0000421 -0.0001996 0.0000511 -0.0000854 0.0000415 -0.0001948 0.0000228 -0.0001917 0.0000371 -0.0002685 0.0000334 -0.0002525 0.0000341 -0.0002944 -0.0000089 -0.0003885 0.0000141 -0.0002364 -0.0000164 -0.0002796 -0.0000094 -0.0003079 0.0000433 -0.0002449 0.0000434 -0.0002104 0.0000635 -0.0002947 0.0000059 -0.0003742 0.0000165 -0.0003246 0.0000346 -0.0000096 0.0001019 -0.0003618 0.0001602 -0.0003272 0.0000881 -0.0002947 -0.0000593 -0.0002370 -0.0000222 -0.0004075 -0.0000128 -0.0000134 -0.0000835 -0.0000394 -0.0000560 -0.0002313 -0.0000247 -0.0000969 -0.0000884 -0.0003139 -0.0000080 -0.0003378 -0.0000253 -0.0002885 0.0000228 -0.0004260
-0.0000513 -0.0002621 -0.0000550 -0.0002001 -0.0000599 0.0000350 -0.0000262 0.0003069 0.0000176 -0.0000390 0.0000110 -0.0001863 -0.0000196 0.0002522 -0.0000182 -0.0001518 -0.0000642 -0.0001553 -0.0000605 -0.0002510 -0.0000714 -0.0001643 -0.0002696 -0.0000761 0.0000086 0.0003156 -0.0000327 0.0000228 -0.0000161 0.0001213 0.0000222 -0.0003507 0.0000010 -0.0000729 0.0000126 0.0001006 0.0000513 -0.0000860 -0.0000052 -0.0000383 0.0000030 -0.0000213 -0.0000029 0.0003426 -0.0000228 0.0001847 -0.0000357 0.0000029 -0.0000124 0.0001737 -0.0001800 0.0001083 -0.0001644 -0.0000375 -0.0000772 0.0003564 0.0000405 -0.0000883 -0.0002743 0.0004210 -0.0045003 -0.0048013 0.0000215 -0.0001870 0.0000859 -0.0004262 -0.0010449 0.0009593 0.0000104 -0.0005036 0.0000269 -0.0001236 0.0000035 -0.0003742 0.0000331 0.0000205 0.0000595 0.0000491 0.0000400 -0.0001302 0.0000489 -0.0003075 0.0000589 -0.0002550 0.0000620 -0.0003198 0.0000487 -0.0002940 0.0000522 -0.0003369 0.0000087 -0.0002869 0.0000394 -0.0003930 0.0000055 -0.0003911 0.0000116 -0.0002739 0.0000025 -0.0003013 0.0000187 -0.0002992 0.0000394 -0.0002500 0.0000425 -0.0002269 0.0000840 -0.0002442 0.0000013 -0.0003585 0.0000215 -0.0001864 0.0000383 0.0000143 0.0000976 -0.0001102 0.0001717 -0.0001961 0.0000808 -0.0001582 -0.0000521 -0.0000793 0.0000235 -0.0002549 -0.0000369 0.0001468 -0.0001460 0.0001231 -0.0000615 -0.0000165 -0.0000379 -0.0000304 -0.0000733 -0.0000359 -0.0000457 0.0000202 -0.0000266 -0.0001012 -0.0000057 -0.0001343
-0.0000515 -0.0001537 -0.0000711 -0.0001434 -0.0000440 0.0000410 -0.0000316 0.0003408 -0.0000504 0.0000038 0.0000185 -0.0001358 -0.0000147 0.0003559 -0.0000387 -0.0001554 -0.0000988 -0.0000941 -0.0000747 -0.0003234 -0.0001095 -0.0001547 -0.0002959 -0.0000401 0.0000063 0.0003463 -0.0000360 0.0000170 -0.0000145 0.0001294 0.0000020 -0.0003862 0.0000071 -0.0000696 -0.0000090 0.0001147 0.0000454 -0.0000792 -0.0000087 -0.0000352 0.0000094 -0.0000404 -0.0000142 0.0003284 -0.0000256 0.0001365 -0.0000162 -0.0000686 -0.0000080 0.0001421 -0.0000216 -0.0001033 -0.0001117 -0.0001668 -0.0000887 0.0004623 -0.0000226 -0.0000873 -0.0003101 0.0003511 -0.0010787 -0.0002930 0.0000316 -0.0000730 -0.0004608 -0.0001544 0.0014027 -0.0006582 -0.0001791 -0.0004518 0.0000205 0.0000784 -0.0000048 -0.0001006 0.0000339 0.0001374 0.0000649 0.0002606 0.0000227 0.0000389 0.0000348 -0.0001058 0.0000597 -0.0000127 0.0000547 -0.0001412 0.0000473 -0.0001646 0.0000762 -0.0002306 0.0000064 -0.0001960 0.0000266 -0.0002426 0.0000180 -0.0001717 0.0000205 -0.0001498 0.0000203 -0.0001207 0.0000258 -0.0002490 0.0000357 -0.0002142 0.0000508 -0.0001713 0.0000858 -0.0001834 -0.0000001 -0.0003104 0.0000197 -0.0001567 0.0000407 0.0000401 0.0000813 -0.0000927 0.0001520 -0.0001010 0.0000747 -0.0001073 -0.0000732 0.0000297 0.0000495 -0.0001666 0.0000574 0.0001769 -0.0002800 0.0002815 -0.0000253 -0.0000625 -0.0000380 0.0000062 -0.0000473 -0.0000567 -0.0000611 0.0000346 -0.0000499 -0.0000329 0.0000008 -0.0001283
-0.0000656 -0.0003943 -0.0000629 -0.0002083 -0.0000350 -0.0001896 -0.0000222 0.0002435 -0.0000859 -0.0002657 0.0000188 -0.0002132 0.0000000 0.0001764 -0.0000562 -0.0002281 -0.0000924 -0.0001994 -0.0000680 -0.0003853 -0.0000918 -0.0002531 -0.0002143 -0.0001657 -0.0000043 0.0002154 -0.0000227 -0.0000464 -0.0000193 0.0000750 0.0000198 -0.0004501 -0.0000021 -0.0001489 0.0000118 -0.0000303 0.0000815 -0.0002466 -0.0000100 -0.0000913 0.0000131 -0.0000990 -0.0000107 0.0002319 -0.0000202 -0.0000163 -0.0000599 -0.0001496 -0.0000663 0.0000779 -0.0000577 -0.0002247 -0.0000105 -0.0004302 -0.0001196 0.0003740 -0.0000077 -0.0002033 -0.0004152 0.0002546 -0.0080007 0.0093094 -0.0010611 0.0004662 -0.0008636 0.0001370 0.0031002 -0.0025975 0.0006445 -0.0011486 0.0000172 0.0000669 -0.0000050 -0.0000760 0.0000324 0.0001317 0.0000714 0.0002498 0.0000191 -0.0000236 0.0000363 -0.0001146 0.0000658 -0.0000690 0.0000528 -0.0001628 0.0000414 -0.0001640 0.0000816 -0.0002894 -0.0000004 -0.0001984 0.0000262 -0.0002768 0.0000292 -0.0001661 0.0000340 -0.0001321 0.0000241 -0.0001162 0.0000416 -0.0003086 0.0000341 -0.0002708 0.0000770 -0.0002507 0.0000926 -0.0003110 -0.0000002 -0.0003266 0.0000132 -0.0002938 0.0000445 0.0000105 0.0000720 -0.0002306 0.0001516 -0.0001106 0.0000859 -0.0001731 -0.0001022 0.0000155 0.0000333 -0.0001368 0.0000440 0.0001940 -0.0002239 0.0002004 0.0000189 -0.0001820 0.0000015 0.0000135 -0.0000712 -0.0001374 -0.0000233 -0.0001504 -0.0000358 -0.0000768 0.0000160 -0.0002432
-0.0000226 -0.0004153 -0.0000522 -0.0003023 -0.0000246 -0.0001208 -0.0000107 0.0002067 -0.0000627 -0.0000986 -0.0000101 -0.0002085 -0.0000253 0.0001521 -0.0000692 -0.0001919 -0.0000867 -0.0002054 -0.0000390 -0.0003679 -0.0000627 -0.0002584 -0.0001145 -0.0002069 -0.0000057 0.0002685 -0.0000212 -0.0000528 -0.0000256 0.0001043 0.0000094 -0.0004025 -0.0000096 -0.0000937 -0.0000032 0.0000416 0.0000774 -0.0001651 -0.0000122 -0.0000815 0.0000091 -0.0000390 -0.0000137 0.0002981 -0.0000228 0.0000722 -0.0000761 -0.0000640 0.0000307 0.0000282 -0.0000243 -0.0001406 -0.0000151 -0.0002998 -0.0001878 0.0003532 0.0000035 -0.0000861 -0.0003132 0.0003441 -0.0102140 0.0161906 -0.0002136 -0.0002092 0.0000827 -0.0003917 0.0027325 -0.0014916 0.0009669 -0.0010858 0.0000195 -0.0000183 0.0000021 -0.0001390 0.0000343 0.0000921 0.0000699 0.0002129 0.0000169 -0.0000094 0.0000380 -0.0001286 0.0000653 -0.0000963 0.0000620 -0.0001681 0.0000460 -0.0001211 0.0000826 -0.0002475 -0.0000088 -0.0001729 0.0000214 -0.0002245 0.0000418 -0.0000195 0.0000312 -0.0000959 0.0000421 -0.0000211 0.0000582 -0.0001883 0.0000403 -0.0002010 0.0000739 -0.0001657 0.0000798 -0.0000942 0.0000098 -0.0002718 0.0000204 -0.0000312 0.0000490 0.0000676 0.0000746 0.0000695 0.0001490 0.0000624 0.0000892 -0.0000276 -0.0001169 0.0001800 -0.0000147 0.0000904 0.0000197 0.0003048 -0.0002742 0.0003735 -0.0000491 0.0000729 0.0000181 0.0000397 -0.0001424 0.0000309 -0.0000047 -0.0000697 -0.0000269 -0.0000272 0.0000040 -0.0001833
-0.0000116 0.0000358 -0.0000593 -0.0002350 0.0000159 0.0001951 -0.0000096 0.0003133 -0.0001085 0.0004463 -0.0000504 -0.0000305 -0.0000438 0.0004101 -0.0000758 -0.0000873 -0.0000847 -0.0000733 -0.0000763 -0.0002999 -0.0000769 -0.0001286 -0.0002123 0.0000064 0.0000054 0.0004848 -0.0000290 0.0000241 -0.0000174 0.0002177 -0.0000370 -0.0003308 -0.0000435 0.0000757 0.0000104 0.0002441 0.0000732 0.0000549 -0.0000161 -0.0000162 0.0000064 0.0000492 -0.0000234 0.0003847 -0.0000181 0.0001540 -0.0000425 -0.0000167 0.0000817 0.0000209 -0.0000149 -0.0000751 -0.0000664 -0.0002186 -0.0001789 0.0002459 0.0000086 -0.0000680 -0.0002244 0.0003172 -0.0060713 0.0146240 -0.0003007 0.0000191 -0.0004548 -0.0001687 -0.0012778 0.0038661 0.0014590 -0.0013985 0.0000117 -0.0000218 -0.0000032 -0.0000895 0.0000389 0.0000839 0.0000597 0.0002346 0.0000107 -0.0000300 0.0000329 -0.0001117 0.0000696 -0.0001178 0.0000602 -0.0001786 0.0000389 -0.0000893 0.0001163 -0.0002748 0.0000081 -0.0001764 0.0000275 -0.0002004 0.0000454 0.0000145 0.0000337 -0.0000632 0.0000547 -0.0000138 0.0000633 -0.0001897 0.0000349 -0.0001676 0.0000818 -0.0001759 0.0000578 -0.0001079 0.0000137 -0.0002361 0.0000194 -0.0000519 0.0000553 0.0000707 0.0000812 0.0000204 0.0001555 0.0000968 0.0000941 0.0000156 -0.0000922 0.0002146 -0.0000586 0.0001306 0.0000414 0.0002800 -0.0000788 0.0002262 -0.0000811 0.0001460 -0.0000055 -0.0000056 -0.0001799 -0.0000077 -0.0000527 -0.0001015 -0.0000392 -0.0000382 -0.0000170 -0.0001980
-0.0000206 -0.0002179 -0.0000649 -0.0002457 -0.0000037 -0.0000313 -0.0000085 0.0002095 -0.0001137 0.0001199 -0.0000498 -0.0000969 -0.0000276 0.0002425 -0.0000763 -0.0001854 -0.0000585 -0.0001744 -0.0001120 -0.0003452 -0.0000760 -0.0002086 -0.0001219 -0.0002256 0.0000187 0.0003332 -0.0000377 -0.0000075 0.0000008 0.0001807 -0.0000300 -0.0003892 -0.0000275 -0.0000367 0.0000362 0.0001030 0.0000763 -0.0000776 -0.0000177 -0.0000570 0.0000301 -0.0000439 -0.0000183 0.0002955 -0.0000062 0.0000049 0.0000358 -0.0001522 -0.0000776 0.0000501 -0.0000993 -0.0001120 -0.0000784 -0.0003719 -0.0001943 0.0001548 -0.0000086 -0.0001718 -0.0001184 0.0000555 -0.0033114 0.0130765 -0.0005916 -0.0001079 -0.0007661 0.0000965 -0.0018076 0.0026621 0.0013962 -0.0018978 0.0000071 -0.0000848 -0.0000045 -0.0001299 0.0000446 0.0000252 0.0000602 0.0001461 0.0000131 -0.0001391 0.0000361 -0.0001654 0.0000682 -0.0002592 0.0000598 -0.0002571 0.0000480 -0.0001433 0.0000951 -0.0003123 0.0000148 -0.0002078 0.0000179 -0.0002553 0.0000402 -0.0001370 0.0000362 -0.0001233 0.0000424 -0.0001434 0.0000709 -0.0002767 0.0000163 -0.0001661 0.0000992 -0.0002707 0.0000688 -0.0002579 0.0000087 -0.0002347 0.0000061 -0.0001789 0.0000666 0.0000147 0.0000741 -0.0001259 0.0001698 0.0000415 0.0000994 -0.0000070 -0.0001110 0.0002160 -0.0001072 0.0001644 -0.0000087 0.0003363 0.0001541 0.0001643 -0.0000226 0.0000485 -0.0000204 -0.0000506 -0.0002132 0.0001350 -0.0000695 0.0000381 -0.0000921 0.0001182 -0.0000215 -0.0000229
-0.0000529 -0.0006778 -0.0000670 -0.0003502 -0.0000258 -0.0003935 -0.0000093 0.0000360 -0.0000085 -0.0004742 -0.0000353 -0.0002643 -0.0000090 -0.0000883 -0.0000739 -0.0003114 -0.0000218 -0.0003603 -0.0000892 -0.0004303 -0.0000337 -0.0003705 -0.0000079 -0.0004707 0.0000145 0.0001028 -0.0000305 -0.0001075 0.0000092 0.0001008 -0.0000225 -0.0004273 -0.0000080 -0.0001725 0.0000474 -0.0000734 0.0000789 -0.0002535 -0.0000159 -0.0001230 0.0000407 -0.0001309 -0.0000149 0.0002416 0.0000169 -0.0000772 0.0000175 -0.0001738 -0.0000354 -0.0000336 -0.0000365 -0.0002300 -0.0000259 -0.0004234 -0.0001315 0.0001027 -0.0000316 -0.0001683 -0.0002785 0.0001650 0.0023364 0.0036758 -0.0001768 -0.0001128 -0.0000052 -0.0005490 0.0015890 -0.0004086 -0.0003457 -0.0001210 0.0000069 0.0000585 -0.0000058 0.0000756 0.0000311 0.0001296 0.0000656 0.0003045 0.0000039 0.0001039 0.0000230 0.0000450 0.0000570 0.0000128 0.0000569 -0.0000441 0.0000511 0.0000386 0.0000654 -0.0001277 -0.0000030 -0.0000648 0.0000082 -0.0000429 0.0000456 0.0001387 0.0000305 -0.0000092 0.0000539 0.0000932 0.0000708 -0.0000682 -0.0000032 0.0000143 0.0001013 -0.0000847 0.0000647 0.0000902 0.0000053 -0.0001223 0.0000051 0.0001546 0.0000759 0.0000735 0.0000681 0.0000560 0.0001548 0.0001266 0.0000807 0.0000893 -0.0000953 0.0002276 -0.0001232 0.0002598 -0.0000453 0.0004086 0.0000443 0.0002935 -0.0000135 -0.0000366 -0.0000038 -0.0000550 -0.0001987 0.0001265 -0.0000623 -0.0000040 -0.0001527 0.0001827 -0.0000071 -0.0000673
-0.0001042 -0.0002586 -0.0000701 -0.0003449 -0.0000071 -0.0001137 -0.0000037 0.0001089 0.0000197 -0.0000640 -0.0000452 -0.0001655 -0.0000015 0.0000595 -0.0000855 -0.0002208 -0.0000304 -0.0002571 -0.0001017 -0.0003680 -0.0000449 -0.0002759 0.0000289 -0.0004046 0.0000122 0.0002836 -0.0000264 -0.0000670 0.0000125 0.0001858 -0.0000614 -0.0003668 -0.0000532 -0.0000109 0.0000460 0.0001307 0.0000798 -0.0000601 -0.0000161 -0.0000629 0.0000133 -0.0000121 -0.0000205 0.0003786 0.0000257 0.0000907 -0.0000041 -0.0000490 0.0001061 -0.0000245 -0.0000889 -0.0000141 -0.0000511 -0.0001335 0.0000899 0.0002376 0.0000154 -0.0000566 -0.0003580 0.0003545 0.0108198 -0.0102500 -0.0000041 -0.0001201 0.0005787 -0.0005592 0.0016051 0.0003449 -0.0011409 0.0010373 0.0000060 0.0000322 -0.0000094 0.0000962 0.0000245 0.0001121 0.0000629 0.0002782 -0.0000016 0.0000548 0.0000153 0.0000442 0.0000508 -0.0000472 0.0000473 -0.0000709 0.0000420 0.0000553 0.0000809 -0.0001888 0.0000050 -0.0000661 -0.0000117 -0.0000315 0.0000414 0.0001060 0.0000281 -0.0000370 0.0000556 0.0000539 0.0000735 -0.0001166 -0.0000035 -0.0000091 0.0001178 -0.0001478 0.0000502 0.0000314 0.0000048 -0.0001168 0.0000011 0.0000671 0.0000864 0.0000299 0.0000614 -0.0000751 0.0001524 0.0000883 0.0000667 0.0000673 -0.0001015 0.0001968 -0.0000584 0.0001263 0.0000086 0.0003195 0.0000595 0.0001771 -0.0000807 -0.0000493 0.0000135 -0.0000387 -0.0001289 -0.0000522 -0.0000822 -0.0001471 -0.0001095 0.0000671 -0.0000064 -0.0002032
-0.0000688 -0.0002349 -0.0000661 -0.0002699 -0.0000020 -0.0001258 -0.0000144 0.0001398 -0.0000006 -0.0001008 -0.0000616 -0.0000846 0.0000079 0.0001528 -0.0000970 -0.0002273 -0.0000474 -0.0001750 -0.0001397 -0.0003949 -0.0000858 -0.0002465 -0.0000461 -0.0004294 0.0000137 0.0002999 -0.0000366 -0.0000405 0.0000026 0.0002439 -0.0000598 -0.0004229 -0.0000763 -0.0000044 0.0000272 0.0001731 0.0000538 -0.0000236 -0.0000188 -0.0000421 -0.0000032 0.0000017 -0.0000091 0.0003819 0.0000246 0.0000444 -0.0000143 -0.0000725 0.0001572 -0.0000729 -0.0000756 -0.0000853 -0.0001102 -0.0001278 -0.0001613 0.0004298 0.0000085 -0.0000707 -0.0001114 0.0000297 0.0069968 -0.0070682 0.0002290 -0.0005296 0.0007756 -0.0007043 0.0018310 -0.0008702 0.0002516 -0.0005705 0.0000068 -0.0000900 0.0000002 -0.0000165 0.0000314 0.0000028 0.0000627 0.0001185 -0.0000002 -0.0001115 0.0000197 -0.0000588 0.0000466 -0.0002851 0.0000433 -0.0001996 0.0000343 -0.0000167 0.0000919 -0.0002804 0.0000136 -0.0001396 0.0000012 -0.0001461 0.0000314 -0.0001447 0.0000240 -0.0002001 0.0000372 -0.0001746 0.0000780 -0.0002558 0.0000167 -0.0001104 0.0001293 -0.0003076 0.0000632 -0.0001731 0.0000087 -0.0001505 -0.0000012 -0.0000905 0.0000957 -0.0000502 0.0000634 -0.0001046 0.0001648 0.0001063 0.0000706 0.0001128 -0.0001402 0.0002970 -0.0001383 0.0002692 0.0001024 0.0003018 0.0000472 0.0002599 -0.0001260 0.0001742 -0.0000198 0.0000559 -0.0001307 0.0001878 -0.0000823 0.0002020 -0.0000507 0.0001782 -0.0000255 0.0000919
-0.0000562 -0.0005806 -0.0000855 -0.0002810 0.0000107 -0.0004081 -0.0000061 0.0000410 -0.0000122 -0.0004873 -0.0000586 -0.0001676 0.0000252 -0.0000314 -0.0000884 -0.0003184 -0.0000496 -0.0002399 -0.0001398 -0.0004703 -0.0000769 -0.0003387 -0.0000489 -0.0005846 0.0000092 0.0001308 -0.0000295 -0.0000845 0.0000024 0.0002316 -0.0000574 -0.0004272 -0.0000482 -0.0001370 0.0000306 0.0000284 0.0000647 -0.0001911 -0.0000149 -0.0000967 -0.0000100 -0.0000863 0.0000045 0.0002887 0.0000376 -0.0001181 0.0000024 -0.0002125 0.0001141 -0.0000964 0.0000158 -0.0003293 -0.0000631 -0.0003324 -0.0004216 0.0002840 -0.0000019 -0.0001990 0.0000192 -0.0001941 -0.0088885 0.0107998 -0.0005371 0.0002773 0.0004557 -0.0006252 0.0004604 0.0005828 0.0014500 -0.0015067 0.0000053 0.0000842 0.0000086 0.0002114 0.0000286 0.0000963 0.0000648 0.0002912 -0.0000116 0.0000776 0.0000088 0.0001358 0.0000404 -0.0000595 0.0000302 -0.0000035 0.0000278 0.0000950 0.0000724 -0.0001427 0.0000089 -0.0000426 -0.0000006 -0.0000062 0.0000355 -0.0000696 0.0000298 -0.0001524 0.0000353 -0.0000839 0.0000723 -0.0002389 0.0000106 -0.0000736 0.0001493 -0.0002861 0.0000610 -0.0001650 0.0000027 -0.0001059 -0.0000078 -0.0001088 0.0000954 -0.0000731 0.0000535 -0.0001830 0.0001503 0.0001006 0.0000703 0.0001138 -0.0001152 0.0002265 -0.0001700 0.0003094 0.0000889 0.0002878 0.0000648 0.0001307 -0.0001286 0.0001258 -0.0000229 0.0000116 -0.0002054 0.0002021 -0.0000632 0.0000989 -0.0000431 0.0001264 -0.0000203 0.0000271
-0.0000416 -0.0005196 -0.0000511 -0.0003779 0.0000311 -0.0003197 0.0000051 0.0000387 0.0000006 -0.0003108 -0.0000541 -0.0001855 0.0000182 -0.0000365 -0.0000719 -0.0003022 -0.0000601 -0.0002217 -0.0001271 -0.0004375 -0.0000792 -0.0003030 -0.0000208 -0.0005558 0.0000179 0.0001793 -0.0000207 -0.0000668 0.0000162 0.0002563 -0.0000693 -0.0003423 -0.0000248 -0.0001185 0.0000306 0.0001202 0.0000745 -0.0001120 -0.0000099 -0.0000850 -0.0000298 -0.0000345 0.0000001 0.0003557 0.0000494 -0.0000163 -0.0000124 -0.0001118 0.0001410 -0.0000433 0.0000101 -0.0001232 -0.0000323 -0.0002099 -0.0002245 0.0002965 0.0000061 -0.0000982 -0.0000024 0.0000995 -0.0180310 0.0177664 -0.0008153 0.0005928 0.0006641 -0.0007421 -0.0003698 0.0009149 0.0008281 -0.0004692 0.0000044 0.0000021 0.0000114 0.0001322 0.0000313 0.0000090 0.0000627 0.0001670 -0.0000121 -0.0000535 0.0000162 0.0000391 0.0000380 -0.0002376 0.0000292 -0.0001100 0.0000331 -0.0000002 0.0000460 -0.0002322 0.0000045 -0.0000882 -0.0000379 -0.0000477 0.0000210 -0.0002773 0.0000285 -0.0002497 0.0000230 -0.0002546 0.0000765 -0.0003776 -0.0000015 -0.0001337 0.0001678 -0.0004134 0.0000632 -0.0003731 -0.0000002 -0.0001481 -0.0000073 -0.0003267 0.0001011 -0.0001512 0.0000414 -0.0004197 0.0001345 0.0000078 0.0000790 -0.0000165 -0.0001203 0.0001065 -0.0001039 0.0001263 0.0000450 0.0002040 0.0003312 -0.0002805 -0.0001046 -0.0000662 0.0000135 -0.0001081 -0.0002113 0.0000256 -0.0000729 -0.0001348 -0.0000595 -0.0000034 -0.0000069 -0.0001754
0.0000023 -0.0000937 -0.0000516 -0.0002822 0.0000405 0.0000614 -0.0000079 0.0001836 0.0000264 0.0001700 -0.0000645 -0.0000178 0.0000071 0.0002326 -0.0000628 -0.0002006 -0.0000886 -0.0000410 -0.0001398 -0.0003672 -0.0001085 -0.0001613 -0.0000778 -0.0002418 0.0000397 0.0003920 -0.0000356 0.0000356 0.0000156 0.0003597 -0.0000999 -0.0003278 -0.0000327 0.0000180 0.0000034 0.0003439 0.0000337 0.0001063 -0.0000097 -0.0000213 -0.0000290 0.0000402 -0.0000150 0.0004210 0.0000485 0.0000455 -0.0000603 -0.0000244 0.0000538 0.0000117 -0.0000965 0.0000864 -0.0000302 -0.0002423 -0.0000529 0.0001697 -0.0000301 -0.0000224 -0.0001879 0.0002923 -0.0197322 0.0160591 -0.0002676 0.0001056 0.0000193 -0.0007972 -0.0001642 -0.0004671 0.0001102 0.0001354 0.0000105 -0.0001749 0.0000199 -0.0000731 0.0000382 -0.0001364 0.0000653 -0.0000583 0.0000004 -0.0002150 0.0000311 -0.0001157 0.0000407 -0.0005011 0.0000387 -0.0002628 0.0000335 -0.0000503 0.0000584 -0.0003262 -0.0000114 -0.0001221 -0.0000077 -0.0001361 0.0000067 -0.0004256 0.0000168 -0.0003861 0.0000168 -0.0003958 0.0000847 -0.0003562 -0.0000146 -0.0000943 0.0001628 -0.0004255 0.0000644 -0.0002442 0.0000067 -0.0001426 0.0000041 -0.0001366 0.0001070 -0.0001358 0.0000358 -0.0001666 0.0001548 0.0000845 0.0000809 0.0000794 -0.0001161 0.0001997 -0.0001099 0.0002911 0.0000011 0.0002865 0.0000454 0.0000657 -0.0000651 0.0000690 -0.0000221 -0.0000030 -0.0001421 0.0002124 -0.0000962 0.0002425 -0.0000772 0.0001473 -0.0000296 0.0001033
-0.0000063 -0.0002807 -0.0000676 -0.0002330 0.0000167 -0.0000716 -0.0000094 0.0001447 0.0000299 -0.0000651 -0.0000617 -0.0000293 0.0000134 0.0001604 -0.0000688 -0.0002681 -0.0000671 -0.0000880 -0.0001524 -0.0003913 -0.0000918 -0.0002241 0.0000251 -0.0004292 0.0000392 0.0003544 -0.0000188 0.0000257 0.0000089 0.0003606 -0.0001186 -0.0003627 -0.0000278 -0.0000101 -0.0000003 0.0002998 0.0000464 0.0000403 -0.0000135 -0.0000302 0.0000004 0.0000019 -0.0000226 0.0003646 0.0000519 -0.0000473 -0.0000435 -0.0001110 -0.0001088 0.0000673 -0.0002001 0.0000397 -0.0000356 -0.0003350 -0.0000564 0.0001075 -0.0000330 -0.0000893 -0.0001904 0.0000682 -0.0100568 0.0158205 0.0002398 -0.0004535 -0.0011829 0.0003086 -0.0001760 -0.0008509 -0.0010831 0.0008047 0.0000046 -0.0000478 0.0000153 0.0000895 0.0000382 -0.0000929 0.0000620 0.0000206 -0.0000024 -0.0002002 0.0000245 -0.0000476 0.0000367 -0.0004585 0.0000205 -0.0002052 0.0000149 -0.0000081 0.0000592 -0.0002900 -0.0000063 -0.0000900 0.0000021 -0.0001190 0.0000012 -0.0004573 0.0000184 -0.0003909 0.0000134 -0.0003788 0.0000829 -0.0003903 -0.0000217 -0.0000930 0.0001778 -0.0004591 0.0000423 -0.0002764 0.0000054 -0.0001338 0.0000019 -0.0002018 0.0001052 -0.0001393 0.0000342 -0.0002458 0.0001577 0.0000445 0.0000601 0.0000758 -0.0000748 0.0001288 -0.0001589 0.0002723 -0.0000339 0.0002875 -0.0004361 0.0004654 -0.0000722 0.0000301 -0.0000447 0.0000145 -0.0001041 0.0000758 -0.0000758 0.0001135 -0.0000947 0.0000902 -0.0000342 0.0000107
-0.0000194 -0.0005583 -0.0000268 -0.0003091 0.0000285 -0.0003196 -0.0000029 0.0000526 -0.0000180 -0.0003192 -0.0000515 -0.0001388 0.0000214 0.0000036 -0.0000582 -0.0003559 -0.0000166 -0.0002168 -0.0001310 -0.0004208 -0.0000567 -0.0003135 -0.0000977 -0.0004322 0.0000294 0.0002642 -0.0000139 0.0000130 0.0000015 0.0002956 -0.0001047 -0.0003420 -0.0000169 -0.0000561 0.0000361 0.0002212 0.0000872 -0.0000208 -0.0000149 -0.0000461 0.0000096 -0.0000043 -0.0000315 0.0003659 0.0000514 0.0000018 -0.0000664 -0.0000291 -0.0000617 0.0000521 -0.0001671 -0.0000298 -0.0000457 -0.0001698 -0.0000684 0.0004352 0.0000076 -0.0000906 0.0000798 -0.0001123 -0.0020075 0.0103832 -0.0000418 -0.0004265 0.0000518 0.0003133 0.0027572 -0.0025384 -0.0023301 0.0014558 0.0000023 -0.0001600 0.0000093 -0.0000380 0.0000404 -0.0001969 0.0000526 -0.0001423 0.0000063 -0.0003950 0.0000297 -0.0001819 0.0000310 -0.0006895 0.0000165 -0.0003604 0.0000082 -0.0001239 0.0000551 -0.0003838 -0.0000049 -0.0001702 -0.0000054 -0.0002184 -0.0000176 -0.0007526 0.0000152 -0.0005457 -0.0000092 -0.0006067 0.0000941 -0.0005750 -0.0000123 -0.0001913 0.0001847 -0.0006092 0.0000541 -0.0005324 0.0000032 -0.0001979 0.0000050 -0.0004638 0.0001128 -0.0002283 0.0000524 -0.0005234 0.0001457 -0.0000742 0.0000628 -0.0000653 -0.0000578 -0.0000097 -0.0001983 0.0001229 -0.0000346 0.0002105 -0.0002448 0.0001498 -0.0000747 -0.0001160 -0.0000158 -0.0000679 -0.0000837 -0.0001719 -0.0000096 -0.0002094 -0.0000854 -0.0000485 -0.0000317 -0.0001747
-0.0000417 -0.0000452 -0.0000252 -0.0002434 0.0000418 0.0000359 0.0000047 0.0001744 -0.0000366 0.0001669 -0.0000368 -0.0000190 0.0000329 0.0002296 -0.0000433 -0.0002415 -0.0000256 -0.0000560 -0.0001252 -0.0003420 -0.0000782 -0.0001667 -0.0001631 -0.0001214 0.0000371 0.0004893 -0.0000306 0.0001255 0.0000044 0.0003805 -0.0001050 -0.0002933 -0.0000181 0.0000680 0.0000211 0.0004440 0.0000679 0.0002114 -0.0000168 0.0000353 0.0000186 0.0001216 -0.0000379 0.0005193 0.0000382 0.0002160 -0.0001147 0.0001885 0.0000481 0.0000797 -0.0000975 0.0002050 0.0000098 0.0000681 -0.0000681 0.0005488 0.0000142 0.0000853 0.0000293 0.0001920 0.0007656 0.0048809 -0.0002283 -0.0002216 0.0003022 0.0002551 0.0025349 -0.0022093 -0.0006738 0.0004998 0.0000125 -0.0002784 0.0000210 -0.0002168 0.0000479 -0.0002779 0.0000628 -0.0002517 0.0000135 -0.0003689 0.0000291 -0.0002080 0.0000308 -0.0007437 0.0000212 -0.0003662 0.0000095 -0.0000883 0.0000684 -0.0003403 0.0000004 -0.0001547 0.0000061 -0.0001781 -0.0000297 -0.0007792 0.0000023 -0.0006210 -0.0000157 -0.0006392 0.0001050 -0.0004971 -0.0000093 -0.0001109 0.0001698 -0.0005225 0.0000685 -0.0002997 0.0000015 -0.0001598 0.0000114 -0.0001728 0.0001126 -0.0001834 0.0000522 -0.0002284 0.0001501 0.0000386 0.0000899 0.0000308 -0.0000437 0.0000759 -0.0002089 0.0003210 -0.0000127 0.0002693 0.0002179 -0.0000738 -0.0000299 0.0000319 -0.0000019 -0.0000441 -0.0000553 0.0000599 -0.0000304 0.0001715 -0.0000618 0.0000600 -0.0000594 0.0001116
-0.0001200 -0.0000309 -0.0000419 -0.0001289 0.0000098 -0.0000207 -0.0000027 0.0002034 0.0000095 -0.0000042 -0.0000421 0.0000187 0.0000440 0.0002624 -0.0000522 -0.0002604 -0.0000377 -0.0000065 -0.0001478 -0.0003717 -0.0001091 -0.0001507 0.0000677 -0.0002919 0.0000261 0.0005055 -0.0000144 0.0001400 0.0000170 0.0004176 -0.0001183 -0.0003631 -0.0000425 0.0000652 0.0000007 0.0004199 0.0000442 0.0001688 -0.0000180 0.0000375 0.0000171 0.0001113 -0.0000320 0.0004919 0.0000285 0.0001272 -0.0000347 0.0000691 -0.0000206 0.0001985 -0.0000441 0.0001445 0.0000028 -0.0000346 -0.0001476 0.0004113 0.0000317 0.0000303 -0.0001329 0.0002715 -0.0007543 0.0041862 -0.0002204 0.0000022 -0.0005960 0.0001178 0.0012925 -0.0014500 0.0009295 -0.0006555 0.0000101 -0.0001542 0.0000178 -0.0000748 0.0000535 -0.0002178 0.0000674 -0.0001468 0.0000079 -0.0003223 0.0000215 -0.0001460 0.0000342 -0.0006666 0.0000086 -0.0003045 -0.0000008 -0.0000596 0.0000506 -0.0003126 -0.0000038 -0.0001139 -0.0000070 -0.0001377 -0.0000293 -0.0007068 0.0000070 -0.0005790 -0.0000087 -0.0005369 0.0001022 -0.0004987 -0.0000311 -0.0000885 0.0001831 -0.0005219 0.0000621 -0.0003361 -0.0000030 -0.0001491 0.0000038 -0.0002231 0.0001075 -0.0001563 0.0000470 -0.0002995 0.0001598 -0.0000015 0.0001016 0.0000028 -0.0000289 0.0000481 -0.0000891 0.0001530 0.0000513 0.0001552 0.0000680 -0.0000162 0.0000424 -0.0001118 -0.0000677 0.0000032 -0.0000331 -0.0000219 -0.0000692 0.0000865 -0.0000239 -0.0000635 -0.0000525 -0.0000163
-0.0000704 -0.0004721 -0.0000495 -0.0001188 0.0000106 -0.0003222 -0.0000112 0.0001193 0.0000860 -0.0004694 -0.0000493 -0.0000922 0.0000437 0.0000364 -0.0000159 -0.0003874 -0.0000215 -0.0001115 -0.0001341 -0.0004099 -0.0000715 -0.0002467 0.0001543 -0.0005272 0.0000077 0.0003434 -0.0000067 0.0001057 0.0000112 0.0003696 -0.0001109 -0.0003522 -0.0000148 -0.0000583 0.0000072 0.0002301 0.0000498 0.0000071 -0.0000040 -0.0000379 -0.0000022 0.0000197 -0.0000286 0.0003651 0.0000278 -0.0000456 0.0000232 -0.0001165 -0.0000468 0.0002133 -0.0001012 -0.0000798 -0.0000552 -0.0001950 -0.0001409 0.0003733 0.0000177 -0.0001176 -0.0001235 0.0001319 -0.0086293 0.0103639 -0.0004014 -0.0000014 -0.0006253 -0.0000156 -0.0000831 -0.0019098 -0.0002453 0.0005625 0.0000120 -0.0002644 0.0000181 -0.0002196 0.0000583 -0.0003072 0.0000621 -0.0002832 0.0000231 -0.0005176 0.0000265 -0.0002873 0.0000333 -0.0008630 0.0000062 -0.0004526 0.0000075 -0.0002103 0.0000248 -0.0004559 -0.0000125 -0.0001951 -0.0000416 -0.0002368 -0.0000366 -0.0009192 0.0000086 -0.0006950 -0.0000209 -0.0006923 0.0001119 -0.0006660 -0.0000412 -0.0001854 0.0001971 -0.0006584 0.0000816 -0.0005859 -0.0000022 -0.0002302 0.0000110 -0.0004941 0.0001127 -0.0002210 0.0000579 -0.0005568 0.0001638 -0.0001215 0.0000976 -0.0001403 -0.0000190 -0.0000792 -0.0000542 -0.0000314 0.0000618 0.0000098 -0.0000659 0.0000311 0.0000522 -0.0003184 -0.0000750 -0.0000276 0.0000032 -0.0002771 -0.0000478 -0.0001900 -0.0000164 -0.0001819 -0.0000328 -0.0002251
-0.0000409 -0.0002480 -0.0000347 -0.0001480 0.0000394 -0.0001209 -0.0000057 0.0001595 0.0001028 -0.0002296 0.0000072 -0.0001117 0.0000280 0.0000981 0.0000214 -0.0003431 -0.0000361 -0.0000490 -0.0000985 -0.0003197 -0.0000662 -0.0001547 -0.0000305 -0.0002882 0.0000094 0.0004488 -0.0000024 0.0001522 0.0000042 0.0003973 -0.0000878 -0.0002463 -0.0000068 0.0000053 -0.0000290 0.0003751 0.0000358 0.0001803 0.0000015 -0.0000048 -0.0000003 0.0000986 -0.0000343 0.0004491 0.0000235 0.0001245 -0.0000118 0.0000041 0.0000792 0.0001708 -0.0001185 0.0000304 -0.0000567 0.0000369 -0.0003197 0.0006444 -0.0000035 0.0000402 -0.0001197 0.0002173 -0.0116208 0.0128770 0.0002327 -0.0004620 -0.0007410 0.0006205 0.0022658 -0.0059171 -0.0007440 0.0008814 0.0000174 -0.0003342 0.0000293 -0.0003598 0.0000618 -0.0003490 0.0000652 -0.0003155 0.0000347 -0.0004557 0.0000330 -0.0002857 0.0000196 -0.0008105 0.0000102 -0.0004197 0.0000305 -0.0001917 0.0000211 -0.0004192 -0.0000157 -0.0001819 -0.0000503 -0.0001758 -0.0000354 -0.0008450 -0.0000033 -0.0007069 -0.0000201 -0.0006318 0.0001234 -0.0005714 -0.0000379 -0.0001110 0.0001846 -0.0005424 0.0000856 -0.0003150 0.0000027 -0.0001945 0.0000246 -0.0002032 0.0001174 -0.0001640 0.0000588 -0.0002369 0.0001593 0.0000275 0.0000787 0.0000113 0.0000117 0.0000022 -0.0001492 0.0002044 0.0000423 0.0001327 0.0002816 -0.0000385 0.0000254 -0.0000829 -0.0000220 -0.0000422 -0.0000343 0.0000461 -0.0000621 0.0001924 -0.0000281 0.0000253 -0.0000368 0.0000974
0.0000129 0.0002910 -0.0000373 -0.0000261 0.0000264 0.0003513 -0.0000219 0.0003512 0.0001340 0.0003150 0.0000085 0.0000695 0.0000263 0.0004275 0.0000078 -0.0001735 -0.0000684 0.0001558 -0.0001184 -0.0002302 -0.0001034 0.0000210 -0.0001689 0.0000730 0.0000089 0.0007287 0.0000071 0.0002499 0.0000087 0.0005077 -0.0000967 -0.0002265 -0.0000595 0.0001866 -0.0000310 0.0005771 -0.0000121 0.0004238 -0.0000097 0.0000833 -0.0000052 0.0002027 -0.0000371 0.0005329 0.0000056 0.0002360 -0.0000084 0.0001050 0.0000991 0.0002240 -0.0000157 0.0000361 -0.0000531 0.0000831 -0.0003015 0.0005298 -0.0000031 0.0001361 -0.0000490 0.0002360 -0.0010025 -0.0001466 0.0005369 -0.0006524 -0.0004750 0.0001242 0.0033715 -0.0045864 -0.0001799 -0.0001395 0.0000139 -0.0001243 0.0000178 -0.0001043 0.0000560 -0.0002035 0.0000669 -0.0000813 0.0000239 -0.0002940 0.0000214 -0.0001246 0.0000191 -0.0005657 -0.0000011 -0.0002562 0.0000192 -0.0000809 0.0000225 -0.0003179 -0.0000060 -0.0001133 -0.0000572 -0.0000640 -0.0000263 -0.0006565 0.0000049 -0.0005801 -0.0000084 -0.0004424 0.0001202 -0.0005249 -0.0000415 -0.0000649 0.0001928 -0.0004805 0.0000754 -0.0003050 -0.0000005 -0.0001662 0.0000162 -0.0002210 0.0001211 -0.0001094 0.0000541 -0.0002663 0.0001663 -0.0000018 0.0000776 0.0000348 0.0000092 0.0000108 -0.0000541 0.0000747 0.0000776 0.0000873 0.0002198 -0.0001364 0.0000077 -0.0001010 -0.0000487 -0.0000333 -0.0000777 0.0000054 -0.0000526 0.0000520 -0.0000050 -0.0000488 -0.0000599 0.0000241
0.0000198 0.0000328 -0.0000335 0.0000218 -0.0000070 0.0001729 -0.0000268 0.0003272 0.0001016 0.0000780 -0.0000158 0.0000652 0.0000543 0.0003237 0.0000078 -0.0002418 -0.0000429 0.0001110 -0.0001442 -0.0002667 -0.0000851 -0.0000300 -0.0001017 -0.0000840 0.0000269 0.0006339 0.0000152 0.0002413 0.0000151 0.0005086 -0.0000991 -0.0002909 -0.0000682 0.0001439 -0.0000150 0.0004710 -0.0000400 0.0003733 -0.0000045 0.0000626 -0.0000325 0.0001938 -0.0000292 0.0004954 -0.0000007 0.0001389 -0.0000217 0.0000760 0.0000068 0.0002452 0.0000301 -0.0000938 -0.0000708 -0.0000490 -0.0001876 0.0003165 -0.0000022 0.0000420 -0.0000256 0.0000739 -0.0039812 0.0023444 0.0001688 -0.0002132 -0.0002709 -0.0000720 0.0021535 -0.0022005 -0.0008138 0.0004470 0.0000173 -0.0002098 0.0000184 -0.0002087 0.0000479 -0.0002396 0.0000703 -0.0001704 0.0000206 -0.0004243 0.0000133 -0.0002318 0.0000208 -0.0007015 -0.0000084 -0.0003622 0.0000021 -0.0001678 0.0000162 -0.0004024 0.0000134 -0.0002039 -0.0000587 -0.0001675 -0.0000331 -0.0008095 0.0000088 -0.0006366 -0.0000141 -0.0005759 0.0001303 -0.0006633 -0.0000341 -0.0001691 0.0001973 -0.0005692 0.0000765 -0.0005322 -0.0000078 -0.0002291 0.0000171 -0.0004728 0.0001222 -0.0001292 0.0000608 -0.0004981 0.0001661 -0.0001410 0.0000912 -0.0001255 -0.0000011 -0.0000943 -0.0000600 -0.0000484 0.0001826 -0.0001300 0.0002556 -0.0001511 0.0000102 -0.0002762 -0.0000474 -0.0000515 -0.0000163 -0.0002360 -0.0000527 -0.0001931 0.0000082 -0.0002151 -0.0000726 -0.0001787
-0.0000467 -0.0003022 -0.0000036 -0.0000451 -0.0000237 -0.0001461 -0.0000098 0.0002163 0.0000607 -0.0002930 0.0000035 -0.0000587 0.0000584 0.0001130 0.0000407 -0.0003495 -0.0000030 -0.0000237 -0.0001064 -0.0002974 -0.0000729 -0.0000992 -0.0000919 -0.0002123 0.0000313 0.0004668 0.0000086 0.0002301 0.0000148 0.0004582 -0.0000870 -0.0002515 -0.0000260 0.0000243 -0.0000237 0.0003672 -0.0000404 0.0002893 0.0000024 0.0000365 -0.0000193 0.0001569 -0.0000204 0.0004935 0.0000015 0.0001455 -0.0000558 0.0000634 -0.0000710 0.0003125 -0.0001214 0.0000932 -0.0000834 0.0000680 -0.0005879 0.0008358 -0.0000010 0.0000249 -0.0001588 0.0000947 -0.0212612 0.0190910 0.0001773 0.0002614 -0.0003147 0.0005429 0.0028475 -0.0033134 -0.0008459 0.0009425 0.0000243 -0.0003343 0.0000253 -0.0003930 0.0000459 -0.0002903 0.0000766 -0.0002522 0.0000272 -0.0004197 0.0000235 -0.0003018 0.0000087 -0.0007190 -0.0000027 -0.0003887 0.0000163 -0.0001805 0.0000126 -0.0003693 0.0000089 -0.0002196 -0.0000356 -0.0001847 -0.0000288 -0.0007572 -0.0000006 -0.0006557 -0.0000093 -0.0005545 0.0001372 -0.0005663 -0.0000232 -0.0001424 0.0001851 -0.0004654 0.0000821 -0.0002964 -0.0000159 -0.0001857 0.0000253 -0.0001994 0.0001198 -0.0000547 0.0000546 -0.0001728 0.0001509 0.0000040 0.0000883 -0.0000166 -0.0000099 0.0000477 -0.0000604 0.0001016 0.0000769 0.0000986 0.0000347 0.0002468 0.0000338 -0.0000737 -0.0000417 0.0000012 0.0000281 0.0000219 -0.0001004 0.0002315 -0.0000110 -0.0000186 -0.0000869 0.0001399
0.0000038 0.0001273 0.0000118 0.0000304 -0.0000023 0.0001839 -0.0000041 0.0003388 0.0001122 0.0001180 0.0000129 0.0000549 0.0000440 0.0003403 0.0000533 -0.0002159 -0.0000028 0.0001124 -0.0000958 -0.0001932 -0.0001219 0.0000605 -0.0000921 -0.0000071 0.0000246 0.0006736 0.0000067 0.0003238 0.0000157 0.0005574 -0.0000922 -0.0001470 -0.0000140 0.0001297 -0.0000241 0.0005544 -0.0000314 0.0004655 -0.0000032 0.0001175 -0.0000248 0.0002730 -0.0000271 0.0006264 -0.0000018 0.0003263 -0.0000774 0.0002234 -0.0001094 0.0004856 -0.0001931 0.0004305 -0.0001041 0.0003980 -0.0004360 0.0010151 -0.0000180 0.0002046 -0.0001565 0.0003192 -0.0126257 0.0110223 -0.0001834 0.0007174 0.0002858 0.0001090 0.0025389 -0.0027403 -0.0003768 0.0007444 0.0000183 -0.0000854 0.0000137 -0.0001012 0.0000424 -0.0000889 0.0000805 0.0000702 0.0000222 -0.0001229 0.0000109 -0.0000365 -0.0000012 -0.0003078 -0.0000128 -0.0001052 0.0000132 0.0000132 0.0000292 -0.0002027 0.0000041 -0.0000808 -0.0000386 0.0000114 -0.0000153 -0.0004564 0.0000076 -0.0004622 -0.0000000 -0.0002825 0.0001295 -0.0004370 -0.0000317 -0.0000697 0.0001946 -0.0003255 0.0000782 -0.0001506 -0.0000234 -0.0001184 0.0000148 -0.0001113 0.0001181 0.0000215 0.0000525 -0.0001632 0.0001508 0.0000312 0.0001085 -0.0000153 0.0000036 0.0000474 0.0000085 0.0000203 -0.0000045 0.0002030 -0.0003657 0.0004752 0.0000329 -0.0001166 -0.0000024 -0.0001015 -0.0000075 -0.0000872 -0.0000664 0.0000765 -0.0000473 -0.0000083 -0.0000754 0.0000618
-0.0000239 0.0001256 -0.0000006 0.0001509 0.0000228 0.0001383 -0.0000063 0.0003686 0.0000834 0.0001205 0.0000262 0.0000937 0.0000731 0.0003916 0.0000435 -0.0002158 -0.0000337 0.0002179 -0.0001175 -0.0001891 -0.0001221 0.0000621 -0.0000849 -0.0000207 0.0000374 0.0006659 0.0000224 0.0003187 0.0000173 0.0005952 -0.0000946 -0.0002235 -0.0000494 0.0001421 -0.0000267 0.0005655 -0.0000549 0.0004551 0.0000004 0.0001288 -0.0000459 0.0002902 -0.0000328 0.0006127 -0.0000207 0.0002857 -0.0000804 0.0002240 -0.0001688 0.0004785 -0.0001578 0.0003760 -0.0000729 0.0003148 0.0001194 0.0003567 -0.0000060 0.0001693 -0.0000310 0.0001730 0.0015314 0.0029675 -0.0000944 0.0005117 -0.0000930 0.0002565 0.0001912 -0.0008476 0.0001830 -0.0001497 0.0000161 -0.0001325 0.0000141 -0.0001592 0.0000417 -0.0000880 0.0000746 0.0000519 0.0000285 -0.0002098 0.0000106 -0.0001011 -0.0000026 -0.0003656 -0.0000218 -0.0001685 0.0000032 -0.0000558 0.0000423 -0.0002965 -0.0000079 -0.0001245 -0.0000481 -0.0000718 -0.0000151 -0.0005288 0.0000114 -0.0004582 -0.0000094 -0.0003449 0.0001413 -0.0005406 -0.0000502 -0.0001340 0.0002026 -0.0003877 0.0000839 -0.0003449 -0.0000209 -0.0001705 0.0000128 -0.0003210 0.0001186 0.0000219 0.0000661 -0.0003931 0.0001524 -0.0000934 0.0001132 -0.0001386 0.0000286 -0.0000909 -0.0000025 -0.0000776 0.0000840 0.0000126 0.0000571 -0.0000226 0.0000408 -0.0002695 0.0000395 -0.0001955 -0.0000376 -0.0002733 -0.0000362 -0.0002122 -0.0000474 -0.0001465 -0.0000488 -0.0001427
-0.0000030 -0.0001644 0.0000060 0.0001447 0.0000076 -0.0000664 -0.0000155 0.0003139 0.0000452 -0.0001351 0.0000614 0.0000131 0.0000890 0.0002515 0.0000566 -0.0002791 -0.0000400 0.0001652 -0.0001093 -0.0002074 -0.0000777 -0.0000156 -0.0000322 -0.0001470 0.0000507 0.0005261 0.0000299 0.0002975 0.0000172 0.0005506 -0.0000577 -0.0002580 -0.0000638 0.0000898 -0.0000125 0.0004287 -0.0000735 0.0003576 0.0000065 0.0000968 -0.0000290 0.0002371 -0.0000264 0.0005197 -0.0000175 0.0001673 -0.0000959 0.0001466 0.0000224 0.0002361 -0.0001130 0.0001580 -0.0000407 0.0001536 0.0001555 0.0001038 0.0000047 0.0000670 -0.0001037 0.0001049 0.0002610 0.0076549 0.0003891 0.0000775 -0.0007004 0.0005244 -0.0022560 -0.0007423 -0.0007403 0.0009294 0.0000212 -0.0002667 0.0000197 -0.0003263 0.0000379 -0.0001563 0.0000724 -0.0000750 0.0000362 -0.0003229 0.0000212 -0.0002351 0.0000002 -0.0005041 -0.0000200 -0.0002922 -0.0000020 -0.0001247 0.0000485 -0.0003827 -0.0000154 -0.0001803 -0.0000485 -0.0001778 -0.0000081 -0.0005522 0.0000013 -0.0005034 -0.0000062 -0.0003819 0.0001497 -0.0004926 -0.0000223 -0.0001426 0.0001905 -0.0003396 0.0000925 -0.0002285 -0.0000196 -0.0001660 0.0000235 -0.0001317 0.0001177 0.0000986 0.0000645 -0.0000990 0.0001534 0.0000314 0.0000977 0.0000108 0.0000065 0.0000554 -0.0000522 0.0000993 0.0000958 0.0001448 0.0002128 0.0000247 0.0000328 -0.0000234 0.0000226 -0.0001688 -0.0000214 0.0000736 -0.0000673 0.0002041 -0.0000459 0.0000184 -0.0000673 0.0001729
0.0000263 0.0001649 0.0000104 0.0001711 -0.0000072 0.0002047 -0.0000282 0.0003951 0.0000638 0.0001334 0.0000466 0.0000844 0.0000676 0.0003610 0.0000807 -0.0001955 -0.0000370 0.0002013 -0.0000970 -0.0001269 -0.0000932 0.0000989 0.0000660 -0.0000883 0.0000389 0.0006727 0.0000337 0.0003634 0.0000258 0.0005931 -0.0000522 -0.0001618 -0.0000450 0.0001920 -0.0000145 0.0005680 -0.0000698 0.0005029 0.0000013 0.0001594 -0.0000237 0.0003384 -0.0000295 0.0006245 -0.0000204 0.0003288 -0.0000637 0.0002098 0.0001202 0.0002275 -0.0000410 0.0002626 -0.0000279 0.0004094 0.0001490 0.0002386 -0.0000227 0.0002451 -0.0000933 0.0002659 0.0000632 -0.0033635 -0.0002605 0.0005309 0.0006969 -0.0002281 -0.0000868 -0.0013508 -0.0002252 0.0004308 0.0000166 -0.0000196 0.0000109 -0.0000243 0.0000305 0.0000453 0.0000760 0.0002473 0.0000176 0.0000398 -0.0000018 0.0000618 -0.0000074 -0.0000302 -0.0000280 0.0000229 0.0000002 0.0001237 0.0000593 -0.0001792 -0.0000042 -0.0000202 -0.0000690 0.0001011 0.0000121 -0.0001177 0.0000050 -0.0002461 0.0000116 0.0000018 0.0001524 -0.0002743 -0.0000249 0.0000200 0.0002020 -0.0001088 0.0000916 0.0000853 -0.0000214 -0.0000593 0.0000221 0.0001365 0.0001159 0.0001953 0.0000546 -0.0000073 0.0001516 0.0001100 0.0001016 0.0000739 0.0000337 0.0000664 -0.0000863 0.0001453 0.0000310 0.0002567 0.0002163 0.0001383 0.0000235 -0.0000540 0.0000021 -0.0001766 0.0000081 0.0000067 -0.0000652 0.0001201 -0.0000470 0.0000211 -0.0000669 0.0000981
0.0000054 0.0007640 0.0000100 0.0003038 -0.0000298 0.0006872 -0.0000319 0.0005713 0.0000977 0.0007061 0.0000059 0.0002891 0.0000499 0.0006718 0.0000664 -0.0000338 -0.0000602 0.0003924 -0.0001088 -0.0000693 -0.0001430 0.0002655 -0.0000084 0.0002024 0.0000257 0.0009491 0.0000310 0.0004648 0.0000290 0.0007364 -0.0000906 -0.0001412 -0.0000610 0.0003403 -0.0000042 0.0007803 -0.0000904 0.0007063 -0.0000050 0.0002545 -0.0000189 0.0004407 -0.0000320 0.0007413 -0.0000531 0.0004555 -0.0000530 0.0002997 0.0000779 0.0002894 -0.0000978 0.0004747 -0.0000437 0.0004300 -0.0001233 0.0004165 -0.0000193 0.0003085 -0.0000694 0.0003206 0.0015443 -0.0144519 0.0000232 -0.0001845 0.0000917 0.0006148 -0.0028021 0.0026261 0.0000313 -0.0004177 0.0000175 -0.0000548 0.0000074 -0.0000400 0.0000308 0.0000616 0.0000682 0.0002652 0.0000098 -0.0000075 -0.0000085 0.0000239 -0.0000117 -0.0000507 -0.0000369 -0.0000069 0.0000068 0.0000646 0.0000409 -0.0001933 0.0000201 -0.0000718 -0.0000714 0.0000543 0.0000155 -0.0001095 0.0000113 -0.0001979 0.0000114 -0.0000075 0.0001627 -0.0003423 -0.0000427 -0.0000163 0.0002107 -0.0001569 0.0000975 -0.0000854 -0.0000191 -0.0000914 0.0000236 -0.0000420 0.0001125 0.0001976 0.0000542 -0.0002029 0.0001276 0.0000356 0.0000833 0.0000033 0.0000510 -0.0000343 -0.0000785 0.0000301 -0.0000073 0.0001844 -0.0000417 0.0000972 0.0000038 -0.0001817 -0.0000521 -0.0000816 0.0000229 -0.0002203 -0.0000654 -0.0001261 -0.0000399 -0.0000830 -0.0000487 -0.0001172
-0.0000097 0.0004862 0.0000420 0.0003080 -0.0000671 0.0004675 -0.0000237 0.0004857 0.0000787 0.0004402 0.0000242 0.0002057 0.0000462 0.0005712 0.0000443 -0.0001052 -0.0000800 0.0003462 -0.0001392 -0.0001391 -0.0001397 0.0001685 -0.0001473 0.0002296 0.0000250 0.0008169 0.0000227 0.0004247 0.0000254 0.0007264 -0.0000915 -0.0002586 -0.0000791 0.0002799 0.0000258 0.0006224 -0.0001151 0.0006063 -0.0000041 0.0002183 -0.0000415 0.0003905 -0.0000251 0.0006688 -0.0000542 0.0003263 -0.0000932 0.0002640 0.0000609 0.0002096 -0.0001150 0.0002979 -0.0000838 0.0002888 -0.0002198 0.0003171 -0.0000075 0.0001609 -0.0000254 0.0001524 0.0031801 -0.0016079 0.0005075 -0.0005577 -0.0005330 0.0004897 -0.0051156 0.0042703 -0.0008780 0.0006102 0.0000235 -0.0001770 0.0000158 -0.0001810 0.0000287 0.0000004 0.0000679 0.0001377 0.0000150 -0.0001730 0.0000050 -0.0001263 -0.0000156 -0.0002290 -0.0000371 -0.0001589 0.0000026 -0.0000430 0.0000158 -0.0002816 0.0000135 -0.0001576 -0.0000497 -0.0001175 0.0000104 -0.0002405 0.0000066 -0.0002876 0.0000122 -0.0001670 0.0001667 -0.0003916 -0.0000336 -0.0000973 0.0002021 -0.0002264 0.0000996 -0.0001693 -0.0000159 -0.0001293 0.0000248 -0.0000446 0.0001133 0.0002294 0.0000501 0.0000040 0.0001099 0.0001364 0.0000861 0.0001172 0.0000341 0.0000818 -0.0000621 0.0001043 0.0000895 0.0001610 -0.0001608 0.0002800 -0.0000017 0.0000438 -0.0000901 0.0000357 0.0000230 0.0001052 -0.0000865 0.0003121 -0.0000448 0.0000730 -0.0000477 0.0001863
-0.0000528 0.0000758 0.0000327 0.0002640 -0.0000833 0.0000866 -0.0000265 0.0003200 0.0000234 -0.0000156 0.0000287 0.0000607 0.0000488 0.0003105 0.0000692 -0.0002400 -0.0000788 0.0002093 -0.0001382 -0.0001670 -0.0001093 0.0000460 -0.0001771 0.0000716 0.0000284 0.0005740 0.0000338 0.0003396 0.0000302 0.0006231 -0.0000643 -0.0002519 -0.0000438 0.0001498 0.0000107 0.0004600 -0.0001020 0.0004616 0.0000070 0.0001467 -0.0000574 0.0003268 -0.0000192 0.0005865 -0.0000448 0.0002717 -0.0000433 0.0001048 -0.0000092 0.0002890 -0.0000644 0.0000098 -0.0000703 0.0002991 -0.0000521 0.0002071 -0.0000197 0.0001128 0.0001173 0.0000572 0.0026673 0.0090564 0.0002740 0.0001186 -0.0001348 0.0001442 -0.0008591 0.0022366 0.0005682 -0.0003429 0.0000166 0.0000726 0.0000156 0.0001201 0.0000221 0.0001934 0.0000787 0.0004287 0.0000010 0.0001732 -0.0000093 0.0001609 -0.0000238 0.0002335 -0.0000442 0.0001417 0.0000215 0.0001820 0.0000135 -0.0000683 -0.0000057 0.0000158 -0.0000625 0.0001424 0.0000278 0.0002707 0.0000057 -0.0000207 0.0000337 0.0002702 0.0001757 -0.0001000 -0.0000522 0.0000962 0.0002031 0.0000571 0.0000856 0.0002684 -0.0000180 0.0000053 0.0000162 0.0003911 0.0001205 0.0003546 0.0000441 0.0002518 0.0001184 0.0002552 0.0000962 0.0002320 0.0000161 0.0001902 0.0000280 0.0001147 0.0001103 0.0002000 -0.0000512 0.0004290 0.0000004 0.0000688 -0.0001049 0.0000198 -0.0000121 0.0001220 -0.0000734 0.0002604 -0.0000736 0.0000998 -0.0000419 0.0001627
-0.0000064 0.0004768 0.0000133 0.0003064 -0.0000577 0.0004075 -0.0000320 0.0004072 0.0000525 0.0004127 0.0000076 0.0001917 0.0000426 0.0004876 0.0000766 -0.0001153 -0.0000649 0.0002902 -0.0001482 -0.0000518 -0.0001214 0.0001652 -0.0001383 0.0001449 0.0000232 0.0007352 0.0000453 0.0003834 0.0000350 0.0006870 -0.0000722 -0.0001164 -0.0000543 0.0002542 0.0000115 0.0006008 -0.0001080 0.0006293 0.0000106 0.0002076 -0.0000432 0.0004063 -0.0000221 0.0007064 -0.0000635 0.0004696 -0.0000141 0.0001421 -0.0000069 0.0003855 -0.0000339 0.0000975 -0.0000296 0.0004734 -0.0003722 0.0009180 -0.0000267 0.0002663 0.0000020 0.0003107 -0.0033545 0.0147213 0.0001131 0.0006527 -0.0003689 0.0005375 -0.0002007 0.0004905 0.0007914 -0.0008172 0.0000131 0.0000605 0.0000111 0.0001336 0.0000239 0.0002142 0.0000776 0.0004523 -0.0000065 0.0001409 -0.0000174 0.0001492 -0.0000139 0.0002031 -0.0000489 0.0001206 0.0000311 0.0001251 0.0000100 -0.0001095 -0.0000063 0.0000036 -0.0000881 0.0001214 0.0000372 0.0003139 0.0000123 0.0000487 0.0000359 0.0002889 0.0001833 -0.0001494 -0.0000452 0.0000527 0.0002141 0.0000215 0.0000779 0.0001575 -0.0000161 -0.0000109 0.0000146 0.0002502 0.0001236 0.0003699 0.0000514 0.0000790 0.0001330 0.0001920 0.0000835 0.0001858 -0.0000302 0.0002175 0.0000401 0.0000244 0.0000873 0.0002010 -0.0003267 0.0005002 -0.0000662 0.0000277 -0.0000992 -0.0000750 -0.0000454 -0.0000178 -0.0000440 -0.0000351 -0.0000588 0.0000038 -0.0000519 -0.0000147
0.0000410 0.0009137 0.0000140 0.0004260 -0.0000561 0.0006720 -0.0000340 0.0005157 0.0000884 0.0005615 0.0000072 0.0003168 0.0000431 0.0007202 0.0000386 -0.0000111 -0.0000475 0.0003672 -0.0001787 -0.0000503 -0.0001527 0.0001985 -0.0000742 0.0001491 -0.0000004 0.0008160 0.0000369 0.0004031 0.0000365 0.0007340 -0.0001172 -0.0002071 -0.0000901 0.0002798 0.0000154 0.0006142 -0.0001571 0.0006832 0.0000082 0.0002334 -0.0000554 0.0003997 -0.0000133 0.0007497 -0.0000914 0.0004793 0.0000106 0.0001234 0.0000574 0.0002579 -0.0001108 0.0002695 -0.0000994 0.0005399 -0.0002325 0.0007546 -0.0000438 0.0002844 -0.0001679 0.0004324 -0.0046549 0.0117999 0.0002256 0.0001647 0.0000863 -0.0002920 -0.0002673 -0.0004051 -0.0000603 -0.0000885 0.0000128 -0.0000567 0.0000150 0.0000132 0.0000225 0.0001507 0.0000691 0.0003358 -0.0000044 -0.0000297 -0.0000129 0.0000174 -0.0000084 -0.0000013 -0.0000434 -0.0000330 0.0000185 0.0000014 0.0000131 -0.0002382 -0.0000133 -0.0000814 -0.0000764 -0.0000403 0.0000334 0.0000563 0.0000109 -0.0000631 0.0000233 0.0000306 0.0001851 -0.0003035 -0.0000348 -0.0000615 0.0002269 -0.0001395 0.0000808 -0.0000805 -0.0000149 -0.0000780 0.0000195 0.0000377 0.0001267 0.0003528 0.0000481 0.0000848 0.0001352 0.0002231 0.0000618 0.0002663 -0.0000642 0.0003059 -0.0000283 0.0001620 0.0000236 0.0003125 -0.0001902 0.0004854 -0.0000955 0.0002108 -0.0000741 -0.0001061 -0.0000219 0.0002624 -0.0000448 0.0003178 -0.0000573 0.0001753 -0.0000881 0.0003047
0.0000172 0.0006404 0.0000245 0.0004044 -0.0000891 0.0004511 -0.0000432 0.0004220 0.0000767 0.0002482 -0.0000053 0.0002349 0.0000514 0.0005491 0.0000285 -0.0000951 -0.0000520 0.0002983 -0.0001829 -0.0001245 -0.0001372 0.0001081 -0.0001577 0.0001678 -0.0000051 0.0006423 0.0000167 0.0003430 0.0000460 0.0006744 -0.0001239 -0.0002795 -0.0000905 0.0001715 0.0000011 0.0004857 -0.0001482 0.0005286 0.0000076 0.0001781 -0.0000727 0.0003171 0.0000008 0.0006562 -0.0000940 0.0003132 -0.0000061 0.0000215 0.0000495 0.0001762 -0.0001863 0.0002335 -0.0001531 0.0003782 -0.0003129 0.0005598 -0.0000043 0.0001323 -0.0001679 0.0003624 0.0016821 0.0039609 -0.0001245 -0.0000288 -0.0005976 0.0007341 0.0007570 -0.0000412 0.0001481 -0.0001090 0.0000123 0.0001664 0.0000107 0.0003084 0.0000116 0.0003282 0.0000678 0.0005977 -0.0000232 0.0002946 -0.0000260 0.0002833 -0.0000192 0.0004156 -0.0000492 0.0002435 0.0000087 0.0002350 0.0000098 -0.0000278 -0.0000056 0.0000429 -0.0000460 0.0001666 0.0000427 0.0004778 0.0000092 0.0001577 0.0000342 0.0003937 0.0002029 -0.0000468 -0.0000363 0.0001279 0.0002406 0.0001210 0.0000750 0.0003252 -0.0000253 0.0000559 0.0000137 0.0004557 0.0001352 0.0004875 0.0000365 0.0004741 0.0001165 0.0003953 0.0000538 0.0004221 -0.0000334 0.0003741 -0.0000512 0.0003341 -0.0000728 0.0004648 0.0001317 0.0004685 -0.0000392 0.0001514 -0.0000613 -0.0001425 -0.0000155 0.0002284 -0.0000711 0.0003176 -0.0000699 0.0001972 -0.0000992 0.0003165
0.0000066 0.0003269 0.0000058 0.0003161 -0.0000948 0.0002869 -0.0000545 0.0003063 0.0000938 0.0001894 -0.0000005 0.0001197 0.0000522 0.0003471 0.0000505 -0.0001453 -0.0000872 0.0002566 -0.0001612 -0.0000956 -0.0001259 0.0001084 -0.0001837 0.0002110 0.0000011 0.0005758 -0.0000078 0.0003136 0.0000427 0.0006477 -0.0000926 -0.0001643 -0.0000752 0.0001539 -0.0000061 0.0004917 -0.0001332 0.0005428 0.0000050 0.0001662 -0.0000714 0.0003390 0.0000079 0.0006728 -0.0000905 0.0003648 -0.0000200 0.0000659 -0.0000601 0.0003092 -0.0002014 0.0002523 -0.0000863 0.0003956 -0.0003486 0.0008084 0.0000093 0.0001674 -0.0002376 0.0005190 0.0058054 -0.0089207 -0.0009320 0.0011116 -0.0009475 0.0014945 0.0029173 -0.0010311 0.0004138 -0.0000299 0.0000115 0.0001622 0.0000049 0.0003345 0.0000077 0.0003637 0.0000622 0.0006341 -0.0000350 0.0002879 -0.0000293 0.0002834 -0.0000162 0.0004033 -0.0000576 0.0002339 0.0000033 0.0002245 0.0000242 -0.0000693 -0.0000165 0.0000564 -0.0000624 0.0001600 0.0000426 0.0005461 0.0000137 0.0002291 0.0000339 0.0004364 0.0002156 -0.0000847 -0.0000344 0.0001030 0.0002559 0.0000861 0.0000751 0.0002269 -0.0000260 0.0000570 0.0000043 0.0003503 0.0001356 0.0004908 0.0000388 0.0003456 0.0001120 0.0003579 0.0000749 0.0003542 0.0000142 0.0002898 -0.0001019 0.0003451 -0.0000254 0.0004224 0.0000895 0.0002376 0.0000348 -0.0000247 -0.0000749 -0.0001222 -0.0000349 0.0000498 -0.0000460 0.0000521 -0.0000340 0.0000615 -0.0000922 0.0001271
0.0000064 0.0007614 -0.0000206 0.0003927 -0.0000953 0.0006105 -0.0000634 0.0003904 0.0000357 0.0006876 -0.0000050 0.0002358 0.0000027 0.0005881 0.0000383 -0.0000142 -0.0001035 0.0003840 -0.0001601 -0.0000176 -0.0001559 0.0002346 -0.0001049 0.0002608 0.0000025 0.0007457 -0.0000114 0.0003497 0.0000311 0.0006937 -0.0000748 -0.0001212 -0.0000740 0.0002814 -0.0000162 0.0006443 -0.0001750 0.0007501 0.0000057 0.0002192 -0.0000815 0.0004566 0.0000002 0.0007570 -0.0001102 0.0005504 -0.0000253 0.0002187 -0.0000496 0.0002938 -0.0001317 0.0002857 -0.0000967 0.0005363 0.0000743 0.0005361 0.0000313 0.0001781 -0.0001996 0.0004444 0.0009528 -0.0117258 -0.0005105 0.0008443 0.0003466 -0.0000676 0.0030846 -0.0007694 0.0007677 -0.0003488 0.0000102 0.0000574 0.0000095 0.0002225 0.0000087 0.0003071 0.0000613 0.0005339 -0.0000312 0.0001470 -0.0000257 0.0001643 -0.0000124 0.0002227 -0.0000609 0.0001032 -0.0000104 0.0001261 0.0000269 -0.0001753 -0.0000193 -0.0000126 -0.0000822 0.0000382 0.0000316 0.0003665 0.0000113 0.0001488 0.0000253 0.0002419 0.0002172 -0.0002311 -0.0000351 -0.0000052 0.0002578 -0.0000836 0.0000636 0.0000018 -0.0000142 -0.0000124 0.0000049 0.0001165 0.0001311 0.0004169 0.0000388 0.0001840 0.0001154 0.0003357 0.0000757 0.0003579 -0.0000076 0.0003507 -0.0001005 0.0003601 0.0000196 0.0004521 -0.0000949 0.0005065 0.0000729 0.0001427 -0.0000893 -0.0000719 -0.0000391 0.0003594 -0.0000686 0.0003974 -0.0000571 0.0002267 -0.0000809 0.0003735
-0.0000395 0.0006120 0.0000070 0.0003716 -0.0001057 0.0004550 -0.0000625 0.0003214 -0.0000580 0.0005617 -0.0000126 0.0002287 -0.0000204 0.0005302 0.0000159 -0.0000736 -0.0000990 0.0003380 -0.0001716 -0.0000741 -0.0001414 0.0001544 -0.0000668 0.0001101 -0.0000044 0.0006264 -0.0000045 0.0002565 0.0000172 0.0006205 -0.0000907 -0.0002367 -0.0000645 0.0001856 -0.0000052 0.0004654 -0.0001987 0.0006426 0.0000077 0.0001689 -0.0000908 0.0003741 -0.0000128 0.0006215 -0.0001134 0.0004209 -0.0000758 0.0002062 0.0000780 0.0000972 -0.0000230 0.0001130 -0.0000757 0.0003941 -0.0003431 0.0007025 0.0000414 0.0000545 -0.0000873 0.0001461 -0.0051215 0.0061191 -0.0000459 0.0004083 0.0009619 -0.0008201 0.0014087 -0.0007064 -0.0003008 0.0001218 0.0000074 0.0002807 0.0000142 0.0005025 0.0000029 0.0004603 0.0000693 0.0007792 -0.0000451 0.0004583 -0.0000450 0.0004231 -0.0000176 0.0006290 -0.0000696 0.0003725 -0.0000001 0.0003291 0.0000171 0.0000524 -0.0000019 0.0001036 -0.0000872 0.0002477 0.0000497 0.0007818 0.0000085 0.0003683 0.0000366 0.0006184 0.0002268 0.0000314 -0.0000373 0.0001591 0.0002601 0.0001717 0.0000547 0.0003950 -0.0000157 0.0001052 0.0000097 0.0005137 0.0001359 0.0005108 0.0000293 0.0005697 0.0000910 0.0005331 0.0000531 0.0005103 -0.0000015 0.0004892 -0.0000474 0.0004038 0.0000854 0.0004902 0.0000093 0.0005285 0.0000110 0.0002505 -0.0000668 -0.0001061 -0.0000805 0.0003786 -0.0001205 0.0004162 -0.0001066 0.0002738 -0.0000733 0.0003541
-0.0001027 0.0002534 0.0000270 0.0002679 -0.0000723 0.0000999 -0.0000568 0.0001449 -0.0001141 0.0002095 -0.0000013 0.0001024 -0.0000107 0.0002749 0.0000214 -0.0001943 -0.0001022 0.0002134 -0.0001633 -0.0001128 -0.0001037 0.0000263 -0.0000328 -0.0000202 -0.0000197 0.0004054 0.0000003 0.0001196 0.0000104 0.0004815 -0.0000838 -0.0002662 -0.0000792 0.0000545 0.0000087 0.0001996 -0.0001676 0.0004207 0.0000065 0.0000766 -0.0000479 0.0002111 -0.0000155 0.0004346 -0.0000974 0.0002375 -0.0000542 0.0000812 0.0001392 0.0000403 -0.0000532 0.0000046 -0.0000391 0.0002981 -0.0002227 0.0006596 -0.0000270 0.0000831 -0.0000803 0.0002110 0.0020591 0.0044324 -0.0004272 0.0006337 0.0005844 0.0000458 0.0004623 0.0002576 -0.0005650 0.0002830 0.0000022 0.0002809 0.0000121 0.0005251 -0.0000006 0.0004861 0.0000696 0.0008105 -0.0000598 0.0004514 -0.0000501 0.0004283 -0.0000201 0.0006320 -0.0000713 0.0003578 -0.0000050 0.0003060 0.0000289 0.0000350 -0.0000095 0.0001096 -0.0001036 0.0002517 0.0000583 0.0008416 0.0000112 0.0004399 0.0000405 0.0006710 0.0002306 0.0000155 -0.0000229 0.0001181 0.0002691 0.0001572 0.0000511 0.0003105 -0.0000209 0.0001147 -0.0000087 0.0004394 0.0001316 0.0005017 0.0000190 0.0004618 0.0001087 0.0004842 0.0000539 0.0004616 -0.0000288 0.0004856 -0.0000334 0.0003418 0.0001376 0.0004382 -0.0000507 0.0003762 -0.0000505 0.0001793 -0.0000370 -0.0001166 -0.0000428 0.0001543 -0.0001218 0.0001985 -0.0000868 0.0001742 -0.0000764 0.0001747
-0.0000990 0.0006152 0.0000319 0.0002470 -0.0000532 0.0003500 -0.0000571 0.0001711 -0.0001051 0.0005939 -0.0000147 0.0001903 -0.0000419 0.0004368 0.0000115 -0.0000764 -0.0000810 0.0002715 -0.0001672 -0.0000159 -0.0001079 0.0001296 -0.0000572 0.0001701 -0.0000305 0.0005402 -0.0000124 0.0001349 0.0000092 0.0004755 -0.0000675 -0.0001773 -0.0000957 0.0001671 0.0000124 0.0003342 -0.0001756 0.0005556 -0.0000024 0.0001171 -0.0000435 0.0002876 -0.0000245 0.0004714 -0.0000945 0.0003765 -0.0000846 0.0002216 0.0000018 0.0001957 -0.0000647 0.0001526 -0.0000815 0.0006196 0.0001677 0.0004822 -0.0000316 0.0002568 -0.0000842 0.0003732 0.0054692 -0.0056743 -0.0006473 0.0005489 -0.0000304 0.0003992 -0.0021564 0.0023498 0.0002230 -0.0001590 0.0000004 0.0001715 0.0000084 0.0004130 -0.0000046 0.0004306 0.0000669 0.0007050 -0.0000583 0.0003056 -0.0000381 0.0002928 -0.0000155 0.0004355 -0.0000663 0.0002161 -0.0000211 0.0002032 0.0000097 -0.0000397 -0.0000148 0.0000383 -0.0000867 0.0001055 0.0000494 0.0006451 0.0000105 0.0003474 0.0000351 0.0004609 0.0002287 -0.0001321 -0.0000162 0.0000184 0.0002670 -0.0000039 0.0000575 0.0000780 -0.0000245 0.0000652 -0.0000175 0.0002094 0.0001204 0.0004319 0.0000059 0.0002766 0.0001261 0.0004347 0.0000495 0.0004486 -0.0000225 0.0004990 -0.0000647 0.0003887 0.0000672 0.0005153 -0.0000674 0.0005950 -0.0000490 0.0003423 -0.0000064 -0.0000851 -0.0000111 0.0003883 -0.0001069 0.0005259 -0.0000521 0.0003098 -0.0000908 0.0004373
-0.0000735 0.0010430 0.0000230 0.0003473 -0.0000697 0.0005491 -0.0000650 0.0002597 -0.0001047 0.0006560 -0.0000354 0.0003196 -0.0000204 0.0006031 -0.0000299 0.0000183 -0.0000477 0.0003455 -0.0001848 -0.0000382 -0.0001467 0.0001695 -0.0001299 0.0002381 -0.0000442 0.0005720 -0.0000293 0.0001259 -0.0000041 0.0004591 -0.0001216 -0.0002385 -0.0001133 0.0001517 0.0000285 0.0003349 -0.0002121 0.0005709 -0.0000122 0.0001209 -0.0000799 0.0003034 -0.0000305 0.0004345 -0.0001038 0.0003374 -0.0000409 0.0001451 0.0000142 0.0001441 -0.0000692 0.0001544 -0.0000673 0.0005319 -0.0004570 0.0007803 0.0000079 0.0001802 -0.0000768 0.0002050 -0.0035150 -0.0026758 -0.0009560 0.0009375 -0.0003458 0.0001496 -0.0047685 0.0040447 -0.0000284 0.0001460 -0.0000006 0.0003790 0.0000141 0.0006701 -0.0000092 0.0005724 0.0000712 0.0009255 -0.0000691 0.0005862 -0.0000545 0.0005273 -0.0000228 0.0008114 -0.0000734 0.0004657 0.0000009 0.0003939 -0.0000099 0.0001680 -0.0000192 0.0001535 -0.0000797 0.0002997 0.0000538 0.0010199 0.0000081 0.0005322 0.0000459 0.0007857 0.0002412 0.0001078 -0.0000453 0.0002104 0.0002706 0.0002260 0.0000580 0.0004408 -0.0000295 0.0001781 -0.0000091 0.0005710 0.0001191 0.0005115 -0.0000079 0.0005984 0.0001099 0.0006005 0.0000242 0.0005713 -0.0000120 0.0005789 -0.0001135 0.0005261 0.0000616 0.0005398 0.0000210 0.0005919 0.0000135 0.0003005 -0.0000432 0.0000004 -0.0000984 0.0004644 -0.0000977 0.0005020 -0.0000604 0.0003439 -0.0000977 0.0004407
-0.0000829 0.0006724 0.0000041 0.0003058 -0.0000855 0.0002256 -0.0000733 0.0001233 -0.0001354 0.0002303 -0.0000168 0.0001526 -0.0000028 0.0003517 -0.0000483 -0.0000895 -0.0000374 0.0002121 -0.0001782 -0.0001430 -0.0001320 0.0000558 -0.0001343 0.0000426 -0.0000457 0.0003482 -0.0000206 -0.0000010 -0.0000080 0.0003270 -0.0001200 -0.0003100 -0.0000988 0.0000033 0.0000373 0.0000901 -0.0002093 0.0003804 -0.0000106 0.0000282 -0.0000832 0.0001727 -0.0000215 0.0002736 -0.0000965 0.0001282 -0.0000031 -0.0000860 0.0000266 -0.0000133 -0.0000155 -0.0000645 -0.0000555 0.0001954 -0.0004379 0.0005796 -0.0000265 -0.0000205 0.0000657 -0.0000533 -0.0063407 0.0060728 -0.0009323 0.0012033 -0.0009455 0.0006239 -0.0033602 0.0022454 -0.0002128 0.0000833 -0.0000014 0.0003780 0.0000139 0.0006794 -0.0000095 0.0005878 0.0000705 0.0009466 -0.0000757 0.0005745 -0.0000615 0.0005346 -0.0000268 0.0008159 -0.0000831 0.0004642 0.0000014 0.0003774 -0.0000241 0.0001667 -0.0000302 0.0001547 -0.0001145 0.0003277 0.0000553 0.0010546 0.0000089 0.0005806 0.0000445 0.0008237 0.0002447 0.0000984 -0.0000383 0.0001887 0.0002758 0.0002119 0.0000406 0.0004067 -0.0000287 0.0001877 -0.0000114 0.0005189 0.0001153 0.0004826 -0.0000153 0.0005090 0.0001086 0.0005701 0.0000252 0.0005342 -0.0000575 0.0005838 -0.0000590 0.0003826 0.0000209 0.0005444 0.0000221 0.0004074 0.0000236 0.0001844 -0.0000288 -0.0000215 -0.0000947 0.0002985 -0.0001106 0.0003103 -0.0000742 0.0002838 -0.0000801 0.0002814
-0.0000504 0.0002275 0.0000138 0.0001482 -0.0000833 0.0000394 -0.0000569 -0.0000263 0.0000041 0.0000786 -0.0000042 -0.0000059 -0.0000343 0.0001651 -0.0000413 -0.0001443 -0.0000684 0.0001147 -0.0001474 -0.0001159 -0.0001116 0.0000439 -0.0002011 0.0000967 -0.0000317 0.0002491 -0.0000282 -0.0000597 -0.0000134 0.0002488 -0.0000667 -0.0002298 -0.0000671 -0.0000284 0.0000178 0.0000571 -0.0002083 0.0003781 -0.0000066 -0.0000091 -0.0000378 0.0001283 -0.0000219 0.0002658 -0.0000873 0.0001532 -0.0000158 -0.0000628 -0.0000499 0.0000452 -0.0000086 -0.0000900 -0.0000515 0.0002602 -0.0000878 0.0004550 -0.0000508 0.0000241 0.0000672 0.0000238 -0.0104182 0.0099692 -0.0010751 0.0014003 -0.0012634 0.0014621 -0.0003890 0.0000979 -0.0014210 0.0013149 -0.0000040 0.0002799 0.0000077 0.0005708 -0.0000107 0.0005231 0.0000632 0.0008485 -0.0000703 0.0004395 -0.0000507 0.0004158 -0.0000176 0.0006163 -0.0000795 0.0003377 -0.0000216 0.0002784 -0.0000062 0.0000398 -0.0000332 0.0000928 -0.0001236 0.0002081 0.0000448 0.0008282 0.0000035 0.0004774 0.0000241 0.0006200 0.0002401 -0.0000263 -0.0000142 0.0000814 0.0002709 0.0000731 0.0000504 0.0002090 -0.0000327 0.0001503 -0.0000157 0.0003267 0.0001098 0.0003988 -0.0000128 0.0003765 0.0000971 0.0005875 0.0000422 0.0005278 -0.0000235 0.0005978 -0.0000603 0.0004171 0.0000208 0.0006041 -0.0003726 0.0006898 -0.0000183 0.0004034 0.0000367 -0.0000721 -0.0001002 0.0005669 -0.0001218 0.0006507 -0.0000552 0.0004162 -0.0000754 0.0005382
-0.0000300 0.0005934 0.0000147 0.0001828 -0.0000733 0.0003403 -0.0000503 0.0000762 0.0000153 0.0005135 -0.0000691 0.0001767 -0.0000413 0.0003915 -0.0000485 -0.0000238 -0.0000908 0.0002352 -0.0001563 -0.0000285 -0.0001485 0.0001739 -0.0002459 0.0002956 -0.0000322 0.0004495 -0.0000411 -0.0000171 -0.0000240 0.0003130 -0.0000814 -0.0001345 -0.0000869 0.0001041 0.0000133 0.0002639 -0.0002395 0.0005788 -0.0000152 0.0000621 -0.0000584 0.0002520 -0.0000279 0.0004150 -0.0001040 0.0003800 -0.0000104 0.0000732 0.0000208 0.0001216 -0.0001226 0.0000872 -0.0000327 0.0004141 0.0000021 0.0004206 -0.0000142 0.0001098 -0.0001585 0.0001734 0.0032578 -0.0053048 -0.0014436 0.0013737 0.0008589 -0.0001822 0.0013334 -0.0008492 -0.0005672 0.0005369 -0.0000076 0.0004826 0.0000008 0.0008256 -0.0000171 0.0006507 0.0000680 0.0010559 -0.0000763 0.0006831 -0.0000614 0.0006273 -0.0000178 0.0009107 -0.0000807 0.0005529 -0.0000063 0.0004296 0.0000305 0.0001522 -0.0000353 0.0001879 -0.0001241 0.0003869 0.0000347 0.0009810 0.0000037 0.0005798 0.0000147 0.0007568 0.0002380 0.0000541 -0.0000203 0.0001621 0.0002864 0.0001515 0.0000644 0.0002977 -0.0000277 0.0001931 -0.0000264 0.0003907 0.0001076 0.0003904 -0.0000032 0.0003052 0.0000949 0.0006031 0.0000279 0.0005401 -0.0000149 0.0006058 -0.0001003 0.0004561 0.0001001 0.0005056 -0.0006746 0.0009440 -0.0000525 0.0004305 -0.0000189 -0.0000282 -0.0001435 0.0006008 -0.0001110 0.0006045 -0.0000567 0.0004380 -0.0000768 0.0005446
-0.0000912 0.0004854 -0.0000272 0.0002367 -0.0000894 0.0002067 -0.0000611 0.0000697 -0.0000995 0.0003952 -0.0000612 0.0001454 -0.0000302 0.0003580 -0.0000641 -0.0000631 -0.0000744 0.0001952 -0.0001913 -0.0000641 -0.0001685 0.0001200 -0.0000748 0.0000458 -0.0000423 0.0004035 -0.0000359 -0.0000771 -0.0000226 0.0002926 -0.0001011 -0.0002215 -0.0001034 0.0000438 0.0000388 0.0001610 -0.0002427 0.0004611 -0.0000202 0.0000416 -0.0001065 0.0002141 -0.0000218 0.0003747 -0.0001040 0.0002808 -0.0000037 -0.0000556 0.0000276 0.0001117 -0.0001341 0.0000013 -0.0000041 0.0002425 -0.0000633 0.0000892 -0.0000359 0.0000477 -0.0001577 0.0000807 0.0039515 0.0004218 -0.0003503 0.0003379 0.0011535 -0.0010310 0.0025825 -0.0032351 -0.0005435 0.0004059 -0.0000110 0.0004895 -0.0000020 0.0008330 -0.0000192 0.0006470 0.0000687 0.0010571 -0.0000850 0.0006645 -0.0000577 0.0006135 -0.0000199 0.0008801 -0.0000837 0.0005305 0.0000053 0.0004015 0.0000147 0.0001749 -0.0000350 0.0001750 -0.0001361 0.0003953 0.0000220 0.0009241 0.0000003 0.0005709 0.0000059 0.0007010 0.0002333 0.0000131 -0.0000218 0.0001345 0.0002872 0.0001094 0.0000500 0.0002147 -0.0000222 0.0001831 -0.0000246 0.0002841 0.0001029 0.0003377 0.0000065 0.0001506 0.0001055 0.0005313 0.0000239 0.0004891 -0.0000299 0.0005574 -0.0000934 0.0003707 0.0000754 0.0004933 -0.0004729 0.0007708 -0.0000739 0.0003536 -0.0000208 -0.0000384 -0.0000969 0.0004319 -0.0000853 0.0003888 -0.0000322 0.0003580 -0.0000790 0.0004093
-0.0001222 0.0000580 -0.0000486 0.0001397 -0.0000948 -0.0001294 -0.0000480 -0.0000564 -0.0000725 -0.0000941 -0.0000218 -0.0000353 -0.0000070 0.0001011 -0.0000392 -0.0001848 -0.0000698 0.0000469 -0.0001457 -0.0001507 -0.0001304 -0.0000217 -0.0000755 -0.0001124 -0.0000454 0.0001688 -0.0000441 -0.0001557 -0.0000228 0.0001948 -0.0000947 -0.0002486 -0.0000961 -0.0001128 0.0000334 -0.0000360 -0.0002019 0.0002296 -0.0000166 -0.0000498 -0.0000979 0.0001000 -0.0000197 0.0002684 -0.0000761 0.0000814 0.0000297 -0.0002326 -0.0000058 0.0000309 -0.0001137 -0.0002028 -0.0000032 0.0000275 -0.0001594 -0.0000827 -0.0000311 -0.0000933 0.0000033 0.0000300 0.0026593 0.0013915 0.0003547 -0.0000911 -0.0000950 -0.0001530 0.0021316 -0.0016935 -0.0017450 0.0022579 -0.0000135 0.0004018 0.0000030 0.0007208 -0.0000192 0.0005718 0.0000659 0.0009522 -0.0000900 0.0005720 -0.0000502 0.0005107 -0.0000271 0.0007576 -0.0000810 0.0004249 -0.0000040 0.0003468 -0.0000025 0.0001286 -0.0000407 0.0001413 -0.0001217 0.0002963 0.0000088 0.0008572 -0.0000137 0.0004846 0.0000014 0.0006174 0.0002408 0.0000523 -0.0000310 0.0001575 0.0002710 0.0001323 0.0000485 0.0003133 -0.0000236 0.0002093 -0.0000241 0.0004354 0.0001012 0.0003496 -0.0000071 0.0004359 0.0001015 0.0007057 0.0000329 0.0006573 -0.0000537 0.0007504 -0.0001752 0.0005806 0.0000253 0.0006726 -0.0000895 0.0006198 -0.0000415 0.0004133 -0.0000207 -0.0000137 -0.0001177 0.0004536 -0.0000853 0.0003768 -0.0000225 0.0003186 -0.0000807 0.0003421
-0.0000262 0.0001903 -0.0000356 0.0000652 -0.0000800 0.0000534 -0.0000425 -0.0000011 -0.0000484 0.0001474 -0.0000161 -0.0000211 0.0000081 0.0001601 -0.0000197 -0.0001237 -0.0000714 0.0000725 -0.0001074 -0.0001044 -0.0001026 0.0000173 -0.0001681 -0.0000004 -0.0000386 0.0002588 -0.0000503 -0.0001366 -0.0000203 0.0002087 -0.0001073 -0.0001194 -0.0000962 -0.0000251 0.0000049 0.0001012 -0.0001737 0.0003536 -0.0000197 -0.0000304 -0.0001186 0.0001918 -0.0000302 0.0003634 -0.0000564 0.0002065 0.0000105 -0.0000651 0.0000096 0.0000793 -0.0000770 -0.0001855 0.0000192 0.0001526 0.0001473 0.0000456 -0.0000375 0.0000082 -0.0000514 0.0002784 0.0054923 -0.0045231 0.0003419 0.0001706 -0.0004926 0.0004531 -0.0025570 0.0019294 -0.0007369 0.0013478 -0.0000136 0.0003380 0.0000061 0.0006458 -0.0000184 0.0005261 0.0000576 0.0008972 -0.0000962 0.0004972 -0.0000572 0.0004537 -0.0000244 0.0006560 -0.0000800 0.0003421 -0.0000194 0.0003165 -0.0000230 0.0000892 -0.0000528 0.0001275 -0.0000994 0.0002088 0.0000007 0.0007292 -0.0000180 0.0003999 -0.0000124 0.0005182 0.0002442 -0.0000013 -0.0000418 0.0001519 0.0002763 0.0000736 0.0000489 0.0002224 -0.0000264 0.0001989 -0.0000332 0.0003570 0.0001005 0.0003313 -0.0000160 0.0003668 0.0000975 0.0007220 0.0000360 0.0006584 -0.0000328 0.0007514 -0.0001712 0.0005140 -0.0000318 0.0006751 -0.0000886 0.0004607 0.0000032 0.0003382 -0.0000516 -0.0000190 -0.0001303 0.0003506 -0.0000761 0.0001766 -0.0000553 0.0002505 -0.0000818 0.0002083
0.0000657 0.0003023 -0.0000079 0.0000945 -0.0000547 0.0000971 -0.0000446 0.0000792 -0.0000586 0.0001896 -0.0000338 0.0000504 0.0000238 0.0002639 -0.0000301 -0.0001031 -0.0000671 0.0000987 -0.0001310 -0.0001071 -0.0001218 0.0000202 -0.0001681 -0.0000307 -0.0000332 0.0002938 -0.0000529 -0.0001427 -0.0000196 0.0002342 -0.0001235 -0.0001878 -0.0001029 -0.0000193 0.0000332 0.0001130 -0.0001856 0.0003397 -0.0000239 -0.0000239 -0.0000840 0.0001320 -0.0000207 0.0003715 -0.0000635 0.0001669 0.0000276 -0.0000599 0.0000145 0.0000313 -0.0001271 -0.0001850 0.0000405 0.0000383 0.0000717 0.0001746 -0.0000746 0.0000145 -0.0000932 0.0002348 -0.0005590 0.0062125 -0.0001028 0.0002859 -0.0004828 0.0002625 0.0001240 -0.0014502 0.0003677 -0.0001862 -0.0000118 0.0002317 0.0000111 0.0004934 -0.0000214 0.0004515 0.0000529 0.0007792 -0.0000892 0.0003463 -0.0000475 0.0003223 -0.0000186 0.0004502 -0.0000750 0.0001957 -0.0000320 0.0002227 -0.0000227 0.0000003 -0.0000564 0.0000635 -0.0001036 0.0001065 -0.0000173 0.0004695 -0.0000273 0.0002539 -0.0000364 0.0002864 0.0002333 -0.0001188 -0.0000305 0.0000843 0.0002742 -0.0000516 0.0000379 0.0000523 -0.0000229 0.0001448 -0.0000252 0.0001583 0.0000988 0.0002553 -0.0000152 0.0001590 0.0001048 0.0006262 0.0000371 0.0005332 -0.0000088 0.0006395 -0.0001028 0.0003335 -0.0000097 0.0005610 -0.0002096 0.0003767 -0.0000202 0.0003549 -0.0000266 -0.0000622 -0.0000924 0.0004559 -0.0001109 0.0003457 -0.0000409 0.0002919 -0.0000742 0.0003431
-0.0000264 0.0000714 0.0000073 0.0000019 -0.0000592 -0.0001367 -0.0000350 0.0000150 -0.0000890 -0.0001274 -0.0000582 -0.0000220 0.0000374 0.0001078 -0.0000224 -0.0002058 -0.0000475 -0.0000350 -0.0001006 -0.0001863 -0.0001071 -0.0000651 -0.0001628 -0.0001094 -0.0000414 0.0001579 -0.0000586 -0.0001962 -0.0000224 0.0002099 -0.0001107 -0.0002182 -0.0000728 -0.0001483 0.0000693 -0.0000041 -0.0001643 0.0001408 -0.0000198 -0.0000913 -0.0000553 0.0000072 -0.0000112 0.0003278 -0.0000387 0.0000093 0.0000352 -0.0001894 -0.0000259 -0.0001110 -0.0001492 -0.0003570 0.0000217 -0.0001642 -0.0001721 0.0001676 -0.0000304 -0.0002001 -0.0001500 0.0001409 0.0051046 -0.0022482 -0.0003903 0.0004578 -0.0002588 0.0001404 0.0023983 -0.0027374 0.0001787 -0.0002035 -0.0000158 0.0003751 0.0000090 0.0006288 -0.0000265 0.0005319 0.0000591 0.0009157 -0.0000817 0.0005169 -0.0000527 0.0004597 -0.0000225 0.0006568 -0.0000744 0.0003438 -0.0000091 0.0003097 -0.0000096 0.0001040 -0.0000565 0.0001382 -0.0000668 0.0001970 -0.0000391 0.0004462 -0.0000319 0.0002220 -0.0000595 0.0002594 0.0002236 -0.0000803 -0.0000309 0.0001331 0.0002776 -0.0000048 0.0000316 0.0001410 -0.0000178 0.0001487 -0.0000185 0.0001715 0.0000975 0.0002262 -0.0000102 0.0000530 0.0001212 0.0005747 0.0000486 0.0004566 0.0000008 0.0005710 -0.0001114 0.0002217 0.0000673 0.0004434 0.0000099 0.0002214 -0.0000663 0.0003126 -0.0000442 -0.0001336 -0.0000436 0.0003103 -0.0001340 0.0002625 -0.0000732 0.0002525 -0.0000697 0.0002570
-0.0000869 0.0000137 -0.0000212 -0.0001010 -0.0000624 -0.0000859 -0.0000266 0.0000053 -0.0000526 -0.0000660 -0.0000264 -0.0001209 0.0000228 0.0000713 -0.0000158 -0.0002014 -0.0000148 -0.0000948 -0.0000849 -0.0001428 -0.0000876 -0.0000533 -0.0000137 -0.0001584 -0.0000475 0.0002096 -0.0000497 -0.0002207 -0.0000166 0.0002276 -0.0000823 -0.0001463 -0.0000445 -0.0001499 0.0000791 0.0000527 -0.0001313 0.0001697 -0.0000179 -0.0000959 -0.0000829 0.0000866 -0.0000173 0.0004180 -0.0000044 0.0000839 -0.0000120 -0.0000980 -0.0000115 -0.0000422 -0.0000575 -0.0003966 -0.0000173 0.0000048 -0.0002628 0.0003306 -0.0000210 -0.0001645 -0.0001548 0.0002374 0.0061357 -0.0106917 0.0001914 0.0002306 -0.0006371 0.0009402 -0.0020491 0.0007446 -0.0002728 -0.0000747 -0.0000153 0.0003219 0.0000023 0.0005393 -0.0000188 0.0004700 0.0000544 0.0008414 -0.0000721 0.0004256 -0.0000459 0.0003730 -0.0000132 0.0005237 -0.0000659 0.0002423 -0.0000094 0.0002471 0.0000272 0.0000030 -0.0000785 0.0001225 -0.0000574 0.0001303 -0.0000737 0.0001263 -0.0000429 0.0000275 -0.0000997 -0.0000250 0.0002162 -0.0001800 -0.0000090 0.0000583 0.0002792 -0.0000919 0.0000390 0.0000007 -0.0000250 0.0000999 -0.0000177 0.0000250 0.0001022 0.0001889 -0.0000019 -0.0001323 0.0001358 0.0004601 0.0000822 0.0003052 0.0000243 0.0004735 -0.0000418 0.0000033 -0.0000322 0.0004770 0.0000722 0.0001536 -0.0000882 0.0002145 -0.0000951 -0.0001963 -0.0000376 0.0001362 -0.0001220 0.0000015 -0.0000848 0.0001407 -0.0000673 0.0000771
-0.0000302 0.0003319 -0.0000526 -0.0000389 -0.0000412 0.0002499 -0.0000174 0.0001460 0.0000433 0.0002755 -0.0000314 -0.0000020 0.0000094 0.0003266 -0.0000072 -0.0000931 -0.0000050 0.0000306 -0.0001045 -0.0000835 -0.0001123 0.0000542 0.0000545 -0.0000157 -0.0000362 0.0004502 -0.0000431 -0.0001547 -0.0000145 0.0003311 -0.0000915 -0.0001218 -0.0000757 0.0000128 0.0000777 0.0002639 -0.0001503 0.0003825 -0.0000181 -0.0000193 -0.0000632 0.0001867 -0.0000150 0.0005450 -0.0000189 0.0002375 0.0000177 -0.0000300 -0.0000813 0.0001287 -0.0000006 -0.0003317 -0.0000328 0.0000473 0.0000515 -0.0000773 -0.0000396 -0.0001130 0.0000796 0.0000715 0.0018580 -0.0026794 0.0001658 -0.0000473 -0.0005601 0.0003802 0.0013743 -0.0022297 -0.0004483 -0.0000557 -0.0000103 0.0001849 0.0000047 0.0003148 -0.0000152 0.0003485 0.0000506 0.0006599 -0.0000554 0.0002484 -0.0000253 0.0001916 -0.0000093 0.0002759 -0.0000569 0.0000556 -0.0000154 0.0001447 0.0000399 -0.0000779 -0.0000383 0.0000079 -0.0000698 0.0000517 -0.0001071 -0.0001983 -0.0000756 -0.0002230 -0.0001344 -0.0003205 0.0002025 -0.0002032 0.0000085 0.0000446 0.0002675 -0.0001374 0.0000589 0.0000444 -0.0000235 0.0000794 -0.0000138 0.0001481 0.0001050 0.0002045 -0.0000221 0.0001266 0.0001383 0.0005565 0.0000775 0.0003531 0.0000200 0.0005920 0.0000214 0.0000279 0.0000064 0.0005037 0.0001287 0.0001753 -0.0001076 0.0002435 -0.0001614 -0.0001820 -0.0001138 0.0001034 -0.0001348 -0.0000811 -0.0000297 0.0000389 -0.0000335 -0.0000248
-0.0000466 0.0000703 -0.0000361 -0.0000570 -0.0000423 0.0000392 -0.0000149 0.0001328 0.0000054 -0.0000362 -0.0000123 -0.0000954 0.0000441 0.0001873 0.0000143 -0.0002252 0.0000127 -0.0000908 -0.0000808 -0.0002073 -0.0001062 -0.0000389 0.0001284 -0.0001667 -0.0000375 0.0003344 -0.0000474 -0.0001884 -0.0000126 0.0003237 -0.0000646 -0.0002329 -0.0000901 -0.0000632 0.0000609 0.0001851 -0.0001105 0.0001754 -0.0000118 -0.0000749 -0.0000239 0.0000420 -0.0000063 0.0005128 -0.0000083 0.0001070 -0.0000135 -0.0000946 -0.0000925 0.0000724 -0.0000607 -0.0004193 -0.0000042 -0.0002059 0.0002772 -0.0004666 0.0000083 -0.0002902 0.0000127 -0.0000883 0.0036550 -0.0033925 -0.0000366 -0.0001233 0.0004726 -0.0009556 0.0032668 -0.0027443 0.0000990 -0.0004672 -0.0000096 0.0001078 0.0000114 0.0001499 -0.0000104 0.0002837 0.0000447 0.0005684 -0.0000455 0.0001425 -0.0000224 0.0000821 -0.0000166 0.0001414 -0.0000536 -0.0000667 0.0000100 0.0000451 0.0000172 -0.0001285 -0.0000101 -0.0000719 -0.0000666 -0.0000176 -0.0001423 -0.0005086 -0.0000940 -0.0004378 -0.0001663 -0.0005854 0.0001854 -0.0002779 0.0000032 0.0000117 0.0002619 -0.0002098 0.0000563 -0.0000466 -0.0000267 0.0000225 -0.0000228 0.0000628 0.0001024 0.0001696 -0.0000111 0.0000510 0.0001521 0.0005277 0.0000699 0.0002236 0.0000378 0.0005084 0.0000273 -0.0001120 0.0001478 0.0002952 0.0000673 0.0001891 -0.0000382 0.0000646 -0.0001701 -0.0002197 -0.0001116 -0.0000379 -0.0001255 -0.0002835 0.0000060 -0.0000925 -0.0000292 -0.0001617
-0.0000854 -0.0003969 -0.0000108 -0.0002143 -0.0000493 -0.0002943 -0.0000087 0.0000380 -0.0000007 -0.0005218 0.0000184 -0.0002941 0.0000824 -0.0001042 0.0000345 -0.0003786 0.0000384 -0.0002805 -0.0000486 -0.0003091 -0.0000553 -0.0002026 0.0001632 -0.0004260 -0.0000257 0.0000985 -0.0000560 -0.0002651 -0.0000058 0.0002527 -0.0000265 -0.0002841 -0.0000475 -0.0002642 0.0000683 0.0000071 -0.0000209 -0.0001124 -0.0000038 -0.0001805 0.0000107 -0.0000875 0.0000089 0.0004749 0.0000350 -0.0000221 -0.0000323 -0.0001685 -0.0000381 -0.0000139 -0.0000706 -0.0005473 0.0000281 -0.0002826 0.0002087 -0.0003563 -0.0000037 -0.0003357 -0.0000398 -0.0001322 -0.0046103 0.0095723 -0.0008869 0.0005518 0.0006863 -0.0011863 0.0016431 -0.0015464 0.0007082 -0.0006785 -0.0000071 -0.0000022 0.0000134 -0.0000530 0.0000001 0.0001899 0.0000365 0.0004341 -0.0000293 -0.0000011 -0.0000123 -0.0000815 -0.0000144 -0.0000779 -0.0000371 -0.0002378 0.0000071 -0.0000541 0.0000279 -0.0002518 -0.0000436 -0.0001157 -0.0000919 -0.0001099 -0.0001887 -0.0009772 -0.0001163 -0.0007409 -0.0002070 -0.0009989 0.0001648 -0.0004049 0.0000069 -0.0000664 0.0002446 -0.0003094 0.0000577 -0.0001936 -0.0000307 -0.0000629 -0.0000216 -0.0000980 0.0001067 0.0001407 0.0000202 -0.0001428 0.0001870 0.0004629 0.0001035 0.0000939 0.0000206 0.0005009 -0.0000181 -0.0002462 0.0000846 0.0003512 0.0000337 0.0000601 0.0000392 0.0000751 -0.0001327 -0.0002492 -0.0000139 0.0001089 -0.0001388 -0.0001127 0.0000077 -0.0000168 -0.0000502 0.0000439
-0.0000133 -0.0001920 -0.0000154 -0.0002855 -0.0000208 -0.0000053 -0.0000009 0.0001343 0.0000762 -0.0002414 0.0000299 -0.0002441 0.0000762 0.0000683 0.0000517 -0.0002974 0.0000182 -0.0001761 -0.0000558 -0.0002430 -0.0000427 -0.0001347 0.0000902 -0.0003011 -0.0000118 0.0002736 -0.0000450 -0.0002410 0.0000002 0.0003185 -0.0000562 -0.0001973 -0.0000286 -0.0001808 0.0000741 0.0001618 0.0000295 0.0000110 -0.0000102 -0.0001404 0.0000100 0.0000151 0.0000071 0.0006022 0.0000490 0.0001450 0.0000201 -0.0001365 -0.0000142 0.0001795 0.0000384 -0.0006322 0.0000407 -0.0000211 -0.0000025 0.0001001 -0.0000241 -0.0001702 -0.0000227 0.0001219 -0.0057434 0.0138326 0.0001045 0.0000787 0.0000792 -0.0003148 0.0001463 -0.0021579 0.0000555 0.0000552 -0.0000114 0.0001472 0.0000030 0.0000877 -0.0000046 0.0002741 0.0000302 0.0005617 -0.0000252 0.0001783 -0.0000095 0.0000632 -0.0000130 0.0000933 -0.0000302 -0.0000944 -0.0000206 0.0000747 0.0000341 -0.0001026 -0.0000393 0.0000020 -0.0000523 0.0000609 -0.0002105 -0.0010746 -0.0001258 -0.0008118 -0.0002292 -0.0010280 0.0001440 -0.0003547 0.0000234 -0.0000188 0.0002358 -0.0002441 0.0000677 -0.0001072 -0.0000204 -0.0000240 -0.0000097 -0.0000710 0.0001394 0.0003396 0.0000338 -0.0001986 0.0002547 0.0005662 0.0001375 0.0001669 0.0000532 0.0004809 -0.0000721 -0.0003266 0.0001056 0.0003180 0.0001806 -0.0002954 -0.0000195 0.0002212 -0.0001985 -0.0004904 0.0000795 -0.0000475 -0.0001735 -0.0001669 0.0000116 -0.0000843 -0.0000277 0.0000046
0.0000057 -0.0000800 -0.0000290 -0.0002133 0.0000073 0.0000152 -0.0000033 0.0002161 0.0000972 -0.0003227 0.0000658 -0.0002330 0.0000936 0.0001641 0.0000567 -0.0003220 -0.0000125 -0.0001110 -0.0000745 -0.0002998 -0.0000655 -0.0001380 0.0000020 -0.0002031 -0.0000127 0.0003507 -0.0000358 -0.0002638 0.0000007 0.0003589 -0.0000595 -0.0003431 -0.0000387 -0.0001749 0.0001299 0.0001081 0.0000368 -0.0000338 -0.0000135 -0.0001395 0.0000059 -0.0000242 0.0000069 0.0006149 0.0000551 0.0000940 -0.0000263 -0.0001896 0.0000721 0.0002828 0.0000080 -0.0008214 0.0000170 -0.0000615 0.0000395 0.0000259 0.0000265 -0.0002547 -0.0001515 0.0002249 -0.0072882 0.0117125 0.0011660 -0.0008378 -0.0003775 0.0000506 0.0004564 -0.0014139 -0.0003146 0.0000629 -0.0000143 0.0001044 0.0000124 0.0000321 -0.0000020 0.0002413 0.0000210 0.0004746 -0.0000158 0.0001002 -0.0000062 0.0000279 -0.0000152 -0.0000265 -0.0000239 -0.0001674 -0.0000256 0.0000207 0.0000171 -0.0001194 -0.0000208 0.0000094 0.0000112 0.0000455 -0.0002408 -0.0013782 -0.0001332 -0.0009908 -0.0002612 -0.0012473 0.0001244 -0.0004438 0.0000662 -0.0000846 0.0002268 -0.0002996 0.0000682 -0.0002439 -0.0000038 -0.0000491 -0.0000081 -0.0002103 0.0001551 0.0004179 0.0000397 -0.0003497 0.0002808 0.0005259 0.0001436 0.0000243 0.0000966 0.0002778 0.0000193 -0.0004578 0.0000930 0.0001735 0.0003477 -0.0006179 -0.0000553 0.0002083 -0.0002292 -0.0006447 0.0001256 -0.0002873 -0.0001663 -0.0003422 0.0000337 -0.0002218 -0.0000052 -0.0001887
-0.0000403 -0.0003681 -0.0000437 -0.0002364 -0.0000086 -0.0002160 0.0000008 0.0001655 0.0000924 -0.0006663 0.0000692 -0.0003472 0.0001228 -0.0000271 0.0000770 -0.0004457 0.0000054 -0.0002309 -0.0000464 -0.0004039 -0.0000395 -0.0002593 -0.0000703 -0.0002441 -0.0000132 0.0002124 -0.0000546 -0.0002890 0.0000060 0.0003094 -0.0000511 -0.0004117 -0.0000255 -0.0002982 0.0001812 -0.0000772 0.0000465 -0.0002091 -0.0000043 -0.0002138 0.0000435 -0.0001617 0.0000201 0.0005344 0.0000642 -0.0000667 0.0000087 -0.0003789 0.0000969 0.0002660 -0.0000606 -0.0010917 0.0000663 -0.0003393 0.0003104 -0.0005915 0.0000330 -0.0004078 -0.0002128 0.0000452 -0.0137410 0.0151066 0.0000568 -0.0003928 0.0002442 -0.0006230 0.0015626 0.0005030 0.0001919 -0.0008162 -0.0000072 -0.0000220 0.0000229 -0.0001496 0.0000093 0.0001671 0.0000190 0.0003458 0.0000079 -0.0000424 0.0000014 -0.0001029 -0.0000113 -0.0002136 -0.0000049 -0.0003321 -0.0000062 -0.0000630 0.0000093 -0.0001662 -0.0000013 -0.0000556 0.0000145 -0.0000316 -0.0002612 -0.0015969 -0.0001566 -0.0012005 -0.0002837 -0.0014487 0.0001104 -0.0004639 0.0000751 -0.0001058 0.0001991 -0.0002943 0.0000768 -0.0001753 0.0000012 -0.0000719 -0.0000091 -0.0000435 0.0001360 0.0003610 0.0000276 -0.0000906 0.0002500 0.0005589 0.0001381 -0.0000413 0.0001287 0.0003328 0.0000633 -0.0003022 0.0000812 0.0002505 0.0001675 -0.0003474 -0.0000195 0.0003004 -0.0002213 -0.0004827 0.0000674 -0.0002675 -0.0001421 -0.0002919 0.0000467 -0.0002165 -0.0000042 -0.0002120
-0.0000099 -0.0004140 -0.0000473 -0.0003381 -0.0000191 -0.0000884 0.0000074 0.0001797 0.0001295 -0.0005166 0.0000573 -0.0003778 0.0001335 -0.0000664 0.0001082 -0.0004438 0.0000359 -0.0002870 -0.0000105 -0.0003965 -0.0000238 -0.0002597 0.0000363 -0.0003740 -0.0000004 0.0002278 -0.0000524 -0.0002777 0.0000142 0.0003192 -0.0000451 -0.0003408 0.0000238 -0.0003436 0.0001420 0.0000273 0.0000917 -0.0001811 -0.0000000 -0.0002180 0.0000183 -0.0000959 0.0000253 0.0005829 0.0000646 0.0000336 0.0000198 -0.0002721 0.0000502 0.0003555 -0.0001404 -0.0009715 0.0001207 -0.0002493 0.0002788 -0.0004139 0.0000054 -0.0002806 -0.0001282 0.0000171 -0.0109755 0.0145329 -0.0005038 0.0001162 0.0003727 -0.0006007 -0.0018066 0.0038653 0.0008921 -0.0012216 -0.0000077 -0.0000509 0.0000038 -0.0002154 0.0000163 0.0001678 0.0000157 0.0003652 0.0000245 -0.0001022 0.0000117 -0.0001745 0.0000009 -0.0002463 -0.0000018 -0.0003939 0.0000074 -0.0001068 0.0000247 -0.0002028 -0.0000119 -0.0000688 0.0000189 -0.0000841 -0.0002521 -0.0015602 -0.0001541 -0.0012124 -0.0002769 -0.0014097 0.0000976 -0.0004581 0.0000621 -0.0001425 0.0001743 -0.0002843 0.0000810 -0.0002177 0.0000049 -0.0001062 -0.0000052 -0.0000981 0.0001359 0.0003544 0.0000360 -0.0001099 0.0002388 0.0005223 0.0001113 -0.0001353 0.0001034 0.0003389 -0.0000224 -0.0002849 0.0001559 0.0001610 -0.0000502 -0.0000840 -0.0000337 0.0002809 -0.0002662 -0.0004361 -0.0000000 -0.0003172 -0.0001098 -0.0004165 0.0000248 -0.0002525 -0.0000065 -0.0002877
