-0.0000000 -0.0000000 -0.0000000 -0.0000000 -0.0000000 -0.0000000 -0.0000000 -0.0000000 -0.0000000 -0.0000000 -0.0000000 -0.0000000 -0.0000000 -0.0000000 -0.0000000 -0.0000000 -0.0000000 -0.0000000 -0.0000000 -0.0000000 -0.0000000 -0.0000000 -0.0000000 -0.0000000 -0.0000000 -0.0000000 -0.0000000 -0.0000000 -0.0000000 -0.0000000 -0.0000000 -0.0000000 -0.0000000 -0.0000000 -0.0000000 -0.0000000 -0.0000000 -0.0000000 -0.0000000 -0.0000000
-0.0000000 -0.0000000 -0.0000000 -0.0000000 -0.0000000 -0.0000000 -0.0000000 -0.0000000 -0.0000000 -0.0000000 -0.0000000 -0.0000000 -0.0000000 -0.0000000 -0.0000000 -0.0000000 -0.0000000 -0.0000000 -0.0000000 -0.0000000 -0.0000000 -0.0000000 -0.0000000 -0.0000000 -0.0000000 -0.0000000 -0.0000000 -0.0000000 -0.0000000 -0.0000000 -0.0000000 -0.0000000 -0.0000000 -0.0000000 -0.0000000 -0.0000000 -0.0000000 -0.0000000 -0.0000000 -0.0000000
-0.0000085 0.0000162 -0.0000126 0.0000224 -0.0000154 0.0000276 0.0000004 0.0001034 -0.0000143 0.0000332 -0.0000111 0.0000630 -0.0000194 0.0000378 -0.0000082 0.0000492 0.0000176 0.0000326 -0.0000059 0.0000389 0.0000006 0.0001261 -0.0000019 0.0000471 -0.0000026 0.0000660 -0.0000066 0.0000415 -0.0000083 0.0000409 -0.0000033 0.0000693 -0.0000254 -0.0000022 -0.0000157 0.0000641 -0.0000002 0.0000561 -0.0000088 0.0000545
-0.0000161 0.0000267 0.0000086 -0.0000010 -0.0000197 -0.0000105 0.0000020 0.0000784 -0.0000905 0.0001099 -0.0000097 0.0000095 -0.0000232 0.0000334 -0.0000017 -0.0000023 -0.0000150 0.0000257 -0.0000118 -0.0000117 0.0000071 -0.0000107 -0.0000077 0.0000090 -0.0000057 0.0000335 0.0000062 -0.0000067 -0.0000304 0.0000246 0.0000003 0.0000411 -0.0000095 0.0000191 -0.0000165 -0.0000126 0.0000039 -0.0000304 -0.0000075 -0.0001215
-0.0000089 -0.0000547 0.0000097 -0.0000276 -0.0000104 -0.0001906 0.0000114 -0.0001800 -0.0001854 0.0000848 0.0000104 -0.0001892 -0.0000165 -0.0000599 0.0000038 -0.0000468 0.0000242 -0.0000832 -0.0000166 -0.0000283 0.0000189 -0.0003716 0.0000014 -0.0001277 -0.0000062 -0.0001036 -0.0000045 -0.0001023 -0.0000120 -0.0000741 0.0000110 -0.0000792 -0.0000104 -0.0000220 -0.0000046 -0.0001470 0.0000145 -0.0001423 -0.0000113 -0.0002824
0.0000166 -0.0001077 0.0000021 -0.0000402 0.0000165 -0.0001668 0.0000113 -0.0002912 -0.0000634 -0.0001057 0.0000291 -0.0001138 0.0000064 -0.0000936 0.0000240 -0.0000331 0.0000125 -0.0001157 -0.0000348 0.0000120 0.0000178 -0.0003562 0.0000135 -0.0001216 -0.0000055 -0.0001136 -0.0000177 -0.0001027 -0.0000150 -0.0000891 0.0000087 -0.0000806 0.0000175 -0.0000162 -0.0000035 -0.0001260 0.0000213 -0.0001253 0.0000004 -0.0002054
0.0000364 -0.0000522 -0.0000121 0.0000287 0.0000464 -0.0000305 0.0000021 -0.0002824 0.0001179 -0.0002816 0.0000401 0.0000005 0.0000013 -0.0000604 0.0000680 0.0000522 -0.0000377 -0.0000998 -0.0000697 0.0000825 0.0000135 -0.0002709 0.0000066 -0.0000655 -0.0000073 -0.0000698 0.0000222 -0.0001203 -0.0000076 -0.0001110 0.0000098 -0.0000174 0.0000237 -0.0000419 -0.0000071 -0.0000627 0.0000297 -0.0000525 0.0000329 -0.0000688
0.0000245 -0.0000327 -0.0000186 0.0000364 0.0000330 0.0000319 0.0000033 -0.0001463 0.0002036 -0.0003015 0.0000293 0.0000756 -0.0000209 -0.0000341 0.0000996 0.0001365 -0.0000175 -0.0001055 -0.0000616 0.0001101 0.0000114 -0.0000547 -0.0000005 -0.0000103 -0.0000104 0.0000146 0.0000265 -0.0000709 0.0000200 -0.0000895 0.0000035 0.0000726 0.0000322 -0.0000301 0.0000003 0.0000367 0.0000310 0.0000671 0.0000318 0.0001350
0.0000057 -0.0000078 -0.0000219 0.0000467 0.0000065 0.0001238 0.0000031 0.0000862 0.0000573 0.0000289 0.0000015 0.0001910 -0.0000357 0.0000254 0.0001102 0.0001245 -0.0000282 -0.0000874 -0.0000910 0.0000571 0.0000067 0.0002164 -0.0000105 0.0000734 -0.0000127 0.0001286 -0.0000116 0.0000674 -0.0000311 0.0000303 0.0000049 0.0001655 0.0000049 -0.0000083 -0.0000036 0.0001523 0.0000237 0.0002073 0.0000102 0.0003456
-0.0000127 0.0000226 -0.0000041 0.0000664 -0.0000145 0.0002028 0.0000057 0.0003071 -0.0001165 0.0002596 -0.0000323 0.0003062 -0.0000547 0.0001002 0.0001189 0.0001047 -0.0000569 -0.0000040 -0.0001089 0.0000191 -0.0000007 0.0004434 -0.0000223 0.0001564 -0.0000177 0.0002300 -0.0000179 0.0001534 -0.0000657 0.0001319 -0.0000015 0.0002451 -0.0000090 -0.0000053 -0.0000105 0.0002041 0.0000266 0.0002224 0.0000192 0.0003328
-0.0000128 -0.0000326 0.0000051 0.0000444 -0.0000192 0.0000460 0.0000180 0.0001975 -0.0001231 0.0002129 -0.0000460 0.0001206 -0.0000499 0.0000550 0.0000552 0.0000701 -0.0000694 -0.0000473 -0.0001058 -0.0000773 0.0000135 0.0001769 -0.0000143 0.0000551 -0.0000202 0.0001332 -0.0000190 0.0001027 -0.0000477 0.0000672 0.0000014 0.0001817 -0.0000349 0.0000121 0.0000034 0.0000766 0.0000398 0.0000632 0.0000408 0.0000261
-0.0000113 -0.0001748 0.0000113 -0.0000146 -0.0000188 -0.0002487 0.0000431 -0.0001013 0.0001156 -0.0000285 -0.0000377 -0.0001889 -0.0000359 -0.0000693 -0.0000012 0.0000265 -0.0000614 -0.0001582 -0.0001112 -0.0001161 0.0000334 -0.0002413 -0.0000147 -0.0001038 -0.0000200 -0.0000400 -0.0000292 -0.0000235 -0.0000133 -0.0000966 0.0000153 0.0000368 -0.0000457 0.0000044 0.0000165 -0.0000713 0.0000489 -0.0000498 0.0000436 -0.0001619
-0.0000079 -0.0002657 0.0000259 -0.0000576 -0.0000220 -0.0003135 0.0000579 -0.0001311 0.0000978 -0.0000932 -0.0000336 -0.0001634 -0.0000309 -0.0000877 -0.0000202 -0.0000356 -0.0000570 -0.0001624 -0.0000963 -0.0001714 0.0000323 -0.0001878 -0.0000131 -0.0001095 -0.0000193 -0.0000448 -0.0000001 -0.0000691 0.0000045 -0.0001196 0.0000169 0.0000124 0.0000103 -0.0000210 0.0000222 -0.0000802 0.0000468 -0.0000474 0.0000382 -0.0001494
0.0000000 -0.0002625 0.0000421 -0.0000601 -0.0000249 -0.0002637 0.0000621 -0.0000697 0.0000755 -0.0000712 -0.0000274 -0.0000735 -0.0000226 -0.0000468 -0.0000080 -0.0000481 -0.0000342 -0.0001335 -0.0000586 -0.0001200 0.0000236 -0.0000738 -0.0000108 -0.0000721 -0.0000195 -0.0000061 0.0000521 -0.0000930 0.0000532 -0.0001312 0.0000175 0.0000270 0.0000120 -0.0000201 0.0000183 -0.0000484 0.0000450 -0.0000000 0.0000310 -0.0000672
-0.0000010 -0.0002029 0.0000376 -0.0000518 -0.0000303 -0.0001620 0.0000638 0.0000521 0.0001765 -0.0001115 -0.0000272 0.0000482 -0.0000119 0.0000202 -0.0000513 -0.0000361 -0.0000432 -0.0000498 -0.0000348 -0.0000857 0.0000111 0.0001317 -0.0000108 0.0000087 -0.0000249 0.0000800 0.0000337 -0.0000206 0.0000275 -0.0000633 0.0000108 0.0000951 0.0000054 0.0000194 0.0000157 0.0000196 0.0000386 0.0000939 0.0000192 0.0000714
-0.0000074 -0.0001148 0.0000280 -0.0000149 -0.0000349 -0.0000231 0.0000623 0.0002263 -0.0000638 0.0001524 -0.0000363 0.0002243 -0.0000085 0.0001099 -0.0000596 -0.0000127 -0.0000254 0.0000382 -0.0000422 -0.0000134 0.0000011 0.0003523 -0.0000125 0.0001117 -0.0000267 0.0001847 0.0000203 0.0000766 0.0000041 0.0000313 -0.0000026 0.0002039 -0.0000190 0.0000259 0.0000206 0.0001101 0.0000302 0.0001996 -0.0000014 0.0002243
-0.0000090 -0.0000249 0.0000481 -0.0000100 -0.0000419 0.0001146 0.0000552 0.0004145 -0.0001802 0.0003095 -0.0000545 0.0004120 -0.0000291 0.0002411 -0.0000510 0.0000274 0.0000036 0.0001354 -0.0000099 0.0000485 -0.0000030 0.0004515 -0.0000239 0.0002015 -0.0000286 0.0002584 -0.0000188 0.0001627 0.0000164 0.0000489 -0.0000078 0.0002489 -0.0000138 0.0000385 0.0000106 0.0000961 0.0000306 0.0001501 0.0000010 0.0000732
0.0000010 -0.0000642 0.0000626 -0.0000493 -0.0000373 -0.0000633 0.0000596 0.0002285 -0.0001338 0.0002049 -0.0000470 0.0002454 -0.0000094 0.0001816 -0.0001144 -0.0000366 -0.0000202 0.0000708 0.0000187 -0.0000897 0.0000100 0.0001149 -0.0000162 0.0000927 -0.0000265 0.0001353 -0.0000165 0.0000638 0.0000084 -0.0000206 0.0000056 0.0001366 -0.0000443 0.0000113 0.0000083 -0.0000403 0.0000464 -0.0000407 0.0000275 -0.0002741
0.0000183 -0.0001637 0.0000565 -0.0001011 -0.0000089 -0.0003178 0.0000747 -0.0001462 -0.0000775 -0.0000094 -0.0000050 -0.0000102 0.0000219 0.0000175 -0.0001076 -0.0001008 0.0000091 -0.0001001 0.0000288 -0.0001442 0.0000268 -0.0002751 -0.0000016 -0.0000597 -0.0000225 -0.0000303 0.0000429 -0.0001224 0.0000252 -0.0001170 0.0000212 0.0000086 -0.0000409 -0.0000095 0.0000029 -0.0001199 0.0000522 -0.0001232 0.0000280 -0.0003619
0.0000321 -0.0001624 0.0000338 -0.0000798 0.0000136 -0.0002910 0.0000729 -0.0002119 0.0000372 -0.0002079 0.0000193 0.0000282 0.0000184 -0.0000184 -0.0000655 -0.0000763 0.0000602 -0.0001270 0.0000385 -0.0000802 0.0000242 -0.0002919 0.0000043 -0.0000790 -0.0000196 -0.0000425 0.0000792 -0.0001906 0.0000095 -0.0001397 0.0000316 -0.0000126 0.0000057 0.0000073 -0.0000134 -0.0001274 0.0000507 -0.0001135 0.0000186 -0.0003231
0.0000367 -0.0001485 0.0000091 -0.0000340 0.0000120 -0.0002439 0.0000655 -0.0001565 0.0001289 -0.0003037 0.0000111 0.0000700 0.0000174 -0.0000160 -0.0000239 -0.0000556 0.0000171 -0.0000474 0.0000399 -0.0000295 0.0000174 -0.0001933 -0.0000085 -0.0000503 -0.0000197 -0.0000112 0.0000231 -0.0001235 0.0000057 -0.0001310 0.0000308 0.0000024 -0.0000009 0.0000045 -0.0000030 -0.0000979 0.0000534 -0.0000558 0.0000250 -0.0002198
0.0000358 -0.0001226 0.0000208 -0.0000415 0.0000050 -0.0001474 0.0000623 -0.0000185 0.0000234 -0.0000992 -0.0000141 0.0001673 -0.0000003 0.0000622 -0.0000327 -0.0000544 -0.0000143 0.0000187 0.0000246 -0.0000532 0.0000102 0.0000147 -0.0000176 0.0000281 -0.0000217 0.0000690 0.0000027 -0.0000365 0.0000396 -0.0001342 0.0000189 0.0000700 -0.0000129 0.0000052 0.0000071 -0.0000113 0.0000514 0.0000513 0.0000235 -0.0000404
0.0000245 -0.0000623 0.0000488 -0.0000355 -0.0000044 -0.0000128 0.0000544 0.0001532 -0.0001159 0.0001578 -0.0000252 0.0002893 -0.0000083 0.0001354 -0.0000355 -0.0000408 -0.0000270 0.0000833 0.0000123 -0.0000698 0.0000052 0.0002174 -0.0000133 0.0001044 -0.0000207 0.0001579 0.0000005 0.0000237 0.0000147 -0.0000433 0.0000128 0.0001645 -0.0000353 0.0000115 0.0000039 0.0000913 0.0000434 0.0001755 0.0000122 0.0001426
0.0000180 0.0000093 0.0000355 0.0000156 -0.0000083 0.0000941 0.0000461 0.0002996 -0.0000052 0.0001475 -0.0000292 0.0003620 -0.0000020 0.0001779 -0.0000370 -0.0000300 -0.0000377 0.0001090 0.0000010 -0.0000103 0.0000131 0.0001381 -0.0000160 0.0001184 -0.0000259 0.0001712 -0.0000218 0.0000086 -0.0000090 0.0000155 0.0000213 0.0001532 -0.0000029 0.0000184 -0.0000002 0.0000202 0.0000497 0.0000785 0.0000285 -0.0000719
0.0000299 -0.0000683 0.0000181 0.0000251 0.0000018 -0.0001114 0.0000534 0.0000513 -0.0000247 0.0000379 -0.0000248 0.0001386 -0.0000020 0.0000837 -0.0000437 -0.0000592 -0.0000223 0.0000139 0.0000061 -0.0000234 0.0000256 -0.0002246 -0.0000146 -0.0000185 -0.0000263 0.0000353 -0.0000058 -0.0001166 0.0000431 -0.0001405 0.0000314 0.0000189 0.0000168 -0.0000298 0.0000080 -0.0001660 0.0000641 -0.0001379 0.0000622 -0.0004493
0.0000445 -0.0002293 0.0000278 -0.0000382 0.0000167 -0.0004025 0.0000656 -0.0002909 -0.0001593 0.0000063 -0.0000123 -0.0001261 0.0000171 -0.0000851 -0.0000408 -0.0001031 0.0000310 -0.0001327 0.0000186 -0.0001206 0.0000357 -0.0003970 -0.0000078 -0.0001501 -0.0000204 -0.0000891 0.0000596 -0.0002355 0.0000957 -0.0003020 0.0000370 -0.0000868 -0.0000132 -0.0000464 0.0000304 -0.0002273 0.0000735 -0.0002015 0.0000778 -0.0004990
0.0000475 -0.0002808 0.0000634 -0.0000933 0.0000233 -0.0004343 0.0000707 -0.0003047 -0.0000536 -0.0000716 -0.0000153 -0.0001333 0.0000247 -0.0001173 -0.0000796 -0.0001112 0.0000497 -0.0002075 0.0000023 -0.0002082 0.0000425 -0.0003389 -0.0000034 -0.0001773 -0.0000131 -0.0001194 0.0001002 -0.0002570 0.0001057 -0.0002946 0.0000420 -0.0001269 -0.0000669 -0.0000375 0.0000362 -0.0001910 0.0000835 -0.0002023 0.0000675 -0.0004367
0.0000411 -0.0002790 0.0000638 -0.0001518 0.0000193 -0.0004101 0.0000793 -0.0002054 0.0001327 -0.0002743 -0.0000142 -0.0000603 0.0000320 -0.0001006 -0.0001741 -0.0001711 0.0000365 -0.0002045 0.0000196 -0.0003970 0.0000477 -0.0001205 -0.0000034 -0.0001199 -0.0000106 -0.0000896 0.0000797 -0.0001516 0.0001065 -0.0002355 0.0000400 -0.0001251 -0.0001436 -0.0000880 0.0000531 -0.0001089 0.0000864 -0.0001490 0.0000651 -0.0003048
0.0000444 -0.0002199 0.0000505 -0.0002014 0.0000268 -0.0002890 0.0000827 -0.0000388 0.0001237 -0.0001905 -0.0000008 0.0001211 0.0000537 -0.0000337 -0.0002237 -0.0002442 0.0000598 -0.0002105 0.0000279 -0.0005349 0.0000428 0.0001246 0.0000036 -0.0000041 -0.0000100 -0.0000099 0.0000929 -0.0000762 0.0001351 -0.0002208 0.0000430 -0.0000359 -0.0001458 -0.0000887 0.0000599 -0.0000128 0.0000835 -0.0000613 0.0000704 -0.0001343
0.0000597 -0.0000917 0.0000387 -0.0001589 0.0000449 -0.0000962 0.0000677 0.0000911 -0.0001430 0.0000235 0.0000080 0.0003121 0.0000326 0.0000829 -0.0001541 -0.0001873 0.0000783 -0.0001304 0.0000526 -0.0003723 0.0000331 0.0002480 0.0000047 0.0001088 -0.0000123 0.0000753 0.0001003 -0.0000544 0.0001403 -0.0001573 0.0000448 0.0000784 -0.0001099 -0.0000169 0.0000369 0.0000808 0.0000756 0.0000376 0.0000476 0.0000244
0.0000722 0.0000219 0.0000145 -0.0001034 0.0000500 -0.0000324 0.0000599 0.0001020 -0.0002261 0.0000685 0.0000068 0.0002666 0.0000202 0.0001059 -0.0000940 -0.0001298 0.0000684 -0.0001009 0.0001091 -0.0001528 0.0000381 0.0000241 0.0000043 0.0000869 -0.0000174 0.0000311 0.0000575 -0.0000815 0.0000880 -0.0001160 0.0000506 0.0000326 -0.0000607 0.0000129 0.0000265 -0.0000278 0.0000772 -0.0000863 0.0000506 -0.0002425
0.0000807 -0.0000516 0.0000369 -0.0001668 0.0000557 -0.0002869 0.0000731 -0.0001734 -0.0001719 -0.0000173 0.0000049 -0.0000074 0.0000288 -0.0000260 -0.0001070 -0.0001041 0.0000507 -0.0001301 0.0001275 0.0000033 0.0000526 -0.0003766 0.0000141 -0.0000669 -0.0000120 -0.0001340 0.0000614 -0.0001719 0.0000815 -0.0002178 0.0000681 -0.0001335 -0.0000403 -0.0000415 0.0000466 -0.0002474 0.0000900 -0.0003132 0.0000803 -0.0006456
0.0000923 -0.0001927 0.0000514 -0.0002599 0.0000652 -0.0005366 0.0000897 -0.0004174 0.0000353 -0.0003494 0.0000115 -0.0001657 0.0000497 -0.0001594 -0.0000917 -0.0001063 0.0000687 -0.0001174 0.0001415 0.0001247 0.0000606 -0.0004281 0.0000175 -0.0001301 -0.0000068 -0.0002057 0.0000935 -0.0002326 0.0001245 -0.0003031 0.0000781 -0.0002045 -0.0000571 -0.0000620 0.0000566 -0.0002935 0.0001057 -0.0003646 0.0001012 -0.0006815
0.0001074 -0.0002124 0.0000402 -0.0002736 0.0000713 -0.0005390 0.0000945 -0.0004134 0.0001853 -0.0004609 0.0000231 -0.0001637 0.0000785 -0.0002028 -0.0000210 -0.0000616 0.0001202 -0.0001138 0.0002297 0.0002903 0.0000613 -0.0003375 0.0000207 -0.0001135 -0.0000015 -0.0001920 0.0001304 -0.0002858 0.0001189 -0.0002685 0.0000866 -0.0002029 -0.0000196 -0.0000223 0.0000693 -0.0002985 0.0001202 -0.0003409 0.0001042 -0.0006140
0.0001158 -0.0001641 0.0000267 -0.0002456 0.0000775 -0.0004595 0.0000992 -0.0003227 -0.0000086 -0.0002185 0.0000272 -0.0000846 0.0000803 -0.0001806 0.0000186 0.0000238 0.0001626 -0.0000106 0.0003063 0.0004800 0.0000588 -0.0001674 0.0000210 -0.0000526 0.0000049 -0.0001166 0.0001344 -0.0002196 0.0001228 -0.0002421 0.0000890 -0.0001622 0.0000297 0.0000057 0.0000692 -0.0002573 0.0001267 -0.0002558 0.0000942 -0.0004732
0.0001179 -0.0000986 0.0000209 -0.0002298 0.0000823 -0.0003312 0.0001033 -0.0001602 -0.0000422 -0.0000534 0.0000273 0.0000533 0.0000673 -0.0000831 0.0000227 -0.0000131 0.0001331 0.0000893 0.0002809 0.0004724 0.0000588 0.0000490 0.0000212 0.0000382 0.0000077 -0.0000202 0.0000707 -0.0000563 0.0001313 -0.0001982 0.0000824 -0.0000614 0.0000527 0.0000103 0.0000349 -0.0001391 0.0001284 -0.0001383 0.0001065 -0.0003189
0.0001106 -0.0000216 0.0000416 -0.0002132 0.0000811 -0.0001964 0.0000997 0.0000182 -0.0000418 0.0000576 0.0000230 0.0001870 0.0000572 0.0000113 0.0000260 -0.0000145 0.0001109 0.0001462 0.0002779 0.0004581 0.0000581 0.0002601 0.0000241 0.0001292 0.0000121 0.0000799 0.0000394 0.0000573 0.0001291 -0.0001127 0.0000767 0.0000401 0.0000518 0.0000248 0.0000335 -0.0000554 0.0001243 -0.0000715 0.0001183 -0.0002606
0.0001139 0.0000016 0.0000521 -0.0002127 0.0000828 -0.0002490 0.0001058 -0.0000540 -0.0000626 0.0000976 0.0000348 0.0000633 0.0000794 -0.0000348 0.0000438 0.0000077 0.0001309 0.0001141 0.0003093 0.0004982 0.0000651 0.0000060 0.0000254 0.0000631 0.0000135 0.0000095 0.0000773 -0.0000312 0.0001660 -0.0001837 0.0000794 -0.0000137 0.0000730 0.0000227 0.0000629 -0.0001844 0.0001373 -0.0001945 0.0001265 -0.0004919
0.0001227 -0.0000930 0.0000367 -0.0002407 0.0000939 -0.0004676 0.0001194 -0.0003146 0.0000683 -0.0001063 0.0000477 -0.0001977 0.0000855 -0.0001547 0.0000145 -0.0000135 0.0002122 -0.0000709 0.0002994 0.0004461 0.0000836 -0.0003891 0.0000367 -0.0000958 0.0000221 -0.0001569 0.0001077 -0.0001720 0.0001638 -0.0002854 0.0000859 -0.0001586 0.0000648 -0.0000078 0.0000669 -0.0003270 0.0001581 -0.0003208 0.0001393 -0.0007091
0.0001277 -0.0001956 0.0000444 -0.0002824 0.0001067 -0.0005570 0.0001330 -0.0003804 0.0000771 -0.0002156 0.0000578 -0.0002283 0.0001004 -0.0002123 0.0000073 -0.0000338 0.0002295 -0.0001215 0.0002604 0.0004481 0.0000873 -0.0003906 0.0000446 -0.0001255 0.0000293 -0.0001824 0.0001055 -0.0001908 0.0001407 -0.0003120 0.0001037 -0.0001861 0.0000608 -0.0000184 0.0000640 -0.0003414 0.0001682 -0.0003128 0.0001571 -0.0006784
0.0001375 -0.0001748 0.0000387 -0.0002749 0.0001222 -0.0005124 0.0001404 -0.0003557 0.0001341 -0.0003322 0.0000932 -0.0001039 0.0001245 -0.0002272 0.0000287 -0.0000506 0.0001868 -0.0000938 0.0002152 0.0004404 0.0000823 -0.0003797 0.0000431 -0.0000980 0.0000280 -0.0001713 0.0000933 -0.0002281 0.0001486 -0.0003326 0.0001115 -0.0001349 0.0000630 -0.0000151 0.0000748 -0.0003334 0.0001730 -0.0002680 0.0001664 -0.0005725
0.0001444 -0.0001080 0.0000304 -0.0002288 0.0001284 -0.0004158 0.0001416 -0.0002882 0.0000898 -0.0003733 0.0001046 0.0000142 0.0001225 -0.0001987 0.0000302 0.0000061 0.0001963 -0.0000640 0.0002114 0.0004675 0.0000785 -0.0002599 0.0000511 -0.0000493 0.0000324 -0.0001157 0.0000927 -0.0001946 0.0001145 -0.0002621 0.0001066 -0.0000619 0.0000511 -0.0000102 0.0000452 -0.0002227 0.0001695 -0.0001680 0.0001572 -0.0004090
0.0001387 -0.0000578 0.0000330 -0.0002053 0.0001245 -0.0002889 0.0001364 -0.0001188 -0.0000577 -0.0001060 0.0000832 0.0000967 0.0001103 -0.0001189 0.0000158 0.0000083 0.0001797 0.0000152 0.0002085 0.0004223 0.0000784 -0.0000462 0.0000510 0.0000334 0.0000362 -0.0000337 0.0000911 -0.0000750 0.0001034 -0.0001786 0.0001062 0.0000301 0.0000467 -0.0000026 0.0000467 -0.0001220 0.0001696 -0.0000610 0.0001626 -0.0002532
0.0001235 0.0000190 0.0000303 -0.0001650 0.0001278 -0.0002449 0.0001278 -0.0000716 0.0001627 -0.0002285 0.0000838 0.0000628 0.0000960 -0.0000785 0.0000386 -0.0000075 0.0001558 0.0000245 0.0001978 0.0003737 0.0000855 -0.0002191 0.0000430 0.0000031 0.0000342 -0.0000767 0.0001321 -0.0001759 0.0001326 -0.0002355 0.0001157 -0.0000114 0.0000147 -0.0000097 0.0000715 -0.0002238 0.0001750 -0.0001541 0.0001845 -0.0004360
0.0001243 -0.0000685 0.0000504 -0.0001973 0.0001371 -0.0004404 0.0001344 -0.0002973 0.0002924 -0.0004455 0.0000906 -0.0001666 0.0001087 -0.0001804 0.0000081 -0.0000427 0.0001332 -0.0000944 0.0001575 0.0002754 0.0001010 -0.0005651 0.0000541 -0.0001577 0.0000407 -0.0002341 0.0001380 -0.0003312 0.0001144 -0.0003188 0.0001298 -0.0001584 0.0000033 -0.0000356 0.0000734 -0.0003844 0.0001846 -0.0003290 0.0001846 -0.0006995
0.0001340 -0.0002234 0.0000633 -0.0002566 0.0001390 -0.0006084 0.0001493 -0.0004655 0.0002527 -0.0005126 0.0000904 -0.0002958 0.0001216 -0.0002869 -0.0000614 -0.0000920 0.0001354 -0.0002083 0.0001203 0.0001006 0.0001179 -0.0005834 0.0000571 -0.0002230 0.0000502 -0.0002965 0.0001091 -0.0003550 0.0001407 -0.0003825 0.0001220 -0.0002268 -0.0000513 -0.0000948 0.0001007 -0.0003868 0.0001956 -0.0003501 0.0001922 -0.0006750
0.0001436 -0.0002782 0.0000364 -0.0002540 0.0001432 -0.0005969 0.0001607 -0.0004365 0.0001775 -0.0004679 0.0001092 -0.0002668 0.0001347 -0.0003076 -0.0000631 -0.0001296 0.0001927 -0.0003026 0.0001012 -0.0000186 0.0001178 -0.0005463 0.0000592 -0.0002195 0.0000504 -0.0003051 0.0001153 -0.0003547 0.0001760 -0.0003908 0.0001164 -0.0002249 -0.0000555 -0.0001059 0.0001000 -0.0003264 0.0002005 -0.0003209 0.0002131 -0.0006031
0.0001595 -0.0001931 0.0000221 -0.0002198 0.0001747 -0.0004221 0.0001511 -0.0004191 0.0001297 -0.0004872 0.0001423 -0.0000974 0.0001408 -0.0002488 -0.0000121 -0.0001535 0.0001970 -0.0002664 0.0000831 -0.0000083 0.0001042 -0.0005062 0.0000697 -0.0001690 0.0000464 -0.0002663 0.0000867 -0.0002947 0.0001652 -0.0003382 0.0001230 -0.0001587 -0.0000184 -0.0000688 0.0000858 -0.0002471 0.0001948 -0.0002452 0.0002072 -0.0004526
0.0001656 -0.0000389 0.0000315 -0.0001881 0.0001982 -0.0002051 0.0001299 -0.0003469 0.0001254 -0.0005181 0.0001526 0.0000718 0.0001176 -0.0001438 0.0000371 -0.0000861 0.0001537 -0.0000883 0.0000918 0.0002053 0.0001006 -0.0003645 0.0000731 -0.0000856 0.0000466 -0.0001667 0.0000672 -0.0002030 0.0001731 -0.0002988 0.0001222 -0.0000657 -0.0000126 -0.0000170 0.0000757 -0.0001645 0.0001847 -0.0001608 0.0001850 -0.0003187
0.0001610 0.0000148 0.0000192 -0.0001566 0.0001918 -0.0002310 0.0001244 -0.0003338 0.0001281 -0.0004345 0.0001441 -0.0000313 0.0001169 -0.0001666 0.0000138 -0.0000861 0.0001251 -0.0000435 0.0000791 0.0002220 0.0001112 -0.0005280 0.0000761 -0.0001504 0.0000517 -0.0002277 0.0000957 -0.0002663 0.0001599 -0.0003285 0.0001292 -0.0001296 -0.0000005 0.0000009 0.0000695 -0.0002715 0.0001855 -0.0002948 0.0001913 -0.0005641
0.0001651 -0.0001087 -0.0000008 -0.0001626 0.0001909 -0.0005031 0.0001309 -0.0005902 0.0002712 -0.0005707 0.0001509 -0.0002968 0.0001351 -0.0003134 0.0000099 -0.0001305 0.0001638 -0.0001730 0.0000728 0.0002108 0.0001226 -0.0008978 0.0000759 -0.0003129 0.0000558 -0.0004006 0.0001309 -0.0004716 0.0002120 -0.0005136 0.0001320 -0.0002911 0.0000295 -0.0000532 0.0000882 -0.0004872 0.0001948 -0.0005167 0.0002072 -0.0009265
0.0001815 -0.0002616 0.0000093 -0.0002461 0.0001979 -0.0007123 0.0001404 -0.0008029 0.0001921 -0.0005776 0.0001596 -0.0004252 0.0001355 -0.0004548 0.0000066 -0.0001568 0.0001760 -0.0002506 0.0001923 0.0004243 0.0001312 -0.0009728 0.0000809 -0.0004085 0.0000571 -0.0005008 0.0001527 -0.0004604 0.0002074 -0.0005651 0.0001325 -0.0004055 0.0002866 0.0000250 0.0000686 -0.0006367 0.0001984 -0.0006210 0.0001990 -0.0010765
0.0002045 -0.0002236 0.0000240 -0.0003066 0.0002069 -0.0007031 0.0001442 -0.0008383 0.0000597 -0.0004675 0.0001811 -0.0003974 0.0001444 -0.0005418 0.0002225 0.0002009 0.0002360 0.0000674 0.0004508 0.0011448 0.0001357 -0.0009453 0.0000795 -0.0004375 0.0000653 -0.0004946 0.0001698 -0.0004201 0.0001924 -0.0005175 0.0001493 -0.0004364 0.0003747 0.0001025 0.0000477 -0.0006458 0.0002056 -0.0006340 0.0002138 -0.0010125
0.0002137 -0.0001585 0.0000104 -0.0001916 0.0002162 -0.0005878 0.0001363 -0.0008080 0.0002346 -0.0005790 0.0002352 -0.0002186 0.0001466 -0.0005349 0.0005640 0.0007425 0.0003498 0.0004794 0.0006325 0.0017771 0.0001295 -0.0008579 0.0000624 -0.0004067 0.0000775 -0.0004106 0.0001473 -0.0003978 0.0002237 -0.0004541 0.0001507 -0.0003784 0.0001765 0.0000350 0.0000746 -0.0005318 0.0002092 -0.0005389 0.0002156 -0.0007415
0.0002074 -0.0001189 -0.0000163 0.0000606 0.0002273 -0.0004201 0.0001239 -0.0007042 0.0001746 -0.0004843 0.0002670 0.0000173 0.0001411 -0.0004759 0.0008323 0.0010929 0.0004092 0.0007168 0.0006838 0.0018432 0.0001205 -0.0007253 0.0000496 -0.0003258 0.0000865 -0.0003086 0.0001270 -0.0003332 0.0002133 -0.0003223 0.0001445 -0.0003376 -0.0000757 -0.0000453 0.0001271 -0.0003758 0.0001997 -0.0004166 0.0001933 -0.0004604
0.0001904 -0.0001036 -0.0000366 0.0003789 0.0002279 -0.0003090 0.0001089 -0.0006503 -0.0000606 -0.0002734 0.0002702 0.0000796 0.0001430 -0.0004325 0.0010850 0.0014302 0.0004726 0.0009086 0.0006527 0.0018096 0.0001234 -0.0008620 0.0000528 -0.0003255 0.0000881 -0.0003138 0.0001332 -0.0004232 0.0002400 -0.0003047 0.0001418 -0.0004292 -0.0003583 -0.0001527 0.0001810 -0.0003271 0.0002007 -0.0005120 0.0002087 -0.0005498
0.0001830 -0.0002919 -0.0000549 0.0006906 0.0002340 -0.0005581 0.0001036 -0.0009615 -0.0000738 -0.0004720 0.0002825 -0.0001669 0.0001245 -0.0005405 0.0012660 0.0016275 0.0004862 0.0009109 0.0005657 0.0017034 0.0001423 -0.0012929 0.0000595 -0.0005132 0.0000836 -0.0005208 0.0000997 -0.0005372 0.0002574 -0.0003921 0.0001298 -0.0006868 -0.0004922 -0.0002600 0.0002174 -0.0004540 0.0002141 -0.0007933 0.0002441 -0.0009254
0.0001702 -0.0005636 -0.0000606 0.0008667 0.0002508 -0.0009495 0.0001055 -0.0014073 -0.0000289 -0.0006781 0.0002906 -0.0004978 0.0001198 -0.0007770 0.0014612 0.0018435 0.0005312 0.0008997 0.0005571 0.0016598 0.0001559 -0.0015590 0.0000584 -0.0007157 0.0000811 -0.0007037 0.0000559 -0.0006398 0.0002596 -0.0004616 0.0001349 -0.0009269 -0.0005861 -0.0003079 0.0002431 -0.0004921 0.0002181 -0.0009230 0.0002478 -0.0010031
0.0001545 -0.0006844 -0.0000710 0.0009878 0.0002518 -0.0010291 0.0000971 -0.0015272 0.0001115 -0.0009261 0.0002972 -0.0006020 0.0001467 -0.0008991 0.0016089 0.0021367 0.0005990 0.0010768 0.0006736 0.0017189 0.0001615 -0.0015655 0.0000625 -0.0007883 0.0000855 -0.0007470 0.0000592 -0.0007106 0.0002826 -0.0005196 0.0001380 -0.0010551 -0.0006222 -0.0003056 0.0002479 -0.0004615 0.0002154 -0.0009362 0.0002414 -0.0009426
0.0001619 -0.0007043 -0.0000678 0.0010274 0.0002552 -0.0009796 0.0000933 -0.0014844 0.0000079 -0.0008694 0.0003032 -0.0005583 0.0001523 -0.0009046 0.0016370 0.0022598 0.0006469 0.0011765 0.0007213 0.0017229 0.0001722 -0.0014511 0.0000654 -0.0007652 0.0000947 -0.0007214 0.0001176 -0.0007358 0.0002808 -0.0004727 0.0001227 -0.0010795 -0.0006361 -0.0002831 0.0002529 -0.0003656 0.0002161 -0.0008845 0.0002315 -0.0008109
0.0001612 -0.0006512 -0.0000587 0.0010181 0.0002526 -0.0008635 0.0000918 -0.0013514 -0.0001074 -0.0006236 0.0003129 -0.0004414 0.0001468 -0.0008311 0.0015990 0.0022511 0.0006500 0.0011891 0.0006833 0.0016820 0.0001771 -0.0012304 0.0000626 -0.0006767 0.0000974 -0.0006296 0.0001191 -0.0006493 0.0002829 -0.0003886 0.0001071 -0.0010260 -0.0006552 -0.0002699 0.0002506 -0.0002088 0.0002099 -0.0007566 0.0002080 -0.0005771
0.0001501 -0.0005669 -0.0000514 0.0009955 0.0002355 -0.0007070 0.0000925 -0.0011439 0.0000134 -0.0007390 0.0003228 -0.0002939 0.0001528 -0.0007257 0.0015349 0.0022244 0.0006376 0.0011768 0.0006243 0.0016505 0.0001777 -0.0009627 0.0000614 -0.0005609 0.0000974 -0.0005065 0.0001025 -0.0005277 0.0002813 -0.0003035 0.0000974 -0.0009250 -0.0006385 -0.0002617 0.0002517 -0.0000760 0.0002003 -0.0006035 0.0001983 -0.0003581
0.0001395 -0.0004821 -0.0000360 0.0009887 0.0002319 -0.0006216 0.0001002 -0.0009981 0.0001331 -0.0007985 0.0003246 -0.0002604 0.0001407 -0.0006486 0.0014811 0.0021377 0.0006303 0.0010458 0.0004930 0.0015554 0.0001936 -0.0010223 0.0000627 -0.0005716 0.0000999 -0.0005062 0.0001337 -0.0005461 0.0002633 -0.0002736 0.0000976 -0.0009432 -0.0006781 -0.0002867 0.0002611 -0.0001276 0.0002025 -0.0006876 0.0002182 -0.0005575
0.0001344 -0.0006057 -0.0000373 0.0009078 0.0002381 -0.0008626 0.0001225 -0.0011739 0.0000615 -0.0007573 0.0003301 -0.0004886 0.0001679 -0.0007776 0.0014132 0.0020127 0.0005722 0.0009090 0.0004091 0.0014148 0.0002162 -0.0013292 0.0000598 -0.0007249 0.0001057 -0.0006679 0.0001599 -0.0006382 0.0002998 -0.0003946 0.0001062 -0.0011175 -0.0007592 -0.0003498 0.0002838 -0.0002906 0.0002192 -0.0009189 0.0002474 -0.0009167
0.0001476 -0.0008105 -0.0000512 0.0008381 0.0002513 -0.0011047 0.0001418 -0.0014139 -0.0000297 -0.0007572 0.0003541 -0.0006572 0.0001999 -0.0009216 0.0013363 0.0019115 0.0005327 0.0007237 0.0002845 0.0012519 0.0002393 -0.0014235 0.0000677 -0.0008139 0.0001115 -0.0007787 0.0001621 -0.0006811 0.0003290 -0.0004469 0.0001129 -0.0012155 -0.0008093 -0.0003873 0.0002954 -0.0002559 0.0002370 -0.0009623 0.0002694 -0.0008754
0.0001521 -0.0008530 -0.0000512 0.0009327 0.0002683 -0.0010779 0.0001444 -0.0014244 0.0000145 -0.0007902 0.0003668 -0.0006443 0.0001746 -0.0008679 0.0013254 0.0019152 0.0005385 0.0005437 0.0000822 0.0010768 0.0002529 -0.0013446 0.0000780 -0.0008172 0.0001174 -0.0007794 0.0001498 -0.0006929 0.0003272 -0.0003817 0.0001106 -0.0012200 -0.0009115 -0.0004663 0.0003111 -0.0000978 0.0002452 -0.0008766 0.0002986 -0.0006561
0.0001388 -0.0008502 -0.0000447 0.0009417 0.0002666 -0.0009723 0.0001528 -0.0012916 0.0000439 -0.0007934 0.0003589 -0.0005667 0.0001765 -0.0007820 0.0012649 0.0017609 0.0004818 0.0004260 -0.0000791 0.0008644 0.0002541 -0.0011216 0.0000786 -0.0007550 0.0001203 -0.0007312 0.0001345 -0.0006152 0.0003578 -0.0003024 0.0001077 -0.0011726 -0.0009497 -0.0005050 0.0003519 0.0000133 0.0002434 -0.0007514 0.0002877 -0.0004427
0.0001338 -0.0007621 -0.0000343 0.0007743 0.0002538 -0.0007931 0.0001630 -0.0010570 0.0000744 -0.0007161 0.0003501 -0.0004257 0.0001882 -0.0006550 0.0010312 0.0013936 0.0003735 0.0003092 -0.0002273 0.0005536 0.0002494 -0.0007821 0.0000729 -0.0006226 0.0001188 -0.0006029 0.0001554 -0.0005070 0.0003556 -0.0001892 0.0001105 -0.0010015 -0.0009356 -0.0004917 0.0003509 0.0001594 0.0002405 -0.0005840 0.0002626 -0.0002260
0.0001306 -0.0006219 -0.0000206 0.0005846 0.0002409 -0.0006234 0.0001685 -0.0007771 0.0000708 -0.0007114 0.0003332 -0.0002524 0.0001881 -0.0004561 0.0007759 0.0011260 0.0003387 0.0002522 -0.0002842 0.0002883 0.0002476 -0.0004126 0.0000849 -0.0004387 0.0001224 -0.0004211 0.0001661 -0.0004331 0.0003140 -0.0000038 0.0001175 -0.0007647 -0.0009721 -0.0005186 0.0003613 0.0003722 0.0002323 -0.0003964 0.0002347 -0.0000081
0.0001481 -0.0004215 -0.0000014 0.0003688 0.0002142 -0.0004534 0.0001733 -0.0004400 -0.0000175 -0.0007155 0.0003037 -0.0000533 0.0002065 -0.0002440 0.0003168 0.0004740 0.0002939 0.0001586 -0.0001785 -0.0001228 0.0002427 -0.0000263 0.0001067 -0.0002373 0.0001271 -0.0002407 0.0001307 -0.0002873 0.0002936 0.0000595 0.0001283 -0.0005529 -0.0007017 -0.0003985 0.0003086 0.0003617 0.0002232 -0.0003976 0.0001917 -0.0002364
0.0002157 -0.0001890 0.0000649 -0.0000827 0.0002024 -0.0005967 0.0001926 -0.0004389 0.0000393 -0.0007510 0.0002746 -0.0002429 0.0002066 -0.0001892 -0.0001168 -0.0002632 0.0002896 -0.0000094 0.0000539 -0.0001181 0.0002452 -0.0001403 0.0001141 -0.0002573 0.0001375 -0.0002259 0.0001467 -0.0002794 0.0002723 -0.0000258 0.0001585 -0.0004746 -0.0003354 -0.0001945 0.0002298 0.0000881 0.0002325 -0.0005610 0.0001829 -0.0007397
0.0002716 -0.0001166 0.0001302 -0.0004228 0.0002058 -0.0008819 0.0002241 -0.0006075 0.0001235 -0.0008262 0.0002565 -0.0005611 0.0002035 -0.0002480 -0.0002118 -0.0004606 0.0003338 -0.0000927 0.0002629 0.0002025 0.0002659 -0.0003556 0.0001268 -0.0003679 0.0001574 -0.0002813 0.0001651 -0.0003759 0.0002794 -0.0000598 0.0001809 -0.0004751 -0.0002264 -0.0000978 0.0002445 -0.0000824 0.0002557 -0.0005996 0.0001748 -0.0008963
0.0002844 -0.0001213 0.0001625 -0.0004280 0.0002005 -0.0009127 0.0002556 -0.0004563 0.0001793 -0.0007658 0.0002405 -0.0005284 0.0002167 -0.0002528 -0.0002329 -0.0004841 0.0003473 -0.0000343 0.0003973 0.0002714 0.0002827 -0.0001210 0.0001252 -0.0003166 0.0001733 -0.0002092 0.0001619 -0.0003057 0.0003100 -0.0000453 0.0001867 -0.0004019 -0.0001872 -0.0000529 0.0002264 -0.0000574 0.0002704 -0.0005376 0.0001890 -0.0008342
0.0003069 -0.0000242 0.0001995 -0.0003849 0.0002137 -0.0008020 0.0002693 -0.0002956 0.0003498 -0.0007313 0.0002425 -0.0003702 0.0002179 -0.0001996 -0.0001671 -0.0004554 0.0003418 0.0000495 0.0004634 0.0004403 0.0002801 0.0001004 0.0001252 -0.0002150 0.0001792 -0.0001003 0.0001538 -0.0001776 0.0002691 0.0000344 0.0002043 -0.0002956 -0.0001210 -0.0000280 0.0001993 0.0000077 0.0002702 -0.0004372 0.0001967 -0.0006666
0.0003219 0.0001151 0.0002028 -0.0003274 0.0002210 -0.0006015 0.0002638 -0.0001454 0.0003547 -0.0006034 0.0002508 -0.0001824 0.0002134 -0.0000865 -0.0001853 -0.0004615 0.0003614 0.0000410 0.0003833 0.0004195 0.0002735 0.0003479 0.0001310 -0.0000958 0.0001806 0.0000311 0.0001651 -0.0001195 0.0002550 0.0001258 0.0002048 -0.0001370 -0.0001054 -0.0000074 0.0001883 0.0001283 0.0002613 -0.0002715 0.0001786 -0.0004261
0.0003128 0.0002263 0.0001854 -0.0002624 0.0002130 -0.0004138 0.0002596 0.0000882 0.0001604 -0.0002867 0.0002478 0.0000065 0.0002094 0.0000509 -0.0001782 -0.0003631 0.0003709 0.0001619 0.0004285 0.0004500 0.0002685 0.0006215 0.0001339 0.0000233 0.0001821 0.0001846 0.0001590 -0.0000143 0.0002501 0.0002516 0.0001849 0.0000457 -0.0001314 0.0000571 0.0001951 0.0002549 0.0002473 -0.0000854 0.0001696 -0.0001734
0.0002966 0.0003384 0.0001931 -0.0002009 0.0002071 -0.0002352 0.0002572 0.0003211 0.0000158 -0.0001085 0.0002421 0.0001890 0.0002086 0.0001794 -0.0001398 -0.0002509 0.0003464 0.0003202 0.0004928 0.0005704 0.0002603 0.0006984 0.0001256 0.0001191 0.0001781 0.0002833 0.0001245 0.0000953 0.0002081 0.0003569 0.0001887 0.0001066 -0.0000928 0.0000944 0.0001993 0.0001988 0.0002436 -0.0001180 0.0001690 -0.0002910
0.0002972 0.0002999 0.0001816 -0.0001452 0.0002076 -0.0004004 0.0002540 0.0001454 0.0001180 -0.0002631 0.0002396 0.0000057 0.0002055 0.0001437 -0.0001789 -0.0002536 0.0003770 0.0002095 0.0004266 0.0005446 0.0002691 0.0003838 0.0001056 0.0000594 0.0001747 0.0001953 0.0001070 0.0000489 0.0002482 0.0002435 0.0002028 0.0000457 -0.0001332 0.0000326 0.0001969 0.0000779 0.0002541 -0.0002761 0.0001880 -0.0005746
0.0003060 0.0001843 0.0001623 -0.0001445 0.0002188 -0.0006621 0.0002589 -0.0001346 0.0000735 -0.0002350 0.0002392 -0.0002327 0.0001849 0.0000661 -0.0001876 -0.0003058 0.0003493 0.0001119 0.0003630 0.0004700 0.0002728 0.0001982 0.0001083 -0.0000348 0.0001762 0.0001114 0.0001048 -0.0000047 0.0002675 0.0001658 0.0001930 0.0000311 -0.0001778 -0.0000043 0.0002104 0.0000653 0.0002629 -0.0002732 0.0001900 -0.0005395
0.0003046 0.0001833 0.0001672 -0.0001549 0.0002200 -0.0006186 0.0002700 -0.0000546 -0.0000705 -0.0000567 0.0002259 -0.0001699 0.0001757 0.0000902 -0.0002175 -0.0003961 0.0003001 0.0000769 0.0002386 0.0002678 0.0002680 0.0003291 0.0001134 -0.0000121 0.0001769 0.0001529 0.0001021 0.0000411 0.0002458 0.0002158 0.0001913 0.0000737 -0.0001908 -0.0000025 0.0002115 0.0001184 0.0002644 -0.0002017 0.0001992 -0.0004156
0.0003017 0.0001949 0.0001799 -0.0001504 0.0002064 -0.0005263 0.0002782 0.0001191 0.0001776 -0.0002086 0.0001932 -0.0000906 0.0001620 0.0001070 -0.0002679 -0.0004824 0.0002661 0.0000373 0.0001020 -0.0000137 0.0002723 0.0006217 0.0000957 0.0000283 0.0001766 0.0002382 0.0001209 0.0001402 0.0002630 0.0002538 0.0001821 0.0001223 -0.0003486 -0.0000686 0.0002416 0.0002601 0.0002563 -0.0000962 0.0002171 -0.0001825
0.0002792 0.0001785 0.0002172 -0.0001953 0.0001951 -0.0003949 0.0002950 0.0004228 0.0002436 -0.0000660 0.0001510 0.0000227 0.0001501 0.0001691 -0.0003695 -0.0006019 0.0002166 0.0000194 0.0000247 -0.0002896 0.0002701 0.0010119 0.0000867 0.0001214 0.0001711 0.0003742 0.0001408 0.0002604 0.0002418 0.0003898 0.0001583 0.0002419 -0.0004066 -0.0000477 0.0002326 0.0004389 0.0002409 0.0000289 0.0002159 0.0000978
0.0002690 0.0002757 0.0002485 -0.0001632 0.0002024 -0.0001796 0.0002937 0.0006584 0.0000783 0.0002195 0.0001387 0.0002121 0.0001498 0.0003004 -0.0004161 -0.0005772 0.0002058 0.0000415 0.0000149 -0.0003240 0.0002536 0.0011998 0.0000824 0.0002658 0.0001599 0.0005073 0.0001543 0.0003458 0.0001988 0.0005147 0.0001504 0.0003733 -0.0003799 0.0000212 0.0001961 0.0005112 0.0002353 0.0000208 0.0002411 0.0000664
0.0002811 0.0003358 0.0002448 -0.0000971 0.0002150 -0.0002697 0.0002793 0.0004351 0.0000733 0.0002111 0.0001459 0.0000738 0.0001393 0.0002954 -0.0003638 -0.0004802 0.0002108 0.0000256 0.0000254 -0.0002234 0.0002526 0.0007960 0.0000902 0.0001840 0.0001569 0.0004083 0.0001680 0.0002846 0.0002105 0.0004517 0.0001639 0.0002969 -0.0004038 -0.0000183 0.0002068 0.0003697 0.0002397 -0.0001427 0.0002598 -0.0002291
0.0002809 0.0002170 0.0002381 -0.0001110 0.0002172 -0.0005534 0.0002836 0.0001073 0.0002337 0.0000029 0.0001401 -0.0002207 0.0001418 0.0001707 -0.0003854 -0.0005692 0.0001842 -0.0001032 -0.0000356 -0.0003760 0.0002625 0.0003909 0.0001022 0.0000239 0.0001640 0.0002374 0.0001386 0.0001884 0.0002192 0.0003763 0.0001763 0.0001753 -0.0004151 -0.0000440 0.0002159 0.0002530 0.0002478 -0.0002212 0.0002516 -0.0003315
0.0002766 0.0001562 0.0002206 -0.0001074 0.0002182 -0.0005644 0.0002864 0.0001163 0.0003386 -0.0001568 0.0001316 -0.0001903 0.0001521 0.0001550 -0.0004161 -0.0006376 0.0001685 -0.0001337 -0.0001175 -0.0005193 0.0002599 0.0004997 0.0000900 0.0000495 0.0001658 0.0002653 0.0001279 0.0001745 0.0002473 0.0003533 0.0001723 0.0002013 -0.0004588 -0.0000759 0.0002355 0.0002944 0.0002511 -0.0001786 0.0002508 -0.0002452
0.0002743 0.0001542 0.0002222 -0.0000997 0.0002188 -0.0004893 0.0002863 0.0002417 0.0003062 -0.0002016 0.0001177 -0.0001189 0.0001633 0.0002015 -0.0004293 -0.0006970 0.0002065 -0.0001695 -0.0001206 -0.0006612 0.0002517 0.0007094 0.0000786 0.0001235 0.0001569 0.0003592 0.0001595 0.0002074 0.0002620 0.0003656 0.0001728 0.0002482 -0.0004712 -0.0001141 0.0002505 0.0003805 0.0002445 -0.0000738 0.0002406 -0.0001029
0.0002721 0.0001670 0.0002502 -0.0001195 0.0002094 -0.0003548 0.0002912 0.0004530 0.0001683 0.0000930 0.0000875 -0.0000226 0.0001440 0.0003035 -0.0005309 -0.0008299 0.0001994 -0.0001836 -0.0001401 -0.0009953 0.0002403 0.0010060 0.0000739 0.0002231 0.0001459 0.0004805 0.0001351 0.0003727 0.0002134 0.0004894 0.0001688 0.0003397 -0.0005016 -0.0001110 0.0002327 0.0005437 0.0002340 0.0000832 0.0002194 0.0001025
0.0002534 0.0002288 0.0002598 -0.0000986 0.0001925 -0.0001562 0.0002941 0.0007050 0.0002420 0.0002569 0.0000580 0.0001261 0.0001234 0.0004367 -0.0005791 -0.0008534 0.0001236 -0.0000127 -0.0001169 -0.0011039 0.0002334 0.0012561 0.0000683 0.0003300 0.0001417 0.0006000 0.0000863 0.0005187 0.0002002 0.0005746 0.0001539 0.0004654 -0.0005221 -0.0000682 0.0002329 0.0006811 0.0002208 0.0002473 0.0001962 0.0003064
0.0002273 0.0003202 0.0002734 -0.0000864 0.0001758 0.0000426 0.0002845 0.0009280 0.0002705 0.0002636 0.0000351 0.0002467 0.0001263 0.0005603 -0.0006054 -0.0009429 0.0000744 0.0000783 -0.0001182 -0.0012124 0.0002227 0.0013053 0.0000630 0.0004157 0.0001366 0.0006532 0.0000724 0.0005525 0.0002062 0.0005783 0.0001442 0.0004819 -0.0004729 -0.0000233 0.0002281 0.0006165 0.0002143 0.0001494 0.0001925 0.0000409
0.0002276 0.0002649 0.0002904 -0.0001267 0.0001855 -0.0001985 0.0002843 0.0006576 0.0001802 0.0002355 0.0000314 -0.0000287 0.0001327 0.0004925 -0.0006522 -0.0010464 0.0000864 -0.0000458 -0.0001192 -0.0013080 0.0002234 0.0008901 0.0000639 0.0002971 0.0001325 0.0005013 0.0000344 0.0004824 0.0001724 0.0004969 0.0001541 0.0003356 -0.0004680 -0.0000590 0.0002182 0.0004316 0.0002240 -0.0001075 0.0002097 -0.0004257
0.0002342 0.0001284 0.0003148 -0.0001803 0.0002054 -0.0005653 0.0002991 0.0002553 0.0001659 0.0001137 0.0000372 -0.0003587 0.0001214 0.0003700 -0.0006478 -0.0010834 0.0001000 -0.0001800 -0.0000594 -0.0012602 0.0002303 0.0005605 0.0000694 0.0001558 0.0001357 0.0003510 0.0000270 0.0004009 0.0001379 0.0004322 0.0001618 0.0002356 -0.0004250 -0.0000711 0.0002246 0.0003446 0.0002307 -0.0001690 0.0002075 -0.0004910
0.0002414 0.0001116 0.0003399 -0.0001856 0.0002045 -0.0005359 0.0003027 0.0002825 0.0001252 0.0001885 0.0000385 -0.0003103 0.0001154 0.0003766 -0.0006464 -0.0010748 0.0001022 -0.0001845 -0.0000567 -0.0012659 0.0002315 0.0006361 0.0000748 0.0001786 0.0001404 0.0003747 0.0000869 0.0003799 0.0001522 0.0004271 0.0001636 0.0002429 -0.0004218 -0.0000566 0.0002285 0.0003586 0.0002292 -0.0001345 0.0002038 -0.0004158
0.0002444 0.0001403 0.0003499 -0.0001674 0.0002015 -0.0004261 0.0003046 0.0004043 0.0001424 0.0003229 0.0000435 -0.0001975 0.0001170 0.0003922 -0.0006897 -0.0010288 0.0001248 -0.0001514 -0.0000420 -0.0012970 0.0002268 0.0008182 0.0000744 0.0002471 0.0001357 0.0004409 0.0001158 0.0004172 0.0001683 0.0004589 0.0001553 0.0002693 -0.0004615 -0.0000447 0.0002309 0.0004434 0.0002308 -0.0000526 0.0001991 -0.0002613
0.0002343 0.0002315 0.0003321 -0.0001372 0.0002051 -0.0002212 0.0003014 0.0005794 0.0001519 0.0003409 0.0000493 0.0000144 0.0001284 0.0004640 -0.0007262 -0.0010281 0.0001130 -0.0000766 -0.0000536 -0.0013205 0.0002062 0.0010455 0.0000687 0.0003931 0.0001291 0.0005421 0.0001050 0.0004633 0.0001267 0.0005591 0.0001474 0.0003732 -0.0004497 0.0000142 0.0002154 0.0005724 0.0002186 0.0000871 0.0001785 -0.0000054
0.0002449 0.0004110 0.0002992 -0.0000743 0.0002109 0.0000530 0.0002841 0.0007419 0.0002555 0.0001594 0.0000626 0.0002719 0.0001397 0.0005743 -0.0006430 -0.0009100 0.0001121 0.0000704 -0.0000351 -0.0010683 0.0001882 0.0012295 0.0000686 0.0005162 0.0001295 0.0006716 0.0000659 0.0005292 0.0001237 0.0006277 0.0001443 0.0005190 -0.0004145 0.0000809 0.0001923 0.0006811 0.0001962 0.0002546 0.0001511 0.0002544
0.0002565 0.0005668 0.0002789 -0.0000105 0.0002036 0.0002635 0.0002653 0.0009391 0.0001650 0.0002432 0.0000542 0.0004481 0.0001236 0.0006764 -0.0006133 -0.0008804 0.0000952 0.0001323 -0.0000285 -0.0009904 0.0001828 0.0012983 0.0000723 0.0005711 0.0001246 0.0007523 0.0000809 0.0005325 0.0001679 0.0006066 0.0001369 0.0005676 -0.0003860 0.0001015 0.0001784 0.0006413 0.0001966 0.0001834 0.0001472 0.0000748
0.0002466 0.0004982 0.0002723 0.0000035 0.0001971 0.0000146 0.0002607 0.0007022 0.0002219 0.0001891 0.0000403 0.0001778 0.0000970 0.0006046 -0.0006072 -0.0009141 0.0000756 0.0000384 -0.0000696 -0.0010160 0.0001891 0.0008982 0.0000677 0.0004469 0.0001192 0.0006198 0.0000803 0.0004363 0.0001603 0.0005164 0.0001437 0.0004444 -0.0004116 0.0000900 0.0001813 0.0004643 0.0002165 -0.0000463 0.0001700 -0.0003164
0.0002362 0.0003393 0.0002857 -0.0000497 0.0002034 -0.0003474 0.0002721 0.0003101 0.0003413 0.0001681 0.0000411 -0.0001716 0.0000928 0.0004469 -0.0005829 -0.0009410 0.0000919 -0.0000928 -0.0000927 -0.0009984 0.0001972 0.0005746 0.0000676 0.0002947 0.0001239 0.0004734 0.0000679 0.0003786 0.0001404 0.0004832 0.0001507 0.0003359 -0.0003907 0.0000755 0.0001956 0.0003703 0.0002231 -0.0001003 0.0001884 -0.0003835
0.0002353 0.0003055 0.0002790 -0.0000528 0.0002028 -0.0003264 0.0002785 0.0003386 0.0001567 0.0003759 0.0000359 -0.0001340 0.0001120 0.0004090 -0.0005788 -0.0009678 0.0000529 -0.0000708 -0.0000944 -0.0010455 0.0001912 0.0006780 0.0000615 0.0003135 0.0001261 0.0004931 0.0000861 0.0003674 0.0001455 0.0004704 0.0001553 0.0003439 -0.0003931 0.0000534 0.0001924 0.0004088 0.0002249 -0.0000659 0.0002107 -0.0003022
0.0002287 0.0003224 0.0002837 -0.0000469 0.0001967 -0.0002260 0.0002774 0.0004622 0.0000900 0.0003840 0.0000300 -0.0000226 0.0001096 0.0004304 -0.0005864 -0.0009027 0.0000273 -0.0000012 -0.0000463 -0.0010137 0.0001816 0.0008543 0.0000559 0.0003747 0.0001165 0.0005658 0.0000551 0.0004404 0.0001437 0.0004910 0.0001451 0.0003980 -0.0004049 0.0000680 0.0002013 0.0004767 0.0002195 0.0000274 0.0002000 -0.0001296
0.0002180 0.0003787 0.0003023 -0.0000490 0.0001857 -0.0000756 0.0002747 0.0006527 0.0000818 0.0004269 0.0000141 0.0001472 0.0000898 0.0004947 -0.0006111 -0.0008690 0.0000402 0.0000596 -0.0000389 -0.0010344 0.0001728 0.0011263 0.0000579 0.0004716 0.0001099 0.0006877 0.0000510 0.0005531 0.0001345 0.0005993 0.0001219 0.0005127 -0.0004167 0.0001006 0.0002137 0.0005794 0.0002034 0.0001866 0.0001688 0.0001291
0.0002117 0.0004623 0.0002983 -0.0000128 0.0001682 0.0001180 0.0002676 0.0008812 0.0000485 0.0006103 -0.0000012 0.0003314 0.0000743 0.0005933 -0.0005901 -0.0007806 0.0000976 0.0001336 -0.0000219 -0.0009243 0.0001643 0.0013788 0.0000458 0.0005897 0.0001116 0.0008101 0.0000763 0.0006524 0.0001014 0.0007314 0.0001084 0.0006327 -0.0004077 0.0001446 0.0001888 0.0007103 0.0001825 0.0003656 0.0001414 0.0003735
0.0002005 0.0005564 0.0002857 0.0000305 0.0001515 0.0003069 0.0002609 0.0011002 0.0001638 0.0005838 -0.0000126 0.0004720 0.0000731 0.0006711 -0.0005833 -0.0007824 0.0001386 0.0001308 -0.0000091 -0.0009035 0.0001608 0.0013958 0.0000467 0.0006352 0.0001088 0.0008462 0.0000743 0.0006726 0.0001017 0.0007370 0.0001205 0.0006211 -0.0003847 0.0001902 0.0001652 0.0006648 0.0001743 0.0002749 0.0001465 0.0001542
0.0001911 0.0004944 0.0002695 0.0000422 0.0001514 0.0000738 0.0002611 0.0008301 0.0001307 0.0005041 -0.0000154 0.0002253 0.0000779 0.0005450 -0.0005726 -0.0007902 0.0001140 0.0000895 0.0000012 -0.0008877 0.0001636 0.0010165 0.0000456 0.0005050 0.0001010 0.0007028 0.0000784 0.0005774 0.0001394 0.0006158 0.0001251 0.0004909 -0.0004133 0.0001602 0.0001819 0.0004845 0.0001909 0.0000388 0.0001776 -0.0002348
0.0001920 0.0003248 0.0002747 -0.0000235 0.0001595 -0.0002696 0.0002717 0.0004704 0.0000868 0.0004695 -0.0000083 -0.0000650 0.0000919 0.0003857 -0.0006283 -0.0007409 0.0001341 0.0000140 0.0000372 -0.0008829 0.0001686 0.0008051 0.0000443 0.0003915 0.0001003 0.0005862 0.0000775 0.0005255 0.0001289 0.0005791 0.0001169 0.0004159 -0.0003838 0.0001306 0.0002155 0.0004145 0.0001986 0.0000144 0.0001836 -0.0002563
0.0001953 0.0003129 0.0002702 -0.0000298 0.0001723 -0.0001686 0.0002669 0.0004917 0.0000392 0.0005129 -0.0000062 0.0000029 0.0000900 0.0004005 -0.0006118 -0.0007231 0.0001255 0.0000255 0.0000359 -0.0008157 0.0001716 0.0008888 0.0000445 0.0004079 0.0001083 0.0006087 0.0000606 0.0005122 0.0001363 0.0005680 0.0001246 0.0004218 -0.0003573 0.0001415 0.0002105 0.0004403 0.0002009 0.0000599 0.0001926 -0.0001713
0.0001859 0.0004007 0.0002563 -0.0000024 0.0001762 -0.0000055 0.0002539 0.0005680 0.0001312 0.0004189 -0.0000093 0.0001244 0.0000838 0.0004312 -0.0005171 -0.0006788 0.0000898 0.0001072 0.0000497 -0.0006317 0.0001635 0.0010319 0.0000373 0.0004737 0.0001041 0.0006903 0.0000649 0.0005296 0.0001785 0.0005453 0.0001272 0.0004810 -0.0003195 0.0001746 0.0001787 0.0005223 0.0001981 0.0001587 0.0001934 -0.0000260
0.0001807 0.0004845 0.0002589 0.0000074 0.0001600 0.0001258 0.0002485 0.0007546 0.0002240 0.0004044 -0.0000199 0.0002877 0.0000722 0.0004948 -0.0005516 -0.0007041 0.0001050 0.0001250 0.0000201 -0.0007053 0.0001468 0.0012747 0.0000382 0.0005763 0.0000972 0.0008136 0.0000850 0.0005960 0.0001729 0.0006165 0.0001151 0.0006111 -0.0002859 0.0001749 0.0001668 0.0006404 0.0001840 0.0003249 0.0001712 0.0002245
0.0001773 0.0005848 0.0002573 0.0000455 0.0001451 0.0003015 0.0002405 0.0009589 0.0001583 0.0004565 -0.0000237 0.0004854 0.0000678 0.0005953 -0.0005169 -0.0006244 0.0000895 0.0002081 0.0000446 -0.0006286 0.0001302 0.0014785 0.0000330 0.0006789 0.0000963 0.0009326 0.0000586 0.0007026 0.0001512 0.0007147 0.0001029 0.0007535 -0.0003008 0.0002135 0.0001802 0.0007308 0.0001684 0.0004568 0.0001593 0.0004160
0.0001679 0.0006809 0.0002641 0.0000598 0.0001411 0.0003170 0.0002369 0.0009690 0.0002021 0.0003926 -0.0000227 0.0004442 0.0000705 0.0006090 -0.0004832 -0.0005492 0.0000635 0.0002229 0.0000771 -0.0005353 0.0001239 0.0012419 0.0000235 0.0006395 0.0000896 0.0008842 0.0000137 0.0007049 0.0001180 0.0007192 0.0001062 0.0007075 -0.0002986 0.0002346 0.0001816 0.0006001 0.0001710 0.0003204 0.0001714 0.0001488
0.0001687 0.0005734 0.0002528 0.0000463 0.0001394 0.0000763 0.0002420 0.0006932 0.0001942 0.0003757 -0.0000292 0.0001898 0.0000563 0.0005054 -0.0005287 -0.0006271 0.0000690 0.0000905 -0.0000124 -0.0006380 0.0001292 0.0008743 0.0000171 0.0005097 0.0000849 0.0007288 0.0000211 0.0005948 0.0000975 0.0006257 0.0001162 0.0005757 -0.0003157 0.0001654 0.0001773 0.0004431 0.0001804 0.0001506 0.0001723 -0.0001042
0.0001659 0.0004272 0.0002388 0.0000250 0.0001295 -0.0000486 0.0002471 0.0005645 0.0000328 0.0005569 -0.0000418 0.0001089 0.0000538 0.0004240 -0.0004946 -0.0006473 0.0000808 0.0000627 -0.0000143 -0.0006105 0.0001362 0.0009034 0.0000181 0.0004768 0.0000889 0.0007044 0.0000569 0.0005366 0.0001227 0.0005577 0.0001234 0.0005477 -0.0003222 0.0001667 0.0001887 0.0004355 0.0001804 0.0001653 0.0001686 -0.0000531
0.0001596 0.0004227 0.0002475 0.0000122 0.0001238 -0.0000029 0.0002515 0.0006341 0.0000649 0.0005914 -0.0000516 0.0001396 0.0000606 0.0004200 -0.0004839 -0.0007099 0.0000704 0.0000610 -0.0000304 -0.0006580 0.0001384 0.0010230 0.0000258 0.0004855 0.0000935 0.0007426 0.0000673 0.0005465 0.0001385 0.0005402 0.0001215 0.0005749 -0.0003283 0.0001629 0.0001808 0.0004773 0.0001775 0.0002303 0.0001796 0.0000282
0.0001511 0.0004490 0.0002716 -0.0000069 0.0001156 0.0000864 0.0002511 0.0007392 0.0002307 0.0003860 -0.0000616 0.0002320 0.0000735 0.0004303 -0.0005143 -0.0006852 0.0000489 0.0000967 -0.0000142 -0.0007222 0.0001314 0.0012016 0.0000211 0.0005402 0.0000892 0.0008210 0.0000681 0.0005951 0.0001233 0.0005778 0.0001073 0.0006509 -0.0003387 0.0001428 0.0001742 0.0005798 0.0001679 0.0003672 0.0001714 0.0002272
0.0001372 0.0005262 0.0002797 0.0000070 0.0000993 0.0002609 0.0002421 0.0009396 0.0002123 0.0004118 -0.0000715 0.0003956 0.0000688 0.0004892 -0.0004826 -0.0006434 0.0000406 0.0001777 0.0000217 -0.0006778 0.0001234 0.0014283 0.0000072 0.0006409 0.0000849 0.0009367 0.0000706 0.0006776 0.0001171 0.0006555 0.0000997 0.0007545 -0.0003215 0.0001775 0.0001658 0.0006851 0.0001573 0.0005046 0.0001468 0.0004247
0.0001210 0.0006013 0.0002776 0.0000470 0.0000947 0.0003314 0.0002377 0.0010192 0.0002515 0.0004421 -0.0000780 0.0003806 0.0000587 0.0005250 -0.0005132 -0.0006793 0.0000329 0.0001527 -0.0000303 -0.0007265 0.0001212 0.0012399 0.0000076 0.0005965 0.0000813 0.0008820 0.0000488 0.0006700 0.0001347 0.0006152 0.0000997 0.0007051 -0.0003436 0.0001404 0.0001526 0.0005860 0.0001618 0.0003709 0.0001550 0.0001772
0.0001169 0.0004923 0.0002801 0.0000132 0.0000998 0.0000898 0.0002453 0.0007497 0.0001678 0.0005134 -0.0000842 0.0001054 0.0000759 0.0003821 -0.0005502 -0.0007370 0.0000630 -0.0000073 -0.0000399 -0.0008570 0.0001271 0.0008511 0.0000098 0.0004283 0.0000759 0.0006980 0.0000657 0.0005029 0.0001421 0.0004842 0.0001024 0.0005354 -0.0003656 0.0000870 0.0001713 0.0003911 0.0001738 0.0001377 0.0001855 -0.0001927
0.0001164 0.0003362 0.0002641 -0.0000354 0.0001007 -0.0001179 0.0002547 0.0005131 0.0000360 0.0005306 -0.0000861 -0.0000659 0.0000900 0.0002289 -0.0005526 -0.0008144 0.0001134 -0.0001450 -0.0000299 -0.0009569 0.0001324 0.0008193 0.0000009 0.0003594 0.0000765 0.0006392 0.0001171 0.0003854 0.0001596 0.0004061 0.0001169 0.0004641 -0.0003707 0.0000801 0.0001878 0.0003693 0.0001813 0.0001198 0.0002018 -0.0001941
0.0001126 0.0003135 0.0002471 -0.0000309 0.0001025 -0.0000788 0.0002563 0.0005427 0.0001224 0.0004180 -0.0000819 -0.0000506 0.0000944 0.0001775 -0.0005393 -0.0007723 0.0001208 -0.0001408 -0.0000236 -0.0009217 0.0001379 0.0008931 -0.0000040 0.0003628 0.0000799 0.0006491 0.0001159 0.0003829 0.0001537 0.0004210 0.0001300 0.0004401 -0.0003837 0.0000573 0.0002011 0.0003951 0.0001846 0.0001654 0.0002040 -0.0000831
0.0001157 0.0003344 0.0002493 -0.0000307 0.0000990 0.0000247 0.0002556 0.0006438 0.0003989 0.0001414 -0.0000914 0.0000443 0.0000702 0.0001968 -0.0005680 -0.0007599 0.0000809 -0.0001244 -0.0000418 -0.0009912 0.0001329 0.0010417 -0.0000012 0.0003993 0.0000762 0.0007025 0.0000756 0.0004914 0.0001372 0.0004692 0.0001225 0.0004797 -0.0003842 0.0000768 0.0001943 0.0004780 0.0001711 0.0002804 0.0001780 0.0001078
0.0001016 0.0004149 0.0002672 -0.0000158 0.0000892 0.0001935 0.0002501 0.0008119 0.0004513 0.0001799 -0.0000998 0.0001987 0.0000605 0.0002625 -0.0006098 -0.0007108 0.0000602 -0.0000546 -0.0000439 -0.0010137 0.0001210 0.0012542 -0.0000062 0.0004798 0.0000696 0.0008020 0.0000475 0.0005794 0.0001673 0.0004780 0.0001099 0.0005749 -0.0003987 0.0000836 0.0001808 0.0005893 0.0001542 0.0004311 0.0001547 0.0003225
0.0000799 0.0005142 0.0002561 0.0000168 0.0000745 0.0003711 0.0002434 0.0009937 0.0001386 0.0005441 -0.0001085 0.0003212 0.0000639 0.0003486 -0.0005899 -0.0007191 0.0000743 -0.0000066 -0.0000345 -0.0009897 0.0001146 0.0012753 -0.0000110 0.0005165 0.0000640 0.0008232 0.0000418 0.0005598 0.0001883 0.0004624 0.0001052 0.0005677 -0.0003854 0.0000840 0.0001918 0.0005177 0.0001523 0.0003256 0.0001695 0.0001201
0.0000814 0.0004183 0.0002584 -0.0000039 0.0000717 0.0001525 0.0002512 0.0007491 0.0000836 0.0004089 -0.0001132 0.0000630 0.0000727 0.0002265 -0.0006101 -0.0008051 0.0000661 -0.0001399 -0.0000366 -0.0011047 0.0001206 0.0008985 -0.0000048 0.0003491 0.0000652 0.0006435 0.0000570 0.0004576 0.0001569 0.0003909 0.0001203 0.0003988 -0.0003782 0.0000290 0.0002118 0.0003263 0.0001629 0.0000859 0.0001962 -0.0002673
0.0000935 0.0002632 0.0002670 -0.0000760 0.0000894 -0.0001719 0.0002641 0.0003471 0.0001264 0.0001830 -0.0000885 -0.0002680 0.0001013 0.0000003 -0.0005845 -0.0007992 0.0000839 -0.0002644 -0.0000133 -0.0010348 0.0001330 0.0005545 0.0000066 0.0001625 0.0000694 0.0004582 0.0000357 0.0003283 0.0001830 0.0002496 0.0001290 0.0002541 -0.0003508 -0.0000216 0.0002025 0.0002490 0.0001708 0.0000085 0.0002107 -0.0003441
0.0001038 0.0002578 0.0002499 -0.0000883 0.0001018 -0.0001468 0.0002628 0.0003206 0.0001554 0.0002141 -0.0000742 -0.0002562 0.0001097 -0.0000511 -0.0005792 -0.0008381 0.0000598 -0.0002792 -0.0000336 -0.0010351 0.0001380 0.0005553 0.0000125 0.0001369 0.0000715 0.0004275 0.0000534 0.0002443 0.0002432 0.0001432 0.0001294 0.0002132 -0.0003329 -0.0000186 0.0001779 0.0002554 0.0001766 0.0000106 0.0002222 -0.0003065
0.0001068 0.0002692 0.0002560 -0.0000780 0.0000994 -0.0000646 0.0002598 0.0003903 0.0002832 0.0001736 -0.0000775 -0.0001995 0.0001150 -0.0000737 -0.0005555 -0.0008064 0.0000292 -0.0002301 -0.0000338 -0.0010040 0.0001400 0.0006727 0.0000084 0.0001629 0.0000695 0.0004596 0.0000993 0.0002247 0.0002245 0.0001395 0.0001309 0.0002190 -0.0003482 -0.0000258 0.0001829 0.0003055 0.0001723 0.0000797 0.0002205 -0.0001564
0.0000958 0.0003170 0.0002630 -0.0000859 0.0000887 0.0000720 0.0002563 0.0005344 0.0001102 0.0003205 -0.0000780 -0.0000964 0.0001118 -0.0000336 -0.0005639 -0.0008091 0.0000759 -0.0002359 -0.0000261 -0.0010339 0.0001381 0.0008749 0.0000060 0.0002305 0.0000709 0.0005319 0.0001171 0.0002375 0.0001937 0.0002064 0.0001248 0.0002764 -0.0003311 -0.0000083 0.0001997 0.0003861 0.0001630 0.0001948 0.0002025 0.0000483
0.0000799 0.0003837 0.0002583 -0.0000470 0.0000749 0.0002381 0.0002505 0.0007152 0.0000798 0.0004544 -0.0000957 0.0000356 0.0000875 0.0000488 -0.0005777 -0.0008396 0.0000304 -0.0001763 -0.0000528 -0.0010959 0.0001327 0.0010870 0.0000008 0.0003059 0.0000779 0.0006161 0.0001106 0.0002856 0.0001839 0.0002772 0.0001230 0.0003535 -0.0003817 -0.0000053 0.0001945 0.0004809 0.0001541 0.0002552 0.0002008 0.0001470
0.0000746 0.0003952 0.0002543 -0.0000319 0.0000719 0.0001786 0.0002462 0.0006561 0.0002852 0.0002507 -0.0001047 -0.0000987 0.0001023 -0.0000318 -0.0005987 -0.0008264 0.0000373 -0.0002354 -0.0000595 -0.0010701 0.0001398 0.0007804 -0.0000017 0.0001948 0.0000726 0.0004990 0.0000858 0.0001981 0.0001556 0.0002455 0.0001230 0.0002456 -0.0003637 -0.0000319 0.0001935 0.0003338 0.0001511 0.0000712 0.0002122 -0.0001502
0.0000759 0.0002708 0.0002667 -0.0000883 0.0000791 -0.0000906 0.0002534 0.0003365 0.0003187 0.0000627 -0.0000882 -0.0004087 0.0001219 -0.0002243 -0.0006530 -0.0008479 0.0001021 -0.0004348 -0.0000744 -0.0011339 0.0001562 0.0003027 0.0000088 -0.0000178 0.0000679 0.0002802 0.0001014 0.0000064 0.0001879 0.0000597 0.0001399 0.0000313 -0.0003325 -0.0000745 0.0002082 0.0001190 0.0001637 -0.0001316 0.0002152 -0.0004294
0.0000721 0.0001525 0.0002782 -0.0001523 0.0000769 -0.0001907 0.0002615 0.0001873 0.0002912 0.0000174 -0.0000746 -0.0004956 0.0001207 -0.0003344 -0.0006014 -0.0008326 0.0000897 -0.0004696 -0.0000657 -0.0010822 0.0001592 0.0002855 0.0000099 -0.0000832 0.0000734 0.0002175 0.0001564 -0.0001036 0.0002469 -0.0000815 0.0001541 -0.0000607 -0.0003502 -0.0000863 0.0002288 0.0000929 0.0001695 -0.0001559 0.0002205 -0.0004107
0.0000726 0.0001411 0.0002596 -0.0001498 0.0000737 -0.0001374 0.0002626 0.0002168 0.0002325 0.0000493 -0.0000681 -0.0004646 0.0001459 -0.0003941 -0.0006095 -0.0008960 0.0000943 -0.0005300 -0.0000640 -0.0012230 0.0001611 0.0003925 0.0000042 -0.0000724 0.0000769 0.0002193 0.0001715 -0.0000971 0.0002317 -0.0000991 0.0001552 -0.0000855 -0.0003437 -0.0001135 0.0002500 0.0001214 0.0001712 -0.0001120 0.0002178 -0.0003013
0.0000682 0.0001454 0.0002796 -0.0001627 0.0000614 -0.0000518 0.0002653 0.0003321 0.0001878 0.0001970 -0.0000741 -0.0003967 0.0001463 -0.0003697 -0.0006320 -0.0008667 0.0000861 -0.0004662 -0.0000541 -0.0012838 0.0001655 0.0005721 0.0000142 -0.0000424 0.0000763 0.0002650 0.0001173 0.0000208 0.0002397 -0.0000345 0.0001453 -0.0000801 -0.0003669 -0.0001316 0.0002335 0.0002449 0.0001653 -0.0000102 0.0002004 -0.0001091
0.0000606 0.0002119 0.0002993 -0.0001605 0.0000548 0.0001129 0.0002603 0.0005207 0.0002559 0.0001824 -0.0000730 -0.0002316 0.0001421 -0.0002510 -0.0006195 -0.0008700 0.0000594 -0.0003784 -0.0000648 -0.0012492 0.0001613 0.0007829 0.0000215 0.0000393 0.0000786 0.0003545 0.0000910 0.0000990 0.0002434 0.0000660 0.0001337 -0.0000010 -0.0003813 -0.0001059 0.0002206 0.0003741 0.0001529 0.0001239 0.0001899 0.0001026
0.0000592 0.0003402 0.0002783 -0.0000807 0.0000587 0.0003059 0.0002416 0.0006641 0.0000955 0.0002261 -0.0000625 -0.0000766 0.0001416 -0.0001430 -0.0005842 -0.0008488 0.0000589 -0.0003484 -0.0000554 -0.0011659 0.0001563 0.0006974 0.0000212 0.0000642 0.0000764 0.0003561 0.0000822 0.0000912 0.0002163 0.0000704 0.0001402 0.0000139 -0.0003582 -0.0001012 0.0002290 0.0002861 0.0001527 0.0000336 0.0002056 -0.0000703
0.0000699 0.0003203 0.0002671 -0.0000809 0.0000635 0.0001411 0.0002371 0.0004175 0.0000088 0.0002251 -0.0000607 -0.0003041 0.0001302 -0.0002427 -0.0005540 -0.0008462 0.0000608 -0.0004016 -0.0000290 -0.0010916 0.0001652 0.0002954 0.0000232 -0.0000906 0.0000718 0.0001974 0.0001051 -0.0000538 0.0002052 -0.0000395 0.0001574 -0.0001367 -0.0003242 -0.0001137 0.0002264 0.0000988 0.0001598 -0.0001954 0.0002237 -0.0004596
0.0000784 0.0001730 0.0002417 -0.0000968 0.0000660 -0.0001391 0.0002471 0.0000615 0.0001516 -0.0000483 -0.0000510 -0.0006178 0.0001459 -0.0004543 -0.0005905 -0.0008925 0.0000820 -0.0005655 -0.0000331 -0.0011580 0.0001800 0.0000765 0.0000249 -0.0002374 0.0000770 0.0000672 0.0001260 -0.0002181 0.0002366 -0.0001806 0.0001743 -0.0002613 -0.0003272 -0.0001622 0.0002263 0.0000538 0.0001710 -0.0002441 0.0002309 -0.0004856
0.0000784 0.0001332 0.0002284 -0.0001131 0.0000584 -0.0001157 0.0002497 0.0000754 0.0002359 -0.0001272 -0.0000384 -0.0006216 0.0001824 -0.0005465 -0.0005844 -0.0008914 0.0000831 -0.0006080 -0.0000110 -0.0011937 0.0001864 0.0001113 0.0000267 -0.0002638 0.0000832 0.0000443 0.0001091 -0.0002418 0.0002760 -0.0002543 0.0001807 -0.0003064 -0.0003133 -0.0001705 0.0002225 0.0000689 0.0001711 -0.0002124 0.0002206 -0.0003843
0.0000710 0.0001446 0.0002394 -0.0001342 0.0000519 -0.0000251 0.0002475 0.0001889 0.0002791 -0.0000369 -0.0000362 -0.0005329 0.0001969 -0.0005588 -0.0005964 -0.0009218 0.0000847 -0.0006024 -0.0000196 -0.0012946 0.0001896 0.0002560 0.0000318 -0.0002304 0.0000894 0.0000826 0.0001029 -0.0001869 0.0002526 -0.0002274 0.0001682 -0.0002643 -0.0003090 -0.0001613 0.0002295 0.0001211 0.0001604 -0.0001164 0.0001922 -0.0002076
0.0000635 0.0001795 0.0002569 -0.0001272 0.0000407 0.0001110 0.0002417 0.0003633 0.0002361 0.0000152 -0.0000483 -0.0003921 0.0001753 -0.0004984 -0.0005890 -0.0008847 0.0001289 -0.0005628 -0.0000282 -0.0012642 0.0001872 0.0004965 0.0000332 -0.0001495 0.0000901 0.0001764 0.0001365 -0.0001428 0.0002377 -0.0001495 0.0001557 -0.0001847 -0.0003180 -0.0001500 0.0002344 0.0002249 0.0001524 0.0000127 0.0001749 0.0000180
0.0000486 0.0002602 0.0002789 -0.0001233 0.0000272 0.0002742 0.0002338 0.0005712 0.0002128 0.0001308 -0.0000654 -0.0002288 0.0001451 -0.0003828 -0.0005734 -0.0008878 0.0001112 -0.0004817 -0.0000305 -0.0012446 0.0001816 0.0007177 0.0000119 -0.0000366 0.0000849 0.0002906 0.0001487 -0.0000657 0.0002563 -0.0000715 0.0001487 -0.0000806 -0.0003130 -0.0001252 0.0002274 0.0003149 0.0001413 0.0000692 0.0001694 0.0000891
0.0000360 0.0002978 0.0002805 -0.0001138 0.0000287 0.0002086 0.0002340 0.0004938 0.0002145 0.0001377 -0.0000591 -0.0003662 0.0001481 -0.0004277 -0.0006138 -0.0008221 0.0001018 -0.0005002 -0.0000296 -0.0011935 0.0001908 0.0004136 0.0000144 -0.0001323 0.0000842 0.0001864 0.0001046 -0.0001110 0.0002428 -0.0001227 0.0001541 -0.0001573 -0.0003236 -0.0001584 0.0002354 0.0001860 0.0001427 -0.0000761 0.0001737 -0.0001692
0.0000508 0.0001932 0.0002624 -0.0001410 0.0000329 -0.0000189 0.0002424 0.0002206 0.0002024 0.0000433 -0.0000476 -0.0006372 0.0001773 -0.0006138 -0.0006118 -0.0008570 0.0000768 -0.0006129 -0.0000341 -0.0012144 0.0002075 -0.0000092 0.0000354 -0.0003299 0.0000881 -0.0000090 0.0001126 -0.0002721 0.0002161 -0.0002362 0.0001716 -0.0003440 -0.0003147 -0.0002164 0.0002544 0.0000001 0.0001547 -0.0002201 0.0001936 -0.0004081
0.0000585 0.0000881 0.0002655 -0.0001661 0.0000268 -0.0000778 0.0002445 0.0001515 0.0002372 -0.0000034 -0.0000445 -0.0006637 0.0002014 -0.0006858 -0.0005848 -0.0009289 0.0000686 -0.0006819 -0.0000414 -0.0013072 0.0002129 0.0000313 0.0000341 -0.0003599 0.0000896 -0.0000357 0.0001278 -0.0002867 0.0002326 -0.0002939 0.0001901 -0.0003856 -0.0003258 -0.0002387 0.0002634 0.0000014 0.0001562 -0.0002055 0.0001979 -0.0003561
0.0000495 0.0001009 0.0002793 -0.0001765 0.0000259 -0.0000255 0.0002441 0.0002209 0.0003768 -0.0000846 -0.0000411 -0.0006029 0.0002000 -0.0006662 -0.0005719 -0.0009168 0.0000747 -0.0006589 -0.0000245 -0.0012886 0.0002134 0.0001717 0.0000316 -0.0003280 0.0000898 0.0000010 0.0001561 -0.0002827 0.0002766 -0.0003256 0.0001892 -0.0003553 -0.0003233 -0.0002168 0.0002467 0.0000829 0.0001494 -0.0001332 0.0001787 -0.0002097
0.0000340 0.0001493 0.0002664 -0.0001586 0.0000228 0.0000838 0.0002384 0.0003649 0.0003788 -0.0000566 -0.0000404 -0.0004846 0.0001730 -0.0005886 -0.0005778 -0.0008988 0.0000865 -0.0006393 -0.0000150 -0.0012654 0.0002082 0.0003827 0.0000371 -0.0002637 0.0000871 0.0000880 0.0001627 -0.0002108 0.0003170 -0.0003041 0.0001798 -0.0002750 -0.0002854 -0.0002037 0.0002375 0.0001826 0.0001433 -0.0000025 0.0001548 0.0000011
0.0000282 0.0002271 0.0002559 -0.0001117 0.0000152 0.0002508 0.0002274 0.0005761 0.0004038 0.0000870 -0.0000529 -0.0003041 0.0001701 -0.0004879 -0.0005812 -0.0008637 0.0001113 -0.0006076 -0.0000093 -0.0012911 0.0002006 0.0006269 0.0000295 -0.0001465 0.0000867 0.0001983 0.0001022 -0.0000287 0.0002941 -0.0001830 0.0001788 -0.0001694 -0.0002988 -0.0001902 0.0002362 0.0003012 0.0001299 0.0001594 0.0001297 0.0002444
0.0000226 0.0003146 0.0002543 -0.0000563 0.0000025 0.0004225 0.0002182 0.0007863 0.0003781 0.0002568 -0.0000724 -0.0001176 0.0001707 -0.0003766 -0.0006145 -0.0008069 0.0000671 -0.0004529 -0.0000160 -0.0012465 0.0001936 0.0007937 0.0000219 -0.0000381 0.0000886 0.0002965 0.0000944 0.0000242 0.0002470 -0.0000889 0.0001683 -0.0000701 -0.0002914 -0.0001664 0.0002239 0.0003374 0.0001202 0.0001522 0.0001276 0.0001962
0.0000277 0.0003003 0.0002601 -0.0000502 0.0000027 0.0003012 0.0002169 0.0006417 0.0001361 0.0003507 -0.0000682 -0.0002946 0.0001703 -0.0004164 -0.0006176 -0.0007890 0.0000617 -0.0004994 0.0000093 -0.0012105 0.0001993 0.0004718 0.0000291 -0.0001515 0.0000865 0.0001888 0.0001301 -0.0001071 0.0002447 -0.0001767 0.0001723 -0.0001443 -0.0002632 -0.0001844 0.0002141 0.0001858 0.0001277 -0.0000229 0.0001376 -0.0000860
0.0000399 0.0002008 0.0002499 -0.0000730 0.0000150 0.0000509 0.0002228 0.0003445 0.0002442 0.0001914 -0.0000496 -0.0005765 0.0001877 -0.0005710 -0.0006004 -0.0008359 0.0001165 -0.0006812 0.0000146 -0.0012707 0.0002118 0.0001136 0.0000303 -0.0003051 0.0000908 0.0000293 0.0001452 -0.0002277 0.0002292 -0.0002535 0.0001839 -0.0002616 -0.0002811 -0.0002634 0.0002170 0.0000837 0.0001313 -0.0000758 0.0001384 -0.0001304
0.0000372 0.0001605 0.0002327 -0.0000802 0.0000147 0.0000514 0.0002205 0.0003540 0.0002889 0.0001880 -0.0000429 -0.0005451 0.0001942 -0.0006024 -0.0005777 -0.0008695 0.0001124 -0.0006964 -0.0000126 -0.0012742 0.0002142 0.0001672 0.0000346 -0.0003171 0.0000905 0.0000266 0.0001395 -0.0002558 0.0002290 -0.0002806 0.0001941 -0.0002831 -0.0002855 -0.0002633 0.0002154 0.0001158 0.0001247 -0.0000355 0.0001385 -0.0000636
0.0000440 0.0001754 0.0002572 -0.0000814 0.0000143 0.0001217 0.0002128 0.0004523 0.0002766 0.0001686 -0.0000528 -0.0004422 0.0001715 -0.0005497 -0.0005786 -0.0008804 0.0001043 -0.0006883 -0.0000242 -0.0013142 0.0002093 0.0003279 0.0000244 -0.0002577 0.0000869 0.0000882 0.0001128 -0.0001761 0.0002669 -0.0002756 0.0001905 -0.0002344 -0.0003082 -0.0002157 0.0002120 0.0001913 0.0001191 0.0000568 0.0001277 0.0000914
0.0000439 0.0002201 0.0002632 -0.0000435 0.0000120 0.0002391 0.0002040 0.0006037 0.0003639 0.0001589 -0.0000621 -0.0003014 0.0001608 -0.0004701 -0.0006091 -0.0008198 0.0001290 -0.0006171 -0.0000209 -0.0012668 0.0002002 0.0005531 0.0000176 -0.0001559 0.0000832 0.0001938 0.0001213 -0.0001030 0.0002572 -0.0001752 0.0001733 -0.0001194 -0.0003185 -0.0002063 0.0002173 0.0002983 0.0001085 0.0001923 0.0001037 0.0003297
0.0000270 0.0003094 0.0002578 -0.0000234 0.0000021 0.0004059 0.0001914 0.0008091 0.0002074 0.0003930 -0.0000780 -0.0001321 0.0001792 -0.0003855 -0.0006305 -0.0008647 0.0001203 -0.0005707 -0.0000246 -0.0013659 0.0001965 0.0007742 0.0000198 -0.0000495 0.0000766 0.0003131 0.0001417 -0.0000364 0.0002416 -0.0000830 0.0001692 -0.0000012 -0.0003182 -0.0001876 0.0002170 0.0004193 0.0000942 0.0003450 0.0000753 0.0005451
0.0000152 0.0003864 0.0002571 0.0000125 -0.0000048 0.0005294 0.0001819 0.0009634 0.0003054 0.0003432 -0.0000976 -0.0000551 0.0001680 -0.0003001 -0.0006561 -0.0008456 0.0000515 -0.0005193 -0.0000178 -0.0014379 0.0001947 0.0006795 0.0000034 -0.0000259 0.0000711 0.0003171 0.0000903 0.0000193 0.0002369 -0.0000993 0.0001733 -0.0000194 -0.0003428 -0.0001919 0.0001989 0.0003693 0.0000927 0.0002683 0.0000793 0.0003744
0.0000229 0.0003196 0.0002615 -0.0000038 0.0000030 0.0003503 0.0001805 0.0007665 0.0002497 0.0004421 -0.0000929 -0.0002505 0.0001720 -0.0003729 -0.0006859 -0.0008200 0.0000049 -0.0005608 -0.0000176 -0.0014187 0.0001966 0.0003616 0.0000099 -0.0001549 0.0000691 0.0001835 0.0001186 -0.0001077 0.0002253 -0.0001906 0.0001816 -0.0001334 -0.0003326 -0.0002023 0.0002000 0.0002190 0.0000950 0.0000921 0.0000887 0.0000864
0.0000319 0.0002225 0.0002638 -0.0000245 0.0000080 0.0001504 0.0001762 0.0005389 0.0001419 0.0004824 -0.0000871 -0.0003984 0.0001930 -0.0004829 -0.0007041 -0.0008537 0.0000487 -0.0006564 -0.0000141 -0.0014640 0.0001977 0.0003175 0.0000164 -0.0002113 0.0000691 0.0001445 0.0001169 -0.0001252 0.0002201 -0.0002204 0.0001815 -0.0001366 -0.0003505 -0.0002275 0.0002169 0.0002215 0.0000906 0.0001169 0.0000807 0.0001492
0.0000245 0.0002331 0.0002417 0.0000059 0.0000049 0.0001974 0.0001702 0.0006003 0.0001208 0.0005633 -0.0000876 -0.0003504 0.0001812 -0.0004609 -0.0006654 -0.0008269 0.0000787 -0.0006404 0.0000108 -0.0014043 0.0001978 0.0004096 0.0000097 -0.0001816 0.0000657 0.0001795 0.0001065 -0.0000946 0.0002542 -0.0002386 0.0001779 -0.0001069 -0.0003495 -0.0002303 0.0002155 0.0002738 0.0000848 0.0001800 0.0000798 0.0002677
0.0000230 0.0002680 0.0002273 0.0000272 0.0000076 0.0002830 0.0001647 0.0007146 0.0000756 0.0006810 -0.0000931 -0.0002491 0.0001736 -0.0004011 -0.0006863 -0.0008342 0.0000612 -0.0005948 -0.0000161 -0.0014622 0.0001896 0.0005919 0.0000072 -0.0001144 0.0000650 0.0002600 0.0001294 -0.0000516 0.0002479 -0.0001759 0.0001748 -0.0000317 -0.0003494 -0.0002106 0.0002048 0.0003727 0.0000766 0.0003002 0.0000532 0.0004877
0.0000185 0.0003255 0.0002563 0.0000466 0.0000010 0.0004339 0.0001496 0.0009100 0.0000591 0.0006872 -0.0001038 -0.0000793 0.0001526 -0.0002765 -0.0006934 -0.0007891 0.0000173 -0.0004580 -0.0000433 -0.0014266 0.0001736 0.0008405 -0.0000087 0.0000104 0.0000611 0.0003877 0.0000806 0.0001042 0.0001974 -0.0000365 0.0001593 0.0001006 -0.0003758 -0.0001880 0.0001908 0.0005096 0.0000703 0.0004510 0.0000315 0.0007172
0.0000094 0.0004051 0.0002742 0.0000705 -0.0000110 0.0006018 0.0001338 0.0011282 0.0000212 0.0008141 -0.0001175 0.0000887 0.0001348 -0.0001514 -0.0007042 -0.0008270 -0.0000127 -0.0003882 -0.0000676 -0.0014696 0.0001629 0.0010717 -0.0000200 0.0001414 0.0000539 0.0005103 0.0000674 0.0002542 0.0001867 0.0000741 0.0001430 0.0002237 -0.0003777 -0.0001216 0.0001647 0.0006193 0.0000568 0.0005171 0.0000235 0.0007896
0.0000090 0.0004277 0.0002584 0.0001122 -0.0000080 0.0005344 0.0001282 0.0010537 0.0002064 0.0006895 -0.0001287 -0.0000332 0.0001326 -0.0001705 -0.0007187 -0.0008436 -0.0000256 -0.0004486 -0.0000726 -0.0014841 0.0001627 0.0007711 -0.0000152 0.0000502 0.0000453 0.0004214 0.0000606 0.0001879 0.0002178 -0.0000012 0.0001544 0.0001445 -0.0003737 -0.0001464 0.0001585 0.0005030 0.0000468 0.0003741 0.0000079 0.0005612
0.0000158 0.0003220 0.0002598 0.0000778 -0.0000049 0.0002864 0.0001274 0.0007730 0.0002280 0.0005563 -0.0001258 -0.0002951 0.0001286 -0.0002852 -0.0007211 -0.0008170 -0.0000059 -0.0005646 -0.0000404 -0.0014302 0.0001681 0.0003448 -0.0000132 -0.0001265 0.0000411 0.0002331 0.0000725 0.0000113 0.0002478 -0.0001436 0.0001611 -0.0000172 -0.0003405 -0.0001931 0.0001707 0.0003312 0.0000466 0.0002197 0.0000069 0.0003187
0.0000191 0.0002330 0.0002397 0.0000631 -0.0000053 0.0001978 0.0001226 0.0006939 0.0001793 0.0005129 -0.0001266 -0.0003073 0.0001341 -0.0003416 -0.0007224 -0.0008533 0.0000129 -0.0006176 -0.0000308 -0.0015226 0.0001660 0.0004165 -0.0000159 -0.0001310 0.0000360 0.0002370 0.0001014 -0.0000371 0.0002166 -0.0001215 0.0001548 -0.0000171 -0.0003723 -0.0002099 0.0001590 0.0003697 0.0000459 0.0002312 0.0000174 0.0003523
0.0000198 0.0002391 0.0002117 0.0000784 -0.0000013 0.0002377 0.0001145 0.0007471 0.0002297 0.0004896 -0.0001306 -0.0002432 0.0001228 -0.0003224 -0.0006892 -0.0008224 0.0000104 -0.0005729 -0.0000262 -0.0014533 0.0001631 0.0005382 -0.0000120 -0.0000999 0.0000305 0.0002851 0.0001343 -0.0000683 0.0002064 -0.0000848 0.0001518 0.0000176 -0.0004019 -0.0002035 0.0001512 0.0004477 0.0000433 0.0002917 -0.0000027 0.0004973
0.0000201 0.0002832 0.0002240 0.0000773 -0.0000003 0.0003368 0.0001036 0.0008782 0.0001815 0.0006216 -0.0001356 -0.0001189 0.0000991 -0.0002212 -0.0007305 -0.0008534 0.0000126 -0.0005445 -0.0000328 -0.0015543 0.0001547 0.0007452 -0.0000263 0.0000103 0.0000320 0.0003709 0.0001203 0.0000612 0.0002017 -0.0000195 0.0001345 0.0001134 -0.0003916 -0.0001754 0.0001582 0.0005523 0.0000301 0.0004217 -0.0000191 0.0007031
0.0000134 0.0003607 0.0002213 0.0001182 -0.0000019 0.0004995 0.0000913 0.0010674 0.0000517 0.0007910 -0.0001443 0.0000652 0.0001082 -0.0001185 -0.0007101 -0.0008268 0.0000191 -0.0004666 -0.0000357 -0.0015419 0.0001349 0.0009824 -0.0000470 0.0001445 0.0000211 0.0005020 0.0000746 0.0002236 0.0001692 0.0000988 0.0001128 0.0002559 -0.0004064 -0.0001520 0.0001674 0.0006659 0.0000084 0.0005840 -0.0000259 0.0009212
0.0000060 0.0004621 0.0002106 0.0001373 -0.0000092 0.0006785 0.0000720 0.0012621 0.0000653 0.0008180 -0.0001575 0.0002612 0.0001125 -0.0000111 -0.0006971 -0.0007965 -0.0000228 -0.0003512 -0.0000552 -0.0014676 0.0001176 0.0011736 -0.0000549 0.0002603 0.0000059 0.0006268 0.0000456 0.0003261 0.0001552 0.0002040 0.0001092 0.0003576 -0.0004018 -0.0001060 0.0001573 0.0007245 -0.0000078 0.0005951 -0.0000429 0.0009265
0.0000097 0.0004800 0.0002002 0.0001709 -0.0000018 0.0005653 0.0000625 0.0011047 0.0000934 0.0008060 -0.0001591 0.0001060 0.0001012 -0.0000414 -0.0006943 -0.0008056 -0.0000487 -0.0003805 -0.0000767 -0.0014582 0.0001147 0.0008224 -0.0000494 0.0001446 0.0000002 0.0005132 0.0000206 0.0002739 0.0001761 0.0001258 0.0001180 0.0002602 -0.0004222 -0.0001371 0.0001347 0.0006055 -0.0000031 0.0004080 -0.0000345 0.0006183
0.0000172 0.0003638 0.0001840 0.0001428 0.0000107 0.0002809 0.0000676 0.0007807 0.0001042 0.0006205 -0.0001520 -0.0001941 0.0001005 -0.0001874 -0.0007230 -0.0008088 -0.0000377 -0.0005098 -0.0000865 -0.0014797 0.0001247 0.0003806 -0.0000370 -0.0000565 -0.0000030 0.0003143 0.0000109 0.0001439 0.0001705 -0.0000013 0.0001168 0.0000906 -0.0004369 -0.0001464 0.0001288 0.0004750 0.0000024 0.0002763 -0.0000290 0.0004261
0.0000235 0.0002734 0.0002092 0.0000785 0.0000141 0.0002229 0.0000676 0.0007284 0.0001721 0.0004529 -0.0001446 -0.0001850 0.0000757 -0.0001949 -0.0007144 -0.0008890 -0.0000420 -0.0005434 -0.0000853 -0.0015735 0.0001200 0.0004368 -0.0000399 -0.0000497 -0.0000088 0.0003149 0.0000273 0.0001261 0.0001520 0.0000000 0.0001168 0.0000807 -0.0004390 -0.0001476 0.0001563 0.0004714 -0.0000000 0.0002862 -0.0000443 0.0004853
0.0000410 0.0002745 0.0002019 0.0000865 0.0000202 0.0002797 0.0000613 0.0007724 0.0001174 0.0005566 -0.0001376 -0.0001024 0.0000921 -0.0001832 -0.0006876 -0.0008250 -0.0000608 -0.0004199 -0.0000844 -0.0014564 0.0001061 0.0005627 -0.0000481 0.0000078 -0.0000142 0.0003675 0.0000474 0.0001489 0.0001845 0.0000171 0.0001141 0.0001202 -0.0004164 -0.0001487 0.0001715 0.0005111 -0.0000087 0.0003506 -0.0000550 0.0005960
0.0000386 0.0003357 0.0001720 0.0001126 0.0000232 0.0003825 0.0000508 0.0008975 0.0000843 0.0006946 -0.0001478 0.0000245 0.0001094 -0.0001352 -0.0007439 -0.0008007 -0.0000683 -0.0003680 -0.0000905 -0.0014886 0.0000916 0.0007818 -0.0000599 0.0001094 -0.0000220 0.0004701 0.0000479 0.0002097 0.0001223 0.0001409 0.0001031 0.0002079 -0.0004122 -0.0001027 0.0001541 0.0006185 -0.0000254 0.0004861 -0.0000596 0.0007856
0.0000246 0.0004118 0.0001729 0.0001363 0.0000174 0.0005326 0.0000396 0.0010857 0.0001537 0.0007057 -0.0001616 0.0001924 0.0000966 -0.0000289 -0.0007163 -0.0007775 -0.0000272 -0.0003503 -0.0000505 -0.0014585 0.0000776 0.0010142 -0.0000787 0.0002335 -0.0000333 0.0005963 -0.0000029 0.0003200 0.0000906 0.0002469 0.0000940 0.0003155 -0.0004258 -0.0000879 0.0001382 0.0007444 -0.0000389 0.0006317 -0.0000832 0.0010059
0.0000160 0.0004888 0.0001842 0.0001408 0.0000079 0.0006903 0.0000293 0.0012821 0.0001635 0.0007231 -0.0001762 0.0003625 0.0000850 0.0000879 -0.0006864 -0.0007298 -0.0000327 -0.0002686 -0.0000472 -0.0013945 0.0000649 0.0011837 -0.0000879 0.0003378 -0.0000444 0.0007055 -0.0000334 0.0004470 0.0001085 0.0002958 0.0000788 0.0004055 -0.0004165 -0.0000748 0.0001124 0.0007932 -0.0000458 0.0006001 -0.0000946 0.0009459
0.0000196 0.0004664 0.0001955 0.0001395 0.0000093 0.0005390 0.0000260 0.0011023 0.0001160 0.0007256 -0.0001753 0.0001598 0.0000628 0.0000362 -0.0006708 -0.0007520 -0.0000530 -0.0003288 -0.0000837 -0.0013530 0.0000588 0.0008481 -0.0000823 0.0002153 -0.0000520 0.0005816 -0.0000065 0.0003619 0.0001112 0.0002370 0.0000706 0.0003185 -0.0004348 -0.0000879 0.0001065 0.0006474 -0.0000411 0.0003997 -0.0000757 0.0006200
0.0000321 0.0003344 0.0001946 0.0001062 0.0000206 0.0002409 0.0000292 0.0007782 0.0001040 0.0006165 -0.0001667 -0.0001635 0.0000601 -0.0001133 -0.0006768 -0.0007483 -0.0000778 -0.0004182 -0.0000813 -0.0012971 0.0000695 0.0004563 -0.0000819 0.0000350 -0.0000520 0.0003925 -0.0000009 0.0002112 0.0001333 0.0001154 0.0000771 0.0001615 -0.0004258 -0.0001090 0.0001235 0.0005197 -0.0000372 0.0002915 -0.0000665 0.0004594
0.0000318 0.0002566 0.0001776 0.0000955 0.0000258 0.0001955 0.0000315 0.0007557 0.0000417 0.0006960 -0.0001708 -0.0001654 0.0000587 -0.0001287 -0.0007275 -0.0007449 -0.0001318 -0.0003833 -0.0000715 -0.0013672 0.0000675 0.0005225 -0.0000912 0.0000394 -0.0000528 0.0003868 -0.0000083 0.0001875 0.0001092 0.0001389 0.0000701 0.0001467 -0.0004122 -0.0001183 0.0001228 0.0005448 -0.0000358 0.0002938 -0.0000722 0.0004899
0.0000309 0.0002441 0.0001896 0.0000772 0.0000284 0.0002384 0.0000313 0.0008119 0.0001473 0.0007008 -0.0001742 -0.0000982 0.0000629 -0.0001173 -0.0007275 -0.0007366 -0.0001172 -0.0003506 -0.0000564 -0.0013858 0.0000612 0.0006738 -0.0000927 0.0000818 -0.0000552 0.0004330 0.0000010 0.0002377 0.0000984 0.0001751 0.0000553 0.0001655 -0.0004174 -0.0001019 0.0001144 0.0006162 -0.0000456 0.0003588 -0.0000728 0.0005964
0.0000287 0.0002624 0.0001894 0.0000753 0.0000245 0.0003339 0.0000274 0.0009394 0.0002489 0.0006297 -0.0001883 0.0000148 0.0000639 -0.0000620 -0.0007409 -0.0007810 -0.0000859 -0.0003395 -0.0000273 -0.0015032 0.0000566 0.0009069 -0.0000966 0.0001612 -0.0000597 0.0005299 -0.0000180 0.0003682 0.0000979 0.0002693 0.0000479 0.0001965 -0.0004703 -0.0001051 0.0001291 0.0007295 -0.0000548 0.0004890 -0.0000883 0.0007878
0.0000109 0.0003039 0.0001527 0.0001175 0.0000090 0.0004668 0.0000228 0.0011455 0.0002010 0.0007072 -0.0002034 0.0001604 0.0000625 0.0000396 -0.0008152 -0.0007590 -0.0000724 -0.0002951 -0.0000192 -0.0015732 0.0000511 0.0011523 -0.0001024 0.0002690 -0.0000623 0.0006475 -0.0000181 0.0004504 0.0000866 0.0003885 0.0000289 0.0002811 -0.0005050 -0.0000849 0.0001389 0.0008485 -0.0000607 0.0006238 -0.0001228 0.0010129
0.0000035 0.0003883 0.0001590 0.0001252 0.0000047 0.0006269 0.0000117 0.0013386 0.0002116 0.0007514 -0.0002125 0.0003235 0.0000628 0.0001640 -0.0008125 -0.0007449 -0.0000586 -0.0002624 -0.0000212 -0.0014932 0.0000401 0.0011983 -0.0001065 0.0003420 -0.0000686 0.0007091 -0.0000294 0.0004864 0.0000775 0.0004143 0.0000226 0.0003329 -0.0004635 -0.0000338 0.0001267 0.0008066 -0.0000715 0.0005394 -0.0001118 0.0008544
0.0000177 0.0003660 0.0001780 0.0000989 0.0000178 0.0004649 0.0000070 0.0011000 0.0001853 0.0007081 -0.0002072 0.0001212 0.0000415 0.0001163 -0.0007571 -0.0007858 -0.0001048 -0.0002810 -0.0000135 -0.0014056 0.0000393 0.0008287 -0.0001060 0.0002130 -0.0000756 0.0005727 -0.0000202 0.0003476 0.0001011 0.0003117 0.0000308 0.0002133 -0.0004641 -0.0000758 0.0001226 0.0006436 -0.0000641 0.0003161 -0.0000738 0.0004906
0.0000312 0.0002225 0.0001677 0.0000589 0.0000296 0.0001613 0.0000157 0.0007628 -0.0000024 0.0007652 -0.0002006 -0.0001948 0.0000287 -0.0000503 -0.0007528 -0.0007862 -0.0001053 -0.0003848 -0.0000150 -0.0014011 0.0000504 0.0005719 -0.0001062 0.0000661 -0.0000723 0.0004323 0.0000093 0.0001989 0.0001370 0.0001774 0.0000297 0.0001012 -0.0004774 -0.0001199 0.0001146 0.0006032 -0.0000556 0.0002496 -0.0000826 0.0004363
0.0000348 0.0001525 0.0001730 0.0000460 0.0000351 0.0001364 0.0000233 0.0007747 0.0000034 0.0008191 -0.0002041 -0.0002026 0.0000512 -0.0000978 -0.0007634 -0.0008310 -0.0000807 -0.0004365 -0.0000410 -0.0014595 0.0000488 0.0006475 -0.0001087 0.0000608 -0.0000713 0.0004323 -0.0000349 0.0002471 0.0001290 0.0001631 0.0000238 0.0000784 -0.0004784 -0.0001248 0.0001228 0.0006261 -0.0000538 0.0002684 -0.0000913 0.0004950
0.0000327 0.0001313 0.0001782 0.0000694 0.0000371 0.0001828 0.0000260 0.0008626 0.0001501 0.0007123 -0.0001988 -0.0001362 0.0000762 -0.0000964 -0.0007787 -0.0008293 -0.0001487 -0.0003514 -0.0000393 -0.0015139 0.0000515 0.0007915 -0.0001108 0.0000956 -0.0000703 0.0004828 -0.0000676 0.0003194 0.0001435 0.0001976 0.0000158 0.0000834 -0.0004725 -0.0001237 0.0001338 0.0006775 -0.0000569 0.0003425 -0.0000804 0.0005968
0.0000195 0.0001430 0.0001612 0.0001014 0.0000364 0.0002878 0.0000231 0.0010116 0.0002397 0.0006002 -0.0002019 0.0000087 0.0000697 -0.0000066 -0.0008090 -0.0008412 -0.0001770 -0.0002896 -0.0000245 -0.0015889 0.0000464 0.0010127 -0.0001209 0.0001902 -0.0000695 0.0005743 -0.0000099 0.0003221 0.0001299 0.0002815 0.0000025 0.0001506 -0.0004714 -0.0000927 0.0001332 0.0007746 -0.0000657 0.0004645 -0.0000963 0.0007700
0.0000054 0.0001927 0.0001688 0.0001255 0.0000262 0.0004396 0.0000116 0.0011938 0.0003268 0.0005405 -0.0002094 0.0001702 0.0000474 0.0001228 -0.0008489 -0.0008069 -0.0001440 -0.0002533 -0.0000152 -0.0015728 0.0000322 0.0012389 -0.0001295 0.0003000 -0.0000713 0.0006756 -0.0000257 0.0004401 0.0000936 0.0004073 -0.0000166 0.0002468 -0.0004859 -0.0000541 0.0001341 0.0008740 -0.0000708 0.0005948 -0.0001160 0.0009572
-0.0000088 0.0002678 0.0001645 0.0001576 0.0000212 0.0005419 0.0000065 0.0013127 0.0001211 0.0008093 -0.0002121 0.0002215 0.0000207 0.0002010 -0.0008854 -0.0007615 -0.0001556 -0.0002396 -0.0000070 -0.0015457 0.0000322 0.0011123 -0.0001324 0.0002955 -0.0000749 0.0006513 -0.0000716 0.0005008 0.0001422 0.0003793 -0.0000128 0.0002114 -0.0004855 -0.0000448 0.0001433 0.0007826 -0.0000673 0.0004765 -0.0001126 0.0007677
-0.0000144 0.0002073 0.0001454 0.0001440 0.0000286 0.0003385 0.0000162 0.0010756 -0.0000143 0.0008849 -0.0002055 0.0000101 0.0000293 0.0001023 -0.0008878 -0.0008168 -0.0001533 -0.0003212 0.0000228 -0.0015973 0.0000431 0.0007549 -0.0001265 0.0001489 -0.0000800 0.0004964 -0.0000359 0.0003339 0.0001440 0.0002920 0.0000026 0.0000618 -0.0005035 -0.0000696 0.0001421 0.0006192 -0.0000522 0.0002396 -0.0000930 0.0004433
0.0000066 0.0000606 0.0001497 0.0000796 0.0000387 0.0001041 0.0000271 0.0008034 0.0000807 0.0006916 -0.0001954 -0.0001737 0.0000571 -0.0000366 -0.0009059 -0.0008159 -0.0001652 -0.0003670 0.0000464 -0.0015931 0.0000464 0.0006678 -0.0001274 0.0000683 -0.0000832 0.0004269 -0.0000525 0.0002781 0.0000999 0.0002893 0.0000083 -0.0000033 -0.0005118 -0.0000847 0.0001416 0.0006050 -0.0000416 0.0001975 -0.0000755 0.0004220
0.0000094 0.0000386 0.0001349 0.0000635 0.0000466 0.0001141 0.0000314 0.0008049 0.0001119 0.0007777 -0.0001888 -0.0001611 0.0000540 -0.0000473 -0.0009159 -0.0008190 -0.0001707 -0.0003918 0.0000200 -0.0015462 0.0000489 0.0007063 -0.0001257 0.0000734 -0.0000839 0.0004257 -0.0000568 0.0002657 0.0001190 0.0002484 0.0000081 -0.0000071 -0.0005122 -0.0000859 0.0001586 0.0006303 -0.0000412 0.0002330 -0.0000769 0.0004988
0.0000030 0.0000715 0.0001248 0.0000756 0.0000483 0.0001825 0.0000288 0.0008795 0.0000787 0.0008002 -0.0001835 -0.0000980 0.0000466 -0.0000133 -0.0008886 -0.0008178 -0.0001111 -0.0004008 0.0000207 -0.0015236 0.0000448 0.0008327 -0.0001230 0.0001113 -0.0000817 0.0004689 -0.0000563 0.0002795 0.0001401 0.0002534 -0.0000044 0.0000391 -0.0005014 -0.0000865 0.0001657 0.0006880 -0.0000414 0.0003122 -0.0000808 0.0006268
0.0000043 0.0001200 0.0001389 0.0000837 0.0000450 0.0003115 0.0000259 0.0010195 0.0001261 0.0007155 -0.0001894 0.0000386 0.0000597 0.0000399 -0.0008915 -0.0008253 -0.0000912 -0.0003752 0.0000581 -0.0015684 0.0000362 0.0010281 -0.0001321 0.0002024 -0.0000830 0.0005540 -0.0000454 0.0003541 0.0001014 0.0003581 -0.0000178 0.0001242 -0.0005086 -0.0000494 0.0001555 0.0007771 -0.0000464 0.0004308 -0.0000772 0.0007733
0.0000036 0.0001846 0.0001474 0.0000997 0.0000428 0.0004476 0.0000213 0.0011671 0.0000002 0.0008737 -0.0001921 0.0001587 0.0000608 0.0001152 -0.0009178 -0.0008308 -0.0001220 -0.0003221 0.0000312 -0.0015723 0.0000392 0.0010519 -0.0001325 0.0002457 -0.0000871 0.0005906 -0.0000437 0.0003617 0.0000580 0.0004214 -0.0000183 0.0001277 -0.0005175 -0.0000248 0.0001303 0.0007548 -0.0000481 0.0003605 -0.0000815 0.0006552
0.0000094 0.0001347 0.0001399 0.0000837 0.0000507 0.0002879 0.0000261 0.0009745 -0.0000054 0.0008228 -0.0001818 -0.0000316 0.0000578 0.0000473 -0.0009297 -0.0008653 -0.0001089 -0.0004090 0.0000182 -0.0016348 0.0000449 0.0007559 -0.0001330 0.0001266 -0.0000852 0.0004618 -0.0000674 0.0002521 0.0000513 0.0003758 -0.0000057 0.0000133 -0.0005110 -0.0000618 0.0001453 0.0006144 -0.0000336 0.0001642 -0.0000682 0.0003881
0.0000123 0.0000257 0.0001254 0.0000278 0.0000629 0.0000474 0.0000332 0.0006869 0.0001598 0.0005641 -0.0001673 -0.0002734 0.0000684 -0.0001087 -0.0009345 -0.0008781 -0.0001232 -0.0004769 0.0000393 -0.0016676 0.0000537 0.0005400 -0.0001294 0.0000039 -0.0000830 0.0003332 -0.0000466 0.0001875 0.0000854 0.0002907 0.0000050 -0.0000958 -0.0005069 -0.0000881 0.0001601 0.0005543 -0.0000191 0.0001113 -0.0000544 0.0003351
0.0000200 -0.0000009 0.0001190 0.0000031 0.0000703 0.0000421 0.0000383 0.0006831 0.0000374 0.0006469 -0.0001569 -0.0002819 0.0000486 -0.0001045 -0.0009327 -0.0008866 -0.0001444 -0.0004399 0.0000476 -0.0016699 0.0000590 0.0005828 -0.0001260 -0.0000104 -0.0000828 0.0003297 -0.0000412 0.0002094 0.0001314 0.0002257 0.0000047 -0.0001260 -0.0005235 -0.0001036 0.0001725 0.0005620 -0.0000115 0.0001267 -0.0000517 0.0003903
0.0000190 0.0000154 0.0001248 0.0000028 0.0000707 0.0001024 0.0000415 0.0007506 0.0000566 0.0006870 -0.0001539 -0.0002114 0.0000354 -0.0000469 -0.0009256 -0.0009114 -0.0001398 -0.0004390 0.0000788 -0.0017341 0.0000606 0.0006806 -0.0001238 0.0000291 -0.0000803 0.0003541 0.0000096 0.0001782 0.0001365 0.0002400 -0.0000022 -0.0000906 -0.0005634 -0.0001240 0.0002022 0.0006132 -0.0000092 0.0001892 -0.0000572 0.0005284
0.0000276 0.0001200 0.0001071 -0.0000113 0.0000862 0.0002726 0.0000324 0.0008418 0.0000733 0.0006132 -0.0001353 -0.0000064 0.0000581 0.0000483 -0.0009026 -0.0008906 -0.0001285 -0.0003995 0.0000714 -0.0016566 0.0000526 0.0008048 -0.0001247 0.0001330 -0.0000870 0.0004259 0.0000189 0.0002406 0.0001439 0.0003119 -0.0000126 0.0000077 -0.0005137 -0.0000766 0.0001825 0.0007036 -0.0000102 0.0002903 -0.0000716 0.0006979
0.0000617 0.0003335 0.0000614 0.0000224 0.0001115 0.0005100 0.0000135 0.0009105 -0.0001191 0.0005771 -0.0001053 0.0002448 0.0000840 0.0001674 -0.0007922 -0.0008592 -0.0001133 -0.0003264 0.0000407 -0.0014456 0.0000346 0.0008037 -0.0001214 0.0002386 -0.0000929 0.0004858 -0.0000481 0.0003456 0.0001227 0.0003523 -0.0000083 0.0000697 -0.0004314 -0.0000137 0.0001395 0.0007025 -0.0000095 0.0002418 -0.0000615 0.0005932
0.0000949 0.0004226 0.0000402 0.0000080 0.0001311 0.0004045 0.0000002 0.0006580 -0.0001304 0.0004664 -0.0000847 0.0000591 0.0000794 0.0000903 -0.0007130 -0.0008060 -0.0000998 -0.0003671 0.0000301 -0.0012300 0.0000354 0.0004137 -0.0001030 0.0001125 -0.0000912 0.0003586 -0.0000278 0.0001875 0.0001183 0.0002656 0.0000109 -0.0000525 -0.0003914 -0.0000359 0.0001356 0.0005374 -0.0000034 0.0000466 -0.0000436 0.0002859
0.0001125 0.0003101 0.0000356 -0.0000665 0.0001388 0.0001060 0.0000098 0.0003155 -0.0002176 0.0004030 -0.0000800 -0.0003164 0.0000761 -0.0001030 -0.0007507 -0.0008528 -0.0000645 -0.0005284 0.0000139 -0.0012306 0.0000550 0.0000456 -0.0001041 -0.0000824 -0.0000850 0.0001815 0.0000099 0.0000057 0.0001426 0.0001214 0.0000327 -0.0002143 -0.0004013 -0.0000696 0.0001508 0.0004191 0.0000078 -0.0000563 -0.0000288 0.0001614
0.0001086 0.0002218 0.0000321 -0.0000992 0.0001361 0.0000443 0.0000247 0.0002894 -0.0002411 0.0003096 -0.0000788 -0.0003679 0.0000925 -0.0001964 -0.0007368 -0.0008720 -0.0000696 -0.0005367 0.0000053 -0.0012303 0.0000677 0.0000500 -0.0001043 -0.0001164 -0.0000778 0.0001438 -0.0000056 -0.0000186 0.0001588 0.0000277 0.0000490 -0.0002721 -0.0004132 -0.0000788 0.0001619 0.0004088 0.0000212 -0.0000700 -0.0000083 0.0001802
0.0001019 0.0002082 0.0000419 -0.0001187 0.0001356 0.0000833 0.0000340 0.0003499 -0.0000420 0.0002066 -0.0000704 -0.0003219 0.0000923 -0.0002036 -0.0007183 -0.0008601 -0.0000589 -0.0005489 -0.0000089 -0.0012612 0.0000685 0.0001821 -0.0000983 -0.0000985 -0.0000729 0.0001677 -0.0000183 0.0000120 0.0001783 0.0000170 0.0000490 -0.0002639 -0.0004180 -0.0001136 0.0001757 0.0004464 0.0000335 -0.0000301 -0.0000059 0.0002842
0.0000925 0.0002138 0.0000590 -0.0001213 0.0001328 0.0001735 0.0000355 0.0004733 0.0001265 0.0000894 -0.0000667 -0.0002142 0.0000882 -0.0001464 -0.0007650 -0.0008642 -0.0000424 -0.0005552 -0.0000177 -0.0013864 0.0000658 0.0003791 -0.0001063 -0.0000342 -0.0000703 0.0002278 -0.0000079 0.0000500 0.0001653 0.0001003 0.0000416 -0.0001983 -0.0004294 -0.0000965 0.0001797 0.0005301 0.0000355 0.0000691 -0.0000193 0.0004568
0.0000807 0.0002633 0.0000297 -0.0000712 0.0001243 0.0003095 0.0000309 0.0006457 0.0000278 0.0001849 -0.0000688 -0.0000745 0.0000867 -0.0000765 -0.0007926 -0.0008425 -0.0000694 -0.0004732 -0.0000346 -0.0013986 0.0000692 0.0005687 -0.0001090 0.0000502 -0.0000695 0.0003096 -0.0000018 0.0001034 0.0001525 0.0002043 0.0000374 -0.0001169 -0.0004173 -0.0000632 0.0001662 0.0006176 0.0000327 0.0001413 -0.0000237 0.0005811
0.0000744 0.0003071 0.0000154 -0.0000469 0.0001237 0.0003001 0.0000379 0.0006203 -0.0001321 0.0003974 -0.0000694 -0.0001649 0.0000855 -0.0000977 -0.0007752 -0.0008628 -0.0000774 -0.0005147 -0.0000181 -0.0014131 0.0000724 0.0003231 -0.0001075 -0.0000191 -0.0000725 0.0002315 -0.0000096 0.0000817 0.0001569 0.0001386 0.0000463 -0.0001846 -0.0004152 -0.0000722 0.0001668 0.0004933 0.0000392 -0.0000082 -0.0000221 0.0003643
0.0000825 0.0002081 0.0000301 -0.0001141 0.0001320 0.0000769 0.0000519 0.0003404 -0.0000745 0.0003070 -0.0000561 -0.0004405 0.0000919 -0.0002408 -0.0007290 -0.0008946 -0.0000817 -0.0006334 0.0000455 -0.0014074 0.0000836 -0.0001002 -0.0001002 -0.0002151 -0.0000725 0.0000343 -0.0000013 -0.0000866 0.0001651 -0.0000395 0.0000684 -0.0003716 -0.0004310 -0.0000797 0.0001779 0.0002812 0.0000559 -0.0002273 0.0000089 0.0000223
0.0000908 0.0000786 0.0000399 -0.0001879 0.0001389 -0.0000742 0.0000633 0.0001547 0.0000566 0.0001091 -0.0000399 -0.0005667 0.0001155 -0.0003802 -0.0007195 -0.0009383 -0.0000521 -0.0007197 0.0000484 -0.0013813 0.0000983 -0.0001325 -0.0000902 -0.0002933 -0.0000626 -0.0000390 -0.0000002 -0.0001605 0.0001659 -0.0000716 0.0000834 -0.0004488 -0.0004287 -0.0001143 0.0001767 0.0002692 0.0000732 -0.0002820 0.0000364 -0.0000224
0.0000949 0.0000520 0.0000533 -0.0002076 0.0001474 -0.0000676 0.0000752 0.0001472 0.0001074 -0.0000573 -0.0000260 -0.0005664 0.0001248 -0.0004333 -0.0007194 -0.0009531 -0.0000144 -0.0007384 0.0000467 -0.0013819 0.0001114 -0.0000648 -0.0000869 -0.0002937 -0.0000547 -0.0000499 0.0000178 -0.0001919 0.0001780 -0.0000567 0.0000898 -0.0004483 -0.0004105 -0.0001569 0.0001816 0.0003037 0.0000832 -0.0002535 0.0000425 0.0000688
0.0000931 0.0000847 0.0000634 -0.0002093 0.0001434 0.0000196 0.0000796 0.0002396 0.0001389 -0.0001161 -0.0000240 -0.0004850 0.0001147 -0.0003813 -0.0007365 -0.0009336 -0.0000446 -0.0006674 0.0000599 -0.0014252 0.0001155 0.0001001 -0.0000866 -0.0002501 -0.0000503 -0.0000097 0.0000129 -0.0001492 0.0001819 -0.0000295 0.0000870 -0.0004246 -0.0004333 -0.0001368 0.0001899 0.0003612 0.0000877 -0.0001725 0.0000470 0.0002043
0.0000844 0.0001247 0.0000832 -0.0002238 0.0001341 0.0001484 0.0000833 0.0004011 0.0001157 -0.0000158 -0.0000217 -0.0003524 0.0001189 -0.0002870 -0.0007974 -0.0009252 -0.0000315 -0.0006341 0.0000628 -0.0015397 0.0001090 0.0003134 -0.0000905 -0.0001708 -0.0000497 0.0000732 -0.0000104 -0.0000326 0.0001957 0.0000223 0.0000823 -0.0003469 -0.0004580 -0.0001056 0.0001936 0.0004526 0.0000903 -0.0000620 0.0000352 0.0003696
0.0000824 0.0002098 0.0000729 -0.0001973 0.0001358 0.0002889 0.0000828 0.0005256 -0.0000108 0.0001402 -0.0000040 -0.0002223 0.0001193 -0.0001933 -0.0007618 -0.0009312 -0.0000340 -0.0006014 0.0000497 -0.0014878 0.0001101 0.0002092 -0.0000765 -0.0001657 -0.0000507 0.0000680 0.0000172 -0.0000358 0.0002009 0.0000114 0.0000942 -0.0003349 -0.0004116 -0.0000969 0.0002050 0.0003780 0.0000976 -0.0001446 0.0000362 0.0002308
0.0001034 0.0002472 0.0000510 -0.0001703 0.0001504 0.0001727 0.0000799 0.0002583 0.0000607 0.0000620 0.0000260 -0.0003583 0.0001288 -0.0002620 -0.0006906 -0.0009529 -0.0000527 -0.0006595 0.0000314 -0.0013561 0.0001206 -0.0002231 -0.0000652 -0.0002888 -0.0000445 -0.0000854 0.0000024 -0.0001400 0.0001864 -0.0000852 0.0001112 -0.0004427 -0.0003644 -0.0001084 0.0002059 0.0001971 0.0001133 -0.0003476 0.0000565 -0.0000808
0.0001264 0.0002012 0.0000301 -0.0001893 0.0001678 -0.0000607 0.0000866 -0.0001194 0.0001882 -0.0002218 0.0000528 -0.0006075 0.0001420 -0.0004147 -0.0006650 -0.0009336 0.0000004 -0.0007745 0.0000175 -0.0012642 0.0001398 -0.0004753 -0.0000665 -0.0004044 -0.0000358 -0.0002168 0.0000187 -0.0002983 0.0001649 -0.0001600 0.0001281 -0.0005396 -0.0003281 -0.0001758 0.0001925 0.0001407 0.0001334 -0.0004095 0.0000794 -0.0001557
0.0001353 0.0001867 0.0000240 -0.0002169 0.0001728 -0.0000629 0.0000937 -0.0001461 0.0001707 -0.0002687 0.0000609 -0.0006399 0.0001628 -0.0004659 -0.0006398 -0.0009507 0.0000293 -0.0008185 0.0000161 -0.0012768 0.0001511 -0.0004545 -0.0000602 -0.0004300 -0.0000302 -0.0002360 0.0000101 -0.0002941 0.0001628 -0.0001972 0.0001468 -0.0005796 -0.0003299 -0.0001945 0.0002041 0.0001474 0.0001473 -0.0003893 0.0001025 -0.0001067
0.0001336 0.0001981 0.0000390 -0.0002270 0.0001706 0.0000160 0.0001005 -0.0000598 0.0000332 -0.0001710 0.0000668 -0.0005718 0.0001712 -0.0004616 -0.0006530 -0.0009278 0.0000116 -0.0008057 0.0000319 -0.0013038 0.0001505 -0.0003280 -0.0000523 -0.0004040 -0.0000284 -0.0002017 -0.0000083 -0.0002525 0.0001745 -0.0001891 0.0001503 -0.0005441 -0.0003813 -0.0001453 0.0002116 0.0002094 0.0001475 -0.0003094 0.0001049 0.0000227
0.0001217 0.0002417 0.0000412 -0.0002123 0.0001578 0.0001338 0.0001035 0.0000893 -0.0000855 -0.0001034 0.0000688 -0.0004371 0.0001530 -0.0003802 -0.0006587 -0.0008711 -0.0000241 -0.0007019 0.0000414 -0.0012554 0.0001473 -0.0001120 -0.0000491 -0.0003271 -0.0000201 -0.0001284 0.0000401 -0.0002609 0.0002075 -0.0001428 0.0001422 -0.0004501 -0.0003810 -0.0001238 0.0001953 0.0003135 0.0001453 -0.0001904 0.0000868 0.0001955
0.0001136 0.0002968 0.0000551 -0.0001955 0.0001427 0.0002736 0.0001046 0.0002768 -0.0000217 -0.0000679 0.0000620 -0.0002745 0.0001513 -0.0002801 -0.0006504 -0.0008932 -0.0000367 -0.0006483 0.0000453 -0.0013075 0.0001438 0.0000932 -0.0000555 -0.0002277 -0.0000118 -0.0000359 0.0000056 -0.0001347 0.0002320 -0.0001042 0.0001476 -0.0003626 -0.0003573 -0.0001095 0.0001874 0.0003512 0.0001448 -0.0001625 0.0000943 0.0002006
0.0001097 0.0002937 0.0000440 -0.0001729 0.0001430 0.0001899 0.0001148 0.0001720 0.0000900 -0.0001618 0.0000646 -0.0004002 0.0001678 -0.0003445 -0.0006524 -0.0008893 -0.0000067 -0.0007299 0.0000362 -0.0013006 0.0001569 -0.0001692 -0.0000530 -0.0003083 -0.0000131 -0.0001180 0.0000136 -0.0002028 0.0002106 -0.0001516 0.0001621 -0.0004338 -0.0003331 -0.0001274 0.0001851 0.0002255 0.0001524 -0.0002948 0.0001067 -0.0000322
0.0001063 0.0002070 0.0000387 -0.0001963 0.0001474 -0.0000289 0.0001279 -0.0000960 0.0001169 -0.0002526 0.0000819 -0.0006567 0.0001709 -0.0004846 -0.0006785 -0.0009123 0.0000048 -0.0008361 0.0000435 -0.0013379 0.0001784 -0.0005526 -0.0000391 -0.0004931 -0.0000091 -0.0002849 0.0000680 -0.0003862 0.0002095 -0.0002670 0.0001755 -0.0005606 -0.0003081 -0.0001601 0.0001921 0.0000963 0.0001685 -0.0003902 0.0001015 -0.0001543
0.0000980 0.0001537 0.0000679 -0.0002489 0.0001461 -0.0000571 0.0001361 -0.0001324 0.0001752 -0.0003035 0.0000951 -0.0006570 0.0001584 -0.0005234 -0.0006846 -0.0009081 0.0000314 -0.0008916 0.0000450 -0.0013602 0.0001876 -0.0005215 -0.0000409 -0.0005215 -0.0000047 -0.0003085 0.0000555 -0.0004158 0.0002542 -0.0003239 0.0001827 -0.0005845 -0.0003068 -0.0001695 0.0002038 0.0000957 0.0001804 -0.0003852 0.0001040 -0.0001062
0.0000938 0.0001630 0.0000421 -0.0002350 0.0001406 0.0000051 0.0001453 -0.0000713 0.0001888 -0.0002708 0.0000975 -0.0005676 0.0001620 -0.0005242 -0.0006652 -0.0008898 0.0000588 -0.0008916 0.0000172 -0.0012983 0.0001936 -0.0003664 -0.0000407 -0.0004708 0.0000024 -0.0002677 0.0000387 -0.0003530 0.0002327 -0.0002822 0.0001765 -0.0005286 -0.0003089 -0.0001679 0.0002237 0.0001428 0.0001837 -0.0003170 0.0001193 -0.0000142
0.0000848 0.0002099 0.0000183 -0.0002070 0.0001318 0.0001199 0.0001492 0.0000543 0.0002277 -0.0002487 0.0000961 -0.0004371 0.0001477 -0.0004615 -0.0006524 -0.0008891 0.0000382 -0.0008001 0.0000375 -0.0012853 0.0001957 -0.0001664 -0.0000425 -0.0003880 0.0000114 -0.0001912 -0.0000016 -0.0002384 0.0001935 -0.0002035 0.0001748 -0.0004346 -0.0003119 -0.0001573 0.0002273 0.0002426 0.0001794 -0.0001890 0.0001114 0.0001753
0.0000733 0.0002972 0.0000309 -0.0001899 0.0001237 0.0002835 0.0001465 0.0002277 0.0001157 -0.0001049 0.0000957 -0.0002755 0.0001345 -0.0003465 -0.0006616 -0.0008320 0.0000278 -0.0006804 0.0000329 -0.0012175 0.0001883 0.0000503 -0.0000475 -0.0002863 0.0000150 -0.0000860 0.0000091 -0.0001684 0.0001991 -0.0001104 0.0001693 -0.0003228 -0.0003284 -0.0001157 0.0001996 0.0003574 0.0001678 -0.0000766 0.0000987 0.0003200
0.0000761 0.0003549 0.0000450 -0.0001654 0.0001190 0.0003089 0.0001487 0.0002264 0.0000289 -0.0000174 0.0000982 -0.0003175 0.0001341 -0.0003216 -0.0006529 -0.0008171 0.0000032 -0.0006555 0.0000233 -0.0012196 0.0001895 -0.0001568 -0.0000362 -0.0003472 0.0000084 -0.0001212 0.0000349 -0.0002157 0.0001532 -0.0000822 0.0001692 -0.0003298 -0.0003192 -0.0000993 0.0002058 0.0002559 0.0001768 -0.0001649 0.0001103 0.0001306
0.0000757 0.0003018 0.0000421 -0.0001826 0.0001184 0.0001415 0.0001560 0.0000242 -0.0000290 0.0000104 0.0001078 -0.0004998 0.0001322 -0.0004045 -0.0006690 -0.0008494 0.0000241 -0.0007913 0.0000569 -0.0013308 0.0002068 -0.0005022 -0.0000327 -0.0004839 0.0000120 -0.0002550 0.0000253 -0.0003167 0.0001544 -0.0001845 0.0001840 -0.0004437 -0.0003033 -0.0001436 0.0002234 0.0000995 0.0001903 -0.0002953 0.0001209 -0.0000862
0.0000685 0.0002404 0.0000467 -0.0002116 0.0001170 0.0000476 0.0001630 -0.0000767 -0.0000199 0.0000017 0.0001086 -0.0005181 0.0001372 -0.0004483 -0.0006672 -0.0008877 0.0000629 -0.0008623 0.0000457 -0.0013188 0.0002143 -0.0004667 -0.0000318 -0.0005004 0.0000264 -0.0002731 0.0000561 -0.0003557 0.0002051 -0.0002485 0.0001925 -0.0004457 -0.0002898 -0.0001849 0.0002129 0.0001214 0.0001896 -0.0002670 0.0001342 -0.0000556
0.0000688 0.0002586 0.0000619 -0.0002275 0.0001182 0.0000997 0.0001682 -0.0000396 0.0001752 -0.0001306 0.0001123 -0.0004444 0.0001270 -0.0004176 -0.0005911 -0.0009482 0.0000248 -0.0007796 0.0000282 -0.0012787 0.0002113 -0.0003435 -0.0000252 -0.0004608 0.0000315 -0.0002339 0.0000733 -0.0003314 0.0002244 -0.0002457 0.0001847 -0.0003808 -0.0002897 -0.0001784 0.0002124 0.0001775 0.0001960 -0.0001952 0.0001394 0.0000575
0.0000707 0.0003167 0.0000437 -0.0001984 0.0001148 0.0002091 0.0001673 0.0000652 -0.0000274 0.0000188 0.0001180 -0.0003174 0.0001425 -0.0003630 -0.0006120 -0.0009543 -0.0000238 -0.0007102 0.0000276 -0.0013751 0.0002088 -0.0001636 -0.0000285 -0.0003762 0.0000324 -0.0001556 0.0000537 -0.0002713 0.0002244 -0.0001952 0.0001755 -0.0002879 -0.0003423 -0.0001420 0.0002086 0.0002744 0.0001985 -0.0000777 0.0001243 0.0002522
0.0000619 0.0003989 0.0000151 -0.0001376 0.0001067 0.0003575 0.0001616 0.0002357 -0.0000158 -0.0000423 0.0001170 -0.0001325 0.0001459 -0.0002539 -0.0006137 -0.0008918 -0.0000515 -0.0006043 0.0000407 -0.0013325 0.0002006 0.0000408 -0.0000364 -0.0002603 0.0000325 -0.0000447 0.0000292 -0.0001538 0.0001915 -0.0000866 0.0001767 -0.0001672 -0.0003586 -0.0000994 0.0001822 0.0003965 0.0001873 0.0000552 0.0001204 0.0004047
0.0000544 0.0004760 0.0000229 -0.0001302 0.0001036 0.0004049 0.0001625 0.0002790 0.0001147 -0.0001222 0.0001205 -0.0001467 0.0001226 -0.0001847 -0.0006139 -0.0008749 -0.0000122 -0.0006399 0.0000616 -0.0013282 0.0002045 -0.0001484 -0.0000235 -0.0003047 0.0000336 -0.0000820 0.0000377 -0.0001700 0.0001584 -0.0000555 0.0001851 -0.0001940 -0.0003517 -0.0001033 0.0001802 0.0003249 0.0001832 -0.0000235 0.0001354 0.0002131
0.0000518 0.0004040 0.0000540 -0.0001797 0.0000999 0.0002100 0.0001786 0.0000845 -0.0000092 0.0000063 0.0001119 -0.0003718 0.0001324 -0.0002832 -0.0006978 -0.0009288 0.0000164 -0.0007906 0.0000399 -0.0015295 0.0002253 -0.0004670 -0.0000147 -0.0004581 0.0000358 -0.0002160 0.0000467 -0.0002678 0.0001560 -0.0001198 0.0001952 -0.0003218 -0.0003822 -0.0001905 0.0002022 0.0001771 0.0001930 -0.0001767 0.0001454 -0.0000305
0.0000463 0.0002877 0.0000720 -0.0002277 0.0001031 0.0000687 0.0001898 -0.0000686 -0.0000161 -0.0000654 0.0001323 -0.0003748 0.0001580 -0.0003333 -0.0006732 -0.0009269 -0.0000012 -0.0008104 0.0000354 -0.0014901 0.0002219 -0.0005433 -0.0000183 -0.0004803 0.0000380 -0.0002535 0.0000374 -0.0002504 0.0002082 -0.0002490 0.0001997 -0.0003131 -0.0003573 -0.0002080 0.0002069 0.0001666 0.0001995 -0.0001553 0.0001514 0.0000123
0.0000599 0.0003688 0.0000600 -0.0001966 0.0001265 0.0002024 0.0001798 -0.0001274 0.0001040 -0.0003164 0.0001913 -0.0001296 0.0001793 -0.0002204 -0.0006083 -0.0008496 -0.0000190 -0.0007480 0.0000282 -0.0013304 0.0002026 -0.0005951 -0.0000050 -0.0004172 0.0000391 -0.0002244 0.0000465 -0.0002652 0.0002065 -0.0002652 0.0002088 -0.0002360 -0.0003100 -0.0001720 0.0002046 0.0002106 0.0001985 -0.0000677 0.0001460 0.0001521
0.0000719 0.0004821 0.0000203 -0.0001228 0.0001312 0.0003584 0.0001706 -0.0000823 0.0000680 -0.0003041 0.0002013 0.0000534 0.0001832 -0.0001273 -0.0005870 -0.0008482 -0.0000063 -0.0007127 -0.0000106 -0.0013107 0.0001966 -0.0004320 -0.0000023 -0.0003218 0.0000426 -0.0001385 0.0000600 -0.0002585 0.0001383 -0.0001208 0.0002024 -0.0001517 -0.0003342 -0.0001447 0.0001915 0.0003280 0.0001936 0.0000568 0.0001385 0.0003388
0.0000639 0.0005367 0.0000197 -0.0000911 0.0001120 0.0004722 0.0001648 0.0001482 -0.0000080 -0.0001180 0.0001709 0.0001781 0.0001716 -0.0000712 -0.0005627 -0.0008357 -0.0000012 -0.0006234 -0.0000022 -0.0012600 0.0001966 -0.0001221 -0.0000162 -0.0002070 0.0000443 -0.0000141 0.0000371 -0.0001552 0.0001428 -0.0000216 0.0001841 -0.0000366 -0.0003300 -0.0001203 0.0001724 0.0004573 0.0001855 0.0002010 0.0001332 0.0005160
0.0000556 0.0006125 0.0000272 -0.0000656 0.0000990 0.0006151 0.0001567 0.0003828 -0.0000510 0.0000749 0.0001621 0.0003341 0.0001568 0.0000533 -0.0005958 -0.0007959 -0.0000346 -0.0005204 -0.0000162 -0.0012719 0.0001918 -0.0000496 -0.0000191 -0.0001279 0.0000370 0.0000531 0.0000097 -0.0000728 0.0001692 0.0000334 0.0001775 0.0000266 -0.0003430 -0.0001027 0.0001705 0.0004303 0.0001816 0.0001666 0.0001334 0.0003872
0.0000552 0.0005933 0.0000213 -0.0000591 0.0000995 0.0004573 0.0001589 0.0001888 -0.0000576 -0.0000353 0.0001757 0.0001836 0.0001482 0.0000446 -0.0005889 -0.0008186 -0.0000138 -0.0006242 -0.0000033 -0.0012995 0.0001947 -0.0004123 -0.0000213 -0.0002196 0.0000307 -0.0000540 0.0000428 -0.0001809 0.0001492 -0.0000150 0.0001809 -0.0000392 -0.0003758 -0.0000928 0.0001857 0.0002785 0.0001855 0.0000060 0.0001467 0.0000981
0.0000638 0.0004951 0.0000292 -0.0000915 0.0001086 0.0001730 0.0001682 -0.0001589 0.0000715 -0.0003524 0.0001857 -0.0000726 0.0001554 -0.0000898 -0.0005601 -0.0008393 0.0000297 -0.0007749 0.0000181 -0.0013007 0.0002044 -0.0006883 -0.0000161 -0.0003644 0.0000297 -0.0001755 0.0000359 -0.0002641 0.0001547 -0.0001095 0.0001884 -0.0001102 -0.0003495 -0.0001191 0.0001884 0.0002371 0.0001851 -0.0000221 0.0001481 0.0000635
0.0000611 0.0004763 0.0000265 -0.0000965 0.0001085 0.0001669 0.0001754 -0.0001462 0.0000384 -0.0003042 0.0001754 -0.0000471 0.0001614 -0.0001081 -0.0005611 -0.0008602 0.0000461 -0.0008009 0.0000144 -0.0013785 0.0002068 -0.0006082 -0.0000089 -0.0003711 0.0000341 -0.0001701 0.0000056 -0.0002142 0.0002141 -0.0001529 0.0001919 -0.0001032 -0.0003712 -0.0001375 0.0001945 0.0002808 0.0001843 0.0000255 0.0001378 0.0001744
0.0000522 0.0004913 0.0000261 -0.0000981 0.0001043 0.0002450 0.0001778 -0.0000160 -0.0001073 -0.0001479 0.0001669 0.0000671 0.0001426 -0.0000338 -0.0005728 -0.0008180 0.0000005 -0.0006877 0.0000108 -0.0013614 0.0001997 -0.0004107 -0.0000187 -0.0002921 0.0000374 -0.0001057 0.0000223 -0.0001655 0.0002040 -0.0000717 0.0001747 -0.0000413 -0.0003642 -0.0001445 0.0001893 0.0003650 0.0001812 0.0001241 0.0001257 0.0003322
0.0000471 0.0005442 0.0000130 -0.0000762 0.0000952 0.0003852 0.0001735 0.0001699 -0.0000549 -0.0000527 0.0001652 0.0002368 0.0001493 0.0000525 -0.0005916 -0.0008078 -0.0000128 -0.0005879 -0.0000215 -0.0013916 0.0001922 -0.0001590 -0.0000161 -0.0001842 0.0000362 0.0000015 0.0000281 -0.0000673 0.0001770 0.0000456 0.0001602 0.0000519 -0.0003629 -0.0001289 0.0001816 0.0004957 0.0001728 0.0002699 0.0001068 0.0005335
0.0000397 0.0006382 0.0000119 -0.0000437 0.0000907 0.0005677 0.0001690 0.0003694 -0.0000573 0.0000127 0.0001570 0.0004522 0.0001476 0.0001878 -0.0005625 -0.0008169 -0.0000026 -0.0004814 -0.0000169 -0.0013735 0.0001790 0.0000762 -0.0000139 -0.0000513 0.0000316 0.0001290 0.0000405 0.0000373 0.0001630 0.0001408 0.0001550 0.0001701 -0.0003985 -0.0000677 0.0001813 0.0006103 0.0001625 0.0003925 0.0000976 0.0006986
0.0000420 0.0007173 0.0000100 -0.0000209 0.0000906 0.0006067 0.0001630 0.0003801 -0.0001483 0.0000526 0.0001510 0.0004310 0.0001210 0.0002656 -0.0005771 -0.0007925 -0.0000512 -0.0004421 -0.0000044 -0.0013493 0.0001674 -0.0001492 -0.0000242 -0.0000651 0.0000213 0.0000843 0.0000590 0.0000050 0.0001220 0.0001751 0.0001462 0.0001760 -0.0003577 -0.0000470 0.0001598 0.0005188 0.0001619 0.0002776 0.0001049 0.0004642
0.0000477 0.0006596 0.0000008 -0.0000119 0.0000966 0.0004023 0.0001613 0.0001084 -0.0000220 -0.0000373 0.0001610 0.0002059 0.0001247 0.0001855 -0.0005895 -0.0007630 -0.0000315 -0.0005531 -0.0000256 -0.0013322 0.0001753 -0.0005613 -0.0000245 -0.0002038 0.0000180 -0.0000578 0.0000106 -0.0000358 0.0000908 0.0001286 0.0001482 0.0000770 -0.0003298 -0.0000896 0.0001739 0.0003396 0.0001672 0.0001102 0.0001205 0.0001629
0.0000579 0.0005669 0.0000111 -0.0000542 0.0001107 0.0002929 0.0001594 -0.0000980 -0.0001802 -0.0000111 0.0001901 0.0002142 0.0001400 0.0001532 -0.0005565 -0.0007366 -0.0000166 -0.0005709 -0.0000512 -0.0011975 0.0001724 -0.0005987 -0.0000183 -0.0002050 0.0000202 -0.0000831 -0.0000241 -0.0000328 0.0000827 0.0001129 0.0001656 0.0000483 -0.0003070 -0.0000977 0.0001729 0.0003417 0.0001656 0.0001210 0.0001247 0.0002018
0.0000784 0.0006194 -0.0000020 -0.0000582 0.0001273 0.0003760 0.0001509 -0.0001174 -0.0002861 -0.0000240 0.0002014 0.0003377 0.0001355 0.0002132 -0.0005101 -0.0007223 -0.0000357 -0.0005143 -0.0000563 -0.0011030 0.0001633 -0.0005103 -0.0000079 -0.0001322 0.0000234 -0.0000473 -0.0000197 -0.0000335 0.0000883 0.0001378 0.0001687 0.0000983 -0.0003098 -0.0000737 0.0001580 0.0004216 0.0001617 0.0001869 0.0001204 0.0003447
0.0000740 0.0007073 -0.0000362 -0.0000283 0.0001299 0.0004865 0.0001420 0.0000016 -0.0001871 -0.0000085 0.0001730 0.0004474 0.0001122 0.0002951 -0.0004643 -0.0006874 -0.0000232 -0.0004430 -0.0000352 -0.0010210 0.0001569 -0.0002754 -0.0000150 -0.0000309 0.0000220 0.0000586 -0.0000683 0.0000745 0.0001045 0.0001809 0.0001454 0.0002028 -0.0003262 -0.0000365 0.0001690 0.0005146 0.0001511 0.0003071 0.0001161 0.0005224
0.0000646 0.0007741 -0.0000477 0.0000001 0.0001144 0.0006313 0.0001333 0.0002345 -0.0001575 0.0000712 0.0001528 0.0006091 0.0001061 0.0003915 -0.0004755 -0.0007005 -0.0000246 -0.0003573 -0.0000290 -0.0010509 0.0001432 0.0000237 -0.0000253 0.0000999 0.0000199 0.0001910 -0.0000827 0.0002159 0.0000766 0.0002561 0.0001265 0.0003256 -0.0003138 0.0000030 0.0001728 0.0006188 0.0001384 0.0004544 0.0000999 0.0007392
0.0000651 0.0008746 -0.0000383 0.0000355 0.0001054 0.0008068 0.0001233 0.0004455 -0.0001031 0.0000751 0.0001491 0.0008154 0.0000966 0.0005247 -0.0004035 -0.0006882 -0.0000321 -0.0002405 -0.0000582 -0.0009525 0.0001315 0.0001882 -0.0000262 0.0002369 0.0000158 0.0003056 -0.0000636 0.0002904 0.0000378 0.0003616 0.0001207 0.0004255 -0.0002994 0.0000374 0.0001490 0.0006524 0.0001270 0.0004508 0.0000849 0.0007189
0.0000691 0.0009070 -0.0000418 0.0000339 0.0001086 0.0006909 0.0001144 0.0002638 -0.0002667 0.0001613 0.0001425 0.0006594 0.0000805 0.0005002 -0.0003785 -0.0006918 -0.0000144 -0.0002938 -0.0001052 -0.0009014 0.0001331 -0.0001300 -0.0000275 0.0001639 0.0000069 0.0002146 -0.0000670 0.0002161 0.0000422 0.0003396 0.0001224 0.0003631 -0.0002766 0.0000412 0.0001303 0.0005347 0.0001247 0.0002909 0.0000947 0.0004320
0.0000752 0.0008008 -0.0000584 0.0000196 0.0001104 0.0004116 0.0001172 -0.0000468 -0.0003273 0.0001207 0.0001328 0.0003560 0.0000822 0.0003679 -0.0004285 -0.0006890 -0.0000410 -0.0003872 -0.0000737 -0.0009614 0.0001402 -0.0004529 -0.0000270 0.0000004 0.0000066 0.0000764 -0.0000949 0.0001383 0.0000608 0.0002364 0.0001158 0.0002658 -0.0002859 0.0000035 0.0001209 0.0004604 0.0001305 0.0002294 0.0001084 0.0003267
0.0000691 0.0007304 -0.0000403 -0.0000230 0.0001041 0.0003911 0.0001236 -0.0000078 -0.0001340 -0.0000355 0.0001181 0.0003777 0.0000755 0.0003629 -0.0004286 -0.0006813 -0.0000536 -0.0003562 -0.0000311 -0.0009531 0.0001375 -0.0003421 -0.0000339 0.0000119 0.0000091 0.0000985 -0.0000683 0.0000829 0.0000631 0.0002350 0.0000997 0.0002754 -0.0002950 0.0000063 0.0001116 0.0004909 0.0001275 0.0002646 0.0001029 0.0003806
0.0000685 0.0007321 0.0000004 -0.0000591 0.0000958 0.0004623 0.0001247 0.0001167 -0.0000513 -0.0000498 0.0001057 0.0004728 0.0000751 0.0003995 -0.0004639 -0.0007055 -0.0000694 -0.0002986 -0.0000579 -0.0009938 0.0001275 -0.0001228 -0.0000443 0.0000911 0.0000043 0.0001702 -0.0000705 0.0001321 0.0000395 0.0003105 0.0000944 0.0003225 -0.0003137 0.0000189 0.0001175 0.0005741 0.0001187 0.0003524 0.0001011 0.0005201
0.0000607 0.0007883 -0.0000119 -0.0000218 0.0000860 0.0005974 0.0001181 0.0002907 -0.0001774 0.0000802 0.0001010 0.0006307 0.0000693 0.0004802 -0.0004342 -0.0006611 -0.0001189 -0.0001714 -0.0000789 -0.0008784 0.0001144 0.0001383 -0.0000469 0.0002004 0.0000005 0.0002844 -0.0001158 0.0002676 0.0000099 0.0004016 0.0000879 0.0004149 -0.0002974 0.0000257 0.0001209 0.0006711 0.0001107 0.0004807 0.0000936 0.0007287
0.0000426 0.0008878 -0.0000265 0.0000129 0.0000768 0.0007793 0.0001121 0.0005063 -0.0002241 0.0002306 0.0000849 0.0008195 0.0000375 0.0005928 -0.0004404 -0.0006809 -0.0001094 -0.0001079 -0.0000888 -0.0009389 0.0000995 0.0004316 -0.0000513 0.0003227 -0.0000028 0.0004082 -0.0000991 0.0003788 -0.0000052 0.0005037 0.0000709 0.0005254 -0.0003335 0.0000547 0.0001110 0.0007912 0.0000937 0.0005974 0.0000763 0.0008885
0.0000245 0.0009301 -0.0000279 0.0000179 0.0000675 0.0007753 0.0001132 0.0005648 -0.0000712 0.0002236 0.0000564 0.0007217 0.0000314 0.0005836 -0.0004972 -0.0006846 -0.0000731 -0.0001704 -0.0000990 -0.0010778 0.0001011 0.0002782 -0.0000590 0.0002672 -0.0000127 0.0003632 -0.0001110 0.0003874 0.0000290 0.0004724 0.0000612 0.0004685 -0.0004128 0.0000554 0.0001127 0.0007202 0.0000897 0.0004907 0.0000735 0.0007054
0.0000225 0.0008039 -0.0000289 -0.0000219 0.0000560 0.0005436 0.0001201 0.0003818 -0.0001582 0.0002762 0.0000485 0.0004758 0.0000287 0.0004845 -0.0005213 -0.0007066 -0.0000806 -0.0002684 -0.0000743 -0.0011406 0.0001153 -0.0000628 -0.0000611 0.0001355 -0.0000165 0.0002190 -0.0001155 0.0003008 0.0000429 0.0003686 0.0000653 0.0003518 -0.0003847 0.0000399 0.0001298 0.0005497 0.0000930 0.0003320 0.0000931 0.0004532
0.0000320 0.0007093 -0.0000235 -0.0000537 0.0000580 0.0004441 0.0001255 0.0002606 -0.0001466 0.0001797 0.0000584 0.0004596 0.0000132 0.0004563 -0.0005183 -0.0007376 -0.0001018 -0.0002503 -0.0000537 -0.0011217 0.0001087 -0.0000205 -0.0000617 0.0001583 -0.0000160 0.0002168 -0.0000865 0.0002774 0.0000474 0.0003219 0.0000722 0.0003592 -0.0003729 0.0000183 0.0001207 0.0005678 0.0000921 0.0003516 0.0001038 0.0004706
0.0000353 0.0007468 -0.0000327 -0.0000506 0.0000675 0.0005328 0.0001189 0.0002760 -0.0001211 0.0000500 0.0000634 0.0005441 0.0000256 0.0004664 -0.0004795 -0.0007024 -0.0000849 -0.0002004 -0.0000502 -0.0009772 0.0000907 0.0000890 -0.0000601 0.0002125 -0.0000218 0.0002716 -0.0001152 0.0002998 0.0000736 0.0003076 0.0000629 0.0004081 -0.0003607 0.0000257 0.0001121 0.0006124 0.0000919 0.0004130 0.0000970 0.0005696
0.0000414 0.0007971 -0.0000499 -0.0000214 0.0000610 0.0006633 0.0001079 0.0003723 -0.0002216 0.0001549 0.0000503 0.0006791 0.0000409 0.0005090 -0.0004910 -0.0007096 -0.0001148 -0.0001321 -0.0000709 -0.0009943 0.0000752 0.0003038 -0.0000696 0.0003030 -0.0000238 0.0003605 -0.0001339 0.0003576 0.0000509 0.0003868 0.0000471 0.0004964 -0.0003512 0.0000718 0.0001150 0.0006885 0.0000802 0.0005310 0.0000736 0.0007792
0.0000336 0.0008736 -0.0000441 0.0000098 0.0000457 0.0008221 0.0000997 0.0005841 -0.0002157 0.0002536 0.0000309 0.0008496 0.0000264 0.0006020 -0.0004490 -0.0007018 -0.0001276 -0.0000245 -0.0000803 -0.0009537 0.0000604 0.0005883 -0.0000852 0.0004221 -0.0000211 0.0004934 -0.0001431 0.0004725 -0.0000060 0.0005114 0.0000380 0.0005985 -0.0003789 0.0000970 0.0001085 0.0008018 0.0000669 0.0006574 0.0000562 0.0009627
0.0000179 0.0009275 -0.0000308 0.0000147 0.0000417 0.0008300 0.0000970 0.0006407 -0.0000413 0.0001964 0.0000175 0.0007907 -0.0000018 0.0006231 -0.0004560 -0.0007049 -0.0001184 -0.0000567 -0.0000801 -0.0009496 0.0000561 0.0003752 -0.0000864 0.0003664 -0.0000272 0.0004465 -0.0001881 0.0004830 0.0000104 0.0004650 0.0000484 0.0005245 -0.0003691 0.0000832 0.0001035 0.0006998 0.0000637 0.0005297 0.0000796 0.0007048
0.0000136 0.0008413 -0.0000239 -0.0000182 0.0000482 0.0006214 0.0000979 0.0003571 -0.0000004 0.0000952 0.0000242 0.0005493 0.0000053 0.0005052 -0.0004965 -0.0007158 -0.0001326 -0.0001229 -0.0000945 -0.0010058 0.0000594 -0.0000585 -0.0000825 0.0002199 -0.0000319 0.0002875 -0.0001818 0.0003384 0.0000315 0.0003514 0.0000616 0.0003712 -0.0003651 0.0000358 0.0001084 0.0005160 0.0000706 0.0003307 0.0000987 0.0003810
0.0000224 0.0007169 -0.0000311 -0.0000606 0.0000546 0.0004805 0.0001001 0.0001284 -0.0001423 0.0000649 0.0000348 0.0004540 0.0000208 0.0004239 -0.0004734 -0.0006962 -0.0001221 -0.0001592 -0.0000553 -0.0009801 0.0000516 -0.0000950 -0.0000824 0.0001869 -0.0000332 0.0002495 -0.0001305 0.0002326 -0.0000118 0.0003462 0.0000558 0.0003353 -0.0003595 0.0000177 0.0001049 0.0005102 0.0000739 0.0003183 0.0000945 0.0003994
0.0000274 0.0007118 -0.0000489 -0.0000528 0.0000604 0.0005036 0.0001007 0.0001392 -0.0002573 0.0001089 0.0000301 0.0004881 -0.0000006 0.0004374 -0.0004888 -0.0006965 -0.0001068 -0.0002002 -0.0000799 -0.0009849 0.0000416 0.0000110 -0.0000939 0.0002168 -0.0000380 0.0002745 -0.0001438 0.0002341 0.0000343 0.0002934 0.0000466 0.0003478 -0.0003651 0.0000095 0.0001027 0.0005644 0.0000711 0.0003637 0.0000943 0.0004971
0.0000161 0.0007525 -0.0000564 -0.0000359 0.0000533 0.0005952 0.0000993 0.0002505 -0.0002491 0.0000925 0.0000192 0.0005865 -0.0000013 0.0004597 -0.0004772 -0.0007058 -0.0001167 -0.0001298 -0.0000866 -0.0009579 0.0000333 0.0002133 -0.0000987 0.0002769 -0.0000371 0.0003453 -0.0001399 0.0002689 0.0000742 0.0003092 0.0000367 0.0003998 -0.0003606 0.0000018 0.0000939 0.0006520 0.0000659 0.0004650 0.0000924 0.0006596
0.0000131 0.0008040 -0.0000791 -0.0000090 0.0000362 0.0007464 0.0000964 0.0004621 -0.0001852 0.0001363 0.0000052 0.0007391 -0.0000088 0.0005292 -0.0004928 -0.0006996 -0.0001299 -0.0000580 -0.0001001 -0.0009519 0.0000252 0.0004935 -0.0000990 0.0003784 -0.0000375 0.0004557 -0.0001176 0.0003561 0.0000285 0.0004313 0.0000142 0.0004951 -0.0003407 0.0000428 0.0000846 0.0007498 0.0000577 0.0005974 0.0000758 0.0008529
0.0000075 0.0008837 -0.0000673 0.0000158 0.0000389 0.0009548 0.0000817 0.0006200 -0.0001900 0.0002426 -0.0000052 0.0008563 -0.0000390 0.0006189 -0.0004967 -0.0006744 -0.0001444 -0.0000129 -0.0001221 -0.0009113 0.0000196 0.0004651 -0.0001050 0.0004139 -0.0000434 0.0004802 -0.0001462 0.0003970 -0.0000011 0.0004708 0.0000068 0.0004993 -0.0003280 0.0000588 0.0000803 0.0006950 0.0000545 0.0005121 0.0000748 0.0006863
0.0000019 0.0008337 -0.0000535 -0.0000183 0.0000561 0.0007956 0.0000704 0.0003242 -0.0002011 0.0002160 0.0000028 0.0006283 -0.0000175 0.0005000 -0.0004846 -0.0006840 -0.0001559 -0.0000775 -0.0000702 -0.0009308 0.0000182 0.0000657 -0.0001058 0.0002614 -0.0000482 0.0003274 -0.0001411 0.0002750 0.0000046 0.0003890 0.0000268 0.0003413 -0.0003123 0.0000267 0.0000921 0.0005113 0.0000600 0.0002907 0.0000899 0.0003241
0.0000103 0.0006841 -0.0000634 -0.0000716 0.0000610 0.0004453 0.0000817 -0.0000634 -0.0004126 0.0002600 0.0000113 0.0003267 0.0000112 0.0003049 -0.0004862 -0.0007259 -0.0001604 -0.0001800 -0.0000859 -0.0009538 0.0000220 -0.0001602 -0.0001131 0.0001345 -0.0000499 0.0002043 -0.0001608 0.0002041 0.0000151 0.0002875 0.0000363 0.0002251 -0.0003225 -0.0000129 0.0001218 0.0004298 0.0000650 0.0002362 0.0000853 0.0002924
0.0000124 0.0006362 -0.0000426 -0.0001199 0.0000546 0.0004066 0.0000964 -0.0000643 -0.0003818 0.0001741 0.0000100 0.0003140 0.0000012 0.0002715 -0.0004604 -0.0007175 -0.0001593 -0.0001897 -0.0001063 -0.0008960 0.0000215 -0.0001317 -0.0001231 0.0001295 -0.0000526 0.0001932 -0.0001646 0.0001607 0.0000136 0.0002548 0.0000318 0.0001937 -0.0003326 -0.0000157 0.0001289 0.0004383 0.0000677 0.0002495 0.0000941 0.0003501
0.0000146 0.0006455 -0.0000418 -0.0001255 0.0000489 0.0004749 0.0000978 0.0000389 -0.0003645 0.0001550 0.0000079 0.0003828 -0.0000044 0.0002866 -0.0004824 -0.0007071 -0.0000988 -0.0002457 -0.0001040 -0.0009489 0.0000122 0.0000210 -0.0001254 0.0001690 -0.0000554 0.0002324 -0.0001920 0.0002099 0.0000284 0.0002616 0.0000200 0.0002234 -0.0003360 -0.0000018 0.0001266 0.0005075 0.0000674 0.0003108 0.0001050 0.0004669
0.0000254 0.0007271 -0.0000496 -0.0000954 0.0000653 0.0006545 0.0000866 0.0001472 -0.0002912 0.0000501 0.0000371 0.0005911 -0.0000005 0.0003706 -0.0004230 -0.0006572 -0.0001357 -0.0001966 -0.0000915 -0.0008383 0.0000080 0.0001861 -0.0001198 0.0002673 -0.0000552 0.0003097 -0.0001851 0.0003164 0.0000370 0.0003138 0.0000066 0.0002940 -0.0003172 0.0000008 0.0001188 0.0006148 0.0000667 0.0004349 0.0001114 0.0006923
0.0000128 0.0008530 -0.0001053 -0.0000066 0.0001015 0.0009230 0.0000761 0.0002892 -0.0001683 0.0000127 0.0000806 0.0009029 0.0000034 0.0004838 -0.0002731 -0.0004914 -0.0002536 -0.0002216 -0.0001712 -0.0007232 0.0000144 0.0003562 -0.0001180 0.0004078 -0.0000555 0.0004050 -0.0001301 0.0004149 0.0000339 0.0004788 -0.0000018 0.0003855 -0.0002653 0.0001016 0.0001067 0.0006954 0.0000710 0.0004828 0.0001366 0.0007977
-0.0000032 0.0008830 -0.0001514 0.0000800 0.0001298 0.0009036 0.0000725 0.0001743 -0.0002948 0.0001276 0.0000968 0.0008500 0.0000166 0.0004337 -0.0001263 -0.0002065 -0.0002901 -0.0004968 -0.0003558 -0.0007093 0.0000302 0.0001051 -0.0001232 0.0003381 -0.0000477 0.0003638 -0.0001137 0.0003976 0.0000518 0.0005601 0.0000072 0.0003831 -0.0001729 0.0001562 0.0001228 0.0005872 0.0000962 0.0004008 0.0001922 0.0006860
-0.0000078 0.0007276 -0.0001565 0.0000720 0.0001395 0.0006429 0.0000781 -0.0001038 -0.0001843 0.0000441 0.0001168 0.0005850 0.0000133 0.0002876 0.0000266 0.0001015 -0.0003115 -0.0007154 -0.0004200 -0.0005420 0.0000703 -0.0002466 -0.0001290 0.0001462 -0.0000250 0.0002365 -0.0000627 0.0003209 0.0000878 0.0005401 0.0000274 0.0002641 -0.0001040 0.0000959 0.0001433 0.0004310 0.0001303 0.0003674 0.0002636 0.0006488
-0.0000373 0.0005270 -0.0001869 0.0001095 0.0001365 0.0005272 0.0000957 -0.0001177 -0.0000902 -0.0000123 0.0001403 0.0005838 0.0000016 0.0002143 0.0001216 0.0003882 -0.0003018 -0.0008242 -0.0004218 -0.0003600 0.0001079 -0.0001179 -0.0001440 0.0001275 -0.0000088 0.0002311 -0.0000274 0.0003873 0.0000993 0.0005790 0.0000294 0.0002207 -0.0001450 0.0000526 0.0001395 0.0004356 0.0001544 0.0004140 0.0003124 0.0007840
-0.0000764 0.0004176 -0.0002041 0.0001551 0.0001278 0.0005208 0.0001053 -0.0000205 -0.0000335 -0.0000355 0.0001516 0.0006781 0.0000103 0.0001816 0.0001840 0.0005834 -0.0003131 -0.0008479 -0.0003972 -0.0002750 0.0001199 0.0000920 -0.0001552 0.0001664 -0.0000023 0.0002720 -0.0000211 0.0004849 0.0001330 0.0005804 0.0000207 0.0002611 -0.0001926 0.0000375 0.0001253 0.0005118 0.0001676 0.0004937 0.0003285 0.0009728
-0.0000967 0.0003875 -0.0002203 0.0001767 0.0001167 0.0005989 0.0001061 0.0001332 -0.0000315 0.0000659 0.0001460 0.0008036 0.0000041 0.0002125 0.0002333 0.0006581 -0.0003931 -0.0007267 -0.0003591 -0.0002567 0.0001210 0.0003722 -0.0001554 0.0002482 0.0000050 0.0003492 -0.0000314 0.0005966 0.0001562 0.0006621 0.0000120 0.0003571 -0.0001753 0.0000655 0.0001236 0.0005875 0.0001614 0.0006390 0.0003242 0.0011998
-0.0001083 0.0004149 -0.0002329 0.0002275 0.0001117 0.0007291 0.0001078 0.0003327 -0.0002022 0.0003122 0.0001466 0.0009692 0.0000204 0.0002894 0.0002960 0.0007800 -0.0003797 -0.0006528 -0.0003807 -0.0000648 0.0001239 0.0006571 -0.0001550 0.0003581 0.0000075 0.0004718 -0.0000479 0.0007430 0.0001701 0.0007588 0.0000126 0.0004728 -0.0001552 0.0001019 0.0001326 0.0006517 0.0001550 0.0008046 0.0003356 0.0013987
-0.0001210 0.0004670 -0.0002263 0.0002501 0.0001028 0.0008315 0.0001032 0.0005083 -0.0002001 0.0003612 0.0001506 0.0010488 0.0000235 0.0003598 0.0003498 0.0008526 -0.0003646 -0.0006383 -0.0003374 0.0001200 0.0001323 0.0005745 -0.0001555 0.0003637 0.0000062 0.0004845 -0.0000114 0.0007504 0.0001559 0.0007568 0.0000197 0.0004760 -0.0001113 0.0001189 0.0001335 0.0005741 0.0001577 0.0007122 0.0003611 0.0012305
-0.0001205 0.0003834 -0.0002371 0.0002272 0.0000978 0.0006255 0.0001069 0.0002879 -0.0002627 0.0004092 0.0001524 0.0008348 0.0000114 0.0002888 0.0003718 0.0007571 -0.0004254 -0.0006367 -0.0003080 0.0000731 0.0001440 0.0002427 -0.0001587 0.0002352 0.0000079 0.0003511 0.0000138 0.0006269 0.0001532 0.0006612 0.0000299 0.0003785 -0.0001088 0.0000337 0.0001449 0.0004284 0.0001693 0.0005114 0.0003777 0.0009571
-0.0001217 0.0002257 -0.0002469 0.0001606 0.0001003 0.0003507 0.0001256 0.0000023 -0.0003942 0.0004546 0.0001605 0.0006038 0.0000286 0.0001322 0.0003285 0.0007161 -0.0004170 -0.0007625 -0.0003258 -0.0000644 0.0001568 0.0001855 -0.0001582 0.0001418 0.0000179 0.0002825 -0.0000031 0.0005826 0.0002215 0.0005490 0.0000413 0.0003132 -0.0002202 -0.0000441 0.0001619 0.0004260 0.0001901 0.0005071 0.0003777 0.0009935
-0.0001397 0.0001559 -0.0002295 0.0000994 0.0001084 0.0003617 0.0001436 0.0000743 -0.0001370 0.0001167 0.0001641 0.0006341 0.0000349 0.0001163 0.0002397 0.0005979 -0.0004123 -0.0008988 -0.0003141 -0.0003975 0.0001651 0.0003016 -0.0001540 0.0001507 0.0000287 0.0002974 0.0000221 0.0005527 0.0002368 0.0005343 0.0000399 0.0003127 -0.0002692 -0.0000713 0.0001725 0.0004655 0.0002006 0.0005687 0.0003876 0.0011038
