-0.0000000 -0.0000000 -0.0000000 -0.0000000 -0.0000000 -0.0000000 -0.0000000 -0.0000000 -0.0000000 -0.0000000 -0.0000000 -0.0000000 -0.0000000 -0.0000000 -0.0000000 -0.0000000 -0.0000000 -0.0000000 -0.0000000 -0.0000000 -0.0000000 -0.0000000 -0.0000000 -0.0000000 -0.0000000 -0.0000000 -0.0000000 -0.0000000 -0.0000000 -0.0000000 -0.0000000 -0.0000000 -0.0000000 -0.0000000 -0.0000000 -0.0000000 -0.0000000 -0.0000000 -0.0000000 -0.0000000 -0.0000000 -0.0000000 -0.0000000 -0.0000000 -0.0000000 -0.0000000 -0.0000000 -0.0000000 -0.0000000 -0.0000000 -0.0000000 -0.0000000 -0.0000000 -0.0000000 -0.0000000 -0.0000000 -0.0000000 -0.0000000 -0.0000000 -0.0000000 -0.0000000 -0.0000000 -0.0000000 -0.0000000 -0.0000000 -0.0000000 -0.0000000 -0.0000000 -0.0000000 -0.0000000 -0.0000000 -0.0000000 -0.0000000 -0.0000000 -0.0000000 -0.0000000 -0.0000000 -0.0000000 -0.0000000 -0.0000000 -0.0000000 -0.0000000 -0.0000000 -0.0000000 -0.0000000 -0.0000000 -0.0000000 -0.0000000 -0.0000000 -0.0000000 -0.0000000 -0.0000000 -0.0000000 -0.0000000 -0.0000000 -0.0000000 -0.0000000 -0.0000000 -0.0000000 -0.0000000 -0.0000000 -0.0000000 -0.0000000 -0.0000000 -0.0000000 -0.0000000 -0.0000000 -0.0000000 -0.0000000 -0.0000000 -0.0000000 -0.0000000 -0.0000000 -0.0000000 -0.0000000 -0.0000000 -0.0000000 -0.0000000 -0.0000000 -0.0000000 -0.0000000 -0.0000000 -0.0000000 -0.0000000 -0.0000000 -0.0000000 -0.0000000 -0.0000000 -0.0000000 -0.0000000 -0.0000000 -0.0000000 -0.0000000 -0.0000000 -0.0000000 -0.0000000 -0.0000000 -0.0000000 -0.0000000 -0.0000000 -0.0000000 -0.0000000 -0.0000000 -0.0000000 -0.0000000 -0.0000000 -0.0000000 -0.0000000 -0.0000000 -0.0000000 -0.0000000 -0.0000000 -0.0000000 -0.0000000 -0.0000000 -0.0000000 -0.0000000 -0.0000000 -0.0000000 -0.0000000 -0.0000000 -0.0000000 -0.0000000 -0.0000000 -0.0000000 -0.0000000 -0.0000000 -0.0000000 -0.0000000 -0.0000000 -0.0000000 -0.0000000 -0.0000000 -0.0000000 -0.0000000 -0.0000000 -0.0000000 -0.0000000 -0.0000000 -0.0000000 -0.0000000 -0.0000000 -0.0000000 -0.0000000 -0.0000000 -0.0000000 -0.0000000 -0.0000000 -0.0000000 -0.0000000 -0.0000000 -0.0000000 -0.0000000 -0.0000000 -0.0000000 -0.0000000 -0.0000000 -0.0000000 -0.0000000 -0.0000000 -0.0000000 -0.0000000 -0.0000000 -0.0000000 -0.0000000 -0.0000000 -0.0000000 -0.0000000 -0.0000000 -0.0000000 -0.0000000 -0.0000000 -0.0000000 -0.0000000 -0.0000000 -0.0000000
-0.0000000 -0.0000000 -0.0000000 -0.0000000 -0.0000000 -0.0000000 -0.0000000 -0.0000000 -0.0000000 -0.0000000 -0.0000000 -0.0000000 -0.0000000 -0.0000000 -0.0000000 -0.0000000 -0.0000000 -0.0000000 -0.0000000 -0.0000000 -0.0000000 -0.0000000 -0.0000000 -0.0000000 -0.0000000 -0.0000000 -0.0000000 -0.0000000 -0.0000000 -0.0000000 -0.0000000 -0.0000000 -0.0000000 -0.0000000 -0.0000000 -0.0000000 -0.0000000 -0.0000000 -0.0000000 -0.0000000 -0.0000000 -0.0000000 -0.0000000 -0.0000000 -0.0000000 -0.0000000 -0.0000000 -0.0000000 -0.0000000 -0.0000000 -0.0000000 -0.0000000 -0.0000000 -0.0000000 -0.0000000 -0.0000000 -0.0000000 -0.0000000 -0.0000000 -0.0000000 -0.0000000 -0.0000000 -0.0000000 -0.0000000 -0.0000000 -0.0000000 -0.0000000 -0.0000000 -0.0000000 -0.0000000 -0.0000000 -0.0000000 -0.0000000 -0.0000000 -0.0000000 -0.0000000 -0.0000000 -0.0000000 -0.0000000 -0.0000000 -0.0000000 -0.0000000 -0.0000000 -0.0000000 -0.0000000 -0.0000000 -0.0000000 -0.0000000 -0.0000000 -0.0000000 -0.0000000 -0.0000000 -0.0000000 -0.0000000 -0.0000000 -0.0000000 -0.0000000 -0.0000000 -0.0000000 -0.0000000 -0.0000000 -0.0000000 -0.0000000 -0.0000000 -0.0000000 -0.0000000 -0.0000000 -0.0000000 -0.0000000 -0.0000000 -0.0000000 -0.0000000 -0.0000000 -0.0000000 -0.0000000 -0.0000000 -0.0000000 -0.0000000 -0.0000000 -0.0000000 -0.0000000 -0.0000000 -0.0000000 -0.0000000 -0.0000000 -0.0000000 -0.0000000 -0.0000000 -0.0000000 -0.0000000 -0.0000000 -0.0000000 -0.0000000 -0.0000000 -0.0000000 -0.0000000 -0.0000000 -0.0000000 -0.0000000 -0.0000000 -0.0000000 -0.0000000 -0.0000000 -0.0000000 -0.0000000 -0.0000000 -0.0000000 -0.0000000 -0.0000000 -0.0000000 -0.0000000 -0.0000000 -0.0000000 -0.0000000 -0.0000000 -0.0000000 -0.0000000 -0.0000000 -0.0000000 -0.0000000 -0.0000000 -0.0000000 -0.0000000 -0.0000000 -0.0000000 -0.0000000 -0.0000000 -0.0000000 -0.0000000 -0.0000000 -0.0000000 -0.0000000 -0.0000000 -0.0000000 -0.0000000 -0.0000000 -0.0000000 -0.0000000 -0.0000000 -0.0000000 -0.0000000 -0.0000000 -0.0000000 -0.0000000 -0.0000000 -0.0000000 -0.0000000 -0.0000000 -0.0000000 -0.0000000 -0.0000000 -0.0000000 -0.0000000 -0.0000000 -0.0000000 -0.0000000 -0.0000000 -0.0000000 -0.0000000 -0.0000000 -0.0000000 -0.0000000 -0.0000000 -0.0000000 -0.0000000 -0.0000000 -0.0000000 -0.0000000 -0.0000000 -0.0000000 -0.0000000 -0.0000000 -0.0000000 -0.0000000 -0.0000000 -0.0000000
-0.0001067 -0.0000438 -0.0001411 0.0000335 -0.0001914 0.0001369 0.0000003 -0.0000981 0.0000071 -0.0000524 0.0000022 -0.0000575 0.0000119 -0.0000278 -0.0000093 -0.0000650 -0.0000017 0.0000139 0.0000006 0.0000621 -0.0000644 0.0000788 -0.0000076 0.0000597 -0.0000154 0.0001100 -0.0000062 -0.0000184 -0.0000031 0.0000502 0.0000037 0.0000561 0.0000014 0.0001230 0.0000041 0.0000434 -0.0000142 -0.0000637 -0.0000083 0.0000521 -0.0000084 0.0000079 0.0000241 0.0000758 0.0001795 -0.0001659 0.0000638 0.0001950 -0.0000228 -0.0000406 0.0000510 -0.0000970 0.0000618 0.0001708 -0.0000022 0.0000648 0.0000222 0.0001091 -0.0000083 0.0000870 -0.0000084 0.0001072 -0.0001015 0.0001252 -0.0000169 0.0001123 -0.0000040 0.0000724 0.0000087 0.0000533 -0.0000142 0.0002178 0.0000159 0.0000151 0.0000044 0.0000994 0.0000326 0.0001052 -0.0000076 0.0000825 -0.0000162 0.0000968 -0.0000075 0.0000739 -0.0000028 0.0000415 0.0000254 0.0000474 -0.0000037 0.0001027 0.0000085 0.0000941 0.0000819 -0.0000275 -0.0001515 0.0000896 -0.0003866 0.0003703 -0.0000136 0.0000340 0.0000189 0.0000503 -0.0002086 0.0002686 0.0000106 0.0000382 -0.0000174 -0.0000294 0.0000044 -0.0001551 0.0000054 0.0000924 0.0000333 -0.0000581 0.0000155 0.0001147 0.0000032 0.0000785 -0.0000195 0.0000020 -0.0000179 0.0000900 -0.0000347 0.0000399 -0.0000367 -0.0000425 0.0000301 0.0000495 0.0000082 0.0000450 0.0000098 0.0000753 0.0000837 -0.0001041 -0.0000156 0.0001069 0.0007058 -0.0006787 0.0001424 0.0000409 0.0000197 0.0000739 -0.0000000 0.0000964 0.0000851 0.0000487 -0.0000103 0.0000976 -0.0000457 0.0001568 0.0000915 0.0000753 -0.0000045 0.0000963 -0.0000398 0.0001493 -0.0000139 0.0001057 -0.0000316 0.0001553 -0.0000002 0.0000772 -0.0001786 0.0002177 -0.0000308 0.0000537 -0.0000224 0.0000109 -0.0000685 0.0001835 -0.0000027 0.0000659 -0.0001032 0.0001385 -0.0002839 0.0002894 -0.0001033 0.0002084 0.0000047 0.0000055 -0.0000047 0.0000158 -0.0000411 0.0000386 -0.0000321 0.0000150 -0.0000575 0.0000028 -0.0000149 -0.0000292 -0.0000617 0.0000038 0.0000006 0.0000062 -0.0000173 -0.0000084 0.0000087 -0.0000266 -0.0000211 0.0000133 -0.0000364 -0.0001082 0.0000186 -0.0000083 0.0001117 -0.0000998 0.0000338 -0.0000268 -0.0002043 0.0000532 0.0000051 -0.0000921 -0.0000054 -0.0000163 -0.0000184 -0.0000179
0.0000403 -0.0001840 0.0003928 -0.0003932 -0.0000397 -0.0000813 0.0000267 -0.0001590 0.0000160 -0.0001009 -0.0000138 -0.0001026 0.0000460 -0.0000827 0.0000024 -0.0001077 0.0000042 0.0000079 0.0000271 0.0000271 0.0000135 -0.0000301 0.0000226 -0.0000062 0.0000806 0.0001203 -0.0000005 -0.0000897 0.0000019 0.0000552 0.0000201 -0.0000104 -0.0000039 0.0001063 -0.0000025 0.0000098 0.0000344 -0.0000579 0.0000352 -0.0000167 -0.0000048 -0.0000354 0.0000179 0.0000616 0.0001137 -0.0001852 0.0000706 0.0000069 0.0000092 -0.0000782 0.0001233 -0.0002090 0.0001787 0.0000357 0.0000114 -0.0000960 0.0000301 0.0000430 0.0000032 -0.0000422 -0.0000180 -0.0000410 0.0000056 -0.0000467 0.0000099 0.0001585 -0.0000012 -0.0000402 0.0000114 -0.0001019 0.0000698 0.0000577 -0.0000266 -0.0001313 -0.0000218 -0.0000739 0.0000489 -0.0000602 0.0000076 -0.0000488 0.0000137 -0.0000634 -0.0000103 -0.0000074 0.0000099 -0.0000732 0.0000481 -0.0002001 -0.0000472 0.0000276 0.0000169 -0.0000334 0.0000236 -0.0001458 -0.0002534 0.0001184 -0.0001435 -0.0000620 0.0002527 -0.0003835 0.0000034 0.0000330 -0.0001936 -0.0000308 0.0000136 -0.0000405 -0.0000584 -0.0000997 -0.0000564 -0.0005677 -0.0000007 0.0000963 0.0000894 -0.0000154 -0.0000099 0.0001118 0.0000155 0.0001277 -0.0000389 0.0000225 -0.0000637 0.0001460 0.0001666 -0.0001004 -0.0000264 -0.0000638 0.0000750 0.0000762 0.0000296 0.0001012 0.0000123 0.0001180 -0.0008424 0.0007779 0.0000203 0.0001306 0.0000999 -0.0000255 0.0002200 0.0000729 0.0000652 0.0001119 -0.0000035 0.0001620 0.0000377 0.0001580 0.0000251 0.0001421 -0.0000372 0.0001842 0.0001877 0.0001442 -0.0000337 0.0001289 -0.0000678 0.0001995 -0.0000111 0.0001861 -0.0001052 0.0001799 -0.0000069 0.0001725 -0.0003636 0.0003780 -0.0000197 0.0001163 -0.0000637 0.0000508 -0.0000470 0.0003448 -0.0000591 0.0001593 -0.0001031 0.0001408 -0.0000470 0.0001553 -0.0000943 0.0002742 0.0000109 0.0001048 0.0000006 0.0000614 -0.0000034 0.0002246 0.0001158 -0.0000291 -0.0000215 0.0000934 0.0000167 0.0000355 -0.0000919 0.0001282 -0.0002085 0.0002277 -0.0000387 0.0000403 -0.0000262 0.0000363 0.0000668 0.0000398 0.0000177 -0.0005411 0.0000159 0.0001035 -0.0002535 0.0002231 0.0000255 0.0000114 -0.0001195 0.0000736 0.0000273 -0.0000396 -0.0000314 0.0000559 -0.0000902 0.0000733
0.0001543 -0.0001575 0.0001189 -0.0001537 0.0001736 -0.0001902 0.0000220 -0.0000635 0.0000175 -0.0000385 -0.0000392 0.0000423 -0.0000102 0.0000330 -0.0000110 -0.0000529 -0.0000093 0.0000278 -0.0000133 0.0001121 0.0000836 -0.0000435 0.0000090 0.0000998 0.0000880 0.0002382 0.0000079 -0.0000231 0.0000049 0.0001529 0.0000216 0.0000618 -0.0000153 0.0001622 -0.0000184 0.0000914 0.0000276 0.0001177 -0.0000085 0.0001844 -0.0000111 0.0000611 -0.0000043 0.0001485 0.0000165 0.0000217 0.0000343 0.0000151 0.0000145 0.0000484 0.0000331 -0.0000725 0.0000543 0.0000590 -0.0000173 0.0000026 -0.0000095 0.0000675 -0.0000110 0.0000668 -0.0000305 0.0000940 0.0001422 -0.0000724 -0.0000370 0.0002548 -0.0000198 0.0000628 0.0000038 -0.0000648 -0.0000266 0.0000789 -0.0000338 -0.0000911 0.0000185 -0.0001664 0.0000025 0.0001107 -0.0000086 0.0000535 0.0000157 0.0000053 0.0000061 0.0000760 0.0000040 -0.0000169 0.0001031 -0.0001623 -0.0000599 0.0001191 -0.0000711 0.0001519 0.0002207 -0.0003565 0.0000134 0.0000833 -0.0004178 0.0003105 0.0003873 -0.0004218 -0.0000372 0.0001272 -0.0007603 0.0001711 -0.0000008 -0.0000176 -0.0000230 -0.0000385 -0.0000194 -0.0005879 -0.0000085 -0.0000088 0.0001333 -0.0002001 -0.0000553 0.0000638 0.0000193 0.0000111 -0.0000196 -0.0000376 -0.0000599 0.0001747 0.0001234 -0.0001045 -0.0000251 -0.0000493 0.0000373 -0.0000535 0.0000258 -0.0000338 -0.0000046 -0.0000255 -0.0012674 0.0009423 0.0000232 -0.0000667 0.0005872 -0.0004622 -0.0001679 0.0002428 0.0000199 -0.0000000 0.0000099 -0.0000143 -0.0000336 0.0001389 0.0000323 -0.0000660 0.0000604 0.0001517 0.0001056 0.0001902 -0.0000512 0.0000853 -0.0000114 0.0001592 0.0000208 -0.0000413 -0.0000823 -0.0000070 0.0000005 -0.0000859 -0.0003149 0.0002136 -0.0000109 0.0000020 -0.0000605 -0.0000258 -0.0002021 0.0004198 -0.0000149 0.0000424 -0.0002083 0.0001260 0.0003403 -0.0002603 0.0000322 0.0000343 0.0000213 -0.0000189 -0.0000144 -0.0000263 -0.0000593 0.0002103 0.0000853 -0.0000577 0.0000028 -0.0000108 -0.0000048 0.0000246 -0.0000759 0.0001580 -0.0000394 0.0000908 -0.0000196 0.0000155 -0.0000144 0.0000611 0.0000408 0.0000480 0.0000725 -0.0006949 0.0000672 0.0001045 -0.0001526 0.0002844 0.0000284 0.0000015 -0.0000807 0.0001103 0.0000064 0.0000622 -0.0000500 0.0001454 -0.0001448 0.0002226
-0.0001039 0.0000179 0.0000077 0.0000591 0.0004092 -0.0002894 0.0000097 0.0000040 0.0000199 0.0000160 -0.0000771 0.0001427 -0.0001281 0.0001462 -0.0000332 -0.0000181 -0.0000645 0.0000060 -0.0000352 0.0001234 -0.0001057 0.0001467 -0.0000180 0.0001482 -0.0000024 0.0003157 -0.0000018 0.0000073 -0.0000175 0.0001782 0.0000289 0.0000868 -0.0000388 0.0002018 -0.0000183 0.0000752 0.0000269 0.0002380 -0.0000317 0.0002785 -0.0000217 0.0001378 -0.0000232 0.0002070 0.0000122 0.0001456 -0.0000046 0.0000348 -0.0000006 0.0001308 -0.0001345 0.0001394 -0.0000254 0.0001358 -0.0000530 0.0000929 -0.0000219 0.0000764 -0.0000477 0.0001691 -0.0000438 0.0001853 0.0000630 0.0000083 -0.0000696 0.0002889 -0.0000632 0.0001662 -0.0000431 0.0000504 -0.0000624 0.0001350 -0.0000458 0.0000212 0.0000410 -0.0000578 -0.0000013 0.0002385 -0.0000299 0.0001617 0.0000576 0.0001020 0.0000023 0.0001373 -0.0000097 0.0000457 0.0001284 -0.0001018 -0.0001066 0.0002483 -0.0000966 0.0002586 -0.0001605 0.0000594 0.0001193 0.0000922 -0.0002522 0.0005980 -0.0000302 0.0000921 -0.0000374 0.0001406 -0.0006212 0.0000760 -0.0000416 0.0000827 0.0000272 0.0001076 0.0001095 -0.0003284 -0.0000499 0.0001153 0.0001258 -0.0003097 -0.0000805 0.0002015 -0.0000093 0.0001388 -0.0000200 0.0000166 -0.0000549 0.0002363 -0.0000106 0.0000694 0.0000027 -0.0000263 -0.0000113 -0.0001079 0.0000027 0.0000088 -0.0000413 0.0000362 -0.0004667 0.0004360 0.0000316 0.0000383 0.0009397 -0.0006783 -0.0004211 0.0005951 -0.0000207 0.0001666 -0.0000001 0.0000724 -0.0000363 0.0002271 -0.0000016 0.0000587 0.0000143 0.0002189 0.0000306 0.0002718 -0.0000749 0.0001919 0.0000641 0.0002213 0.0000066 0.0000301 -0.0000859 0.0000841 -0.0000157 0.0000036 -0.0001900 0.0002003 -0.0000321 0.0000871 -0.0000419 0.0000171 -0.0001130 0.0004828 0.0000545 0.0000175 -0.0002966 0.0002872 0.0003823 -0.0001485 0.0000435 0.0002319 0.0000107 0.0000673 -0.0000178 0.0000558 -0.0001261 0.0003461 -0.0000099 0.0001244 0.0000683 0.0000071 -0.0000413 0.0001097 0.0000037 0.0001743 -0.0000376 0.0000861 -0.0000010 0.0000680 -0.0000223 0.0001282 0.0000178 0.0001152 -0.0000475 -0.0005801 0.0000544 0.0001733 -0.0001578 0.0003469 -0.0000792 0.0001660 -0.0001362 0.0002705 -0.0000050 0.0001505 -0.0000933 0.0002689 -0.0001515 0.0002854
-0.0002185 0.0001129 -0.0000976 0.0001668 -0.0001991 0.0003112 -0.0000012 0.0000865 0.0000222 0.0001158 -0.0001398 0.0002580 -0.0002441 0.0002430 -0.0000572 0.0000022 -0.0001177 0.0000089 -0.0000595 0.0001300 -0.0001502 0.0001717 -0.0000417 0.0001990 -0.0002569 0.0005558 -0.0000098 0.0000859 -0.0000409 0.0002217 0.0000411 0.0001657 -0.0000436 0.0002382 -0.0000626 0.0001705 0.0000097 0.0003478 -0.0000716 0.0004099 -0.0000134 0.0001993 -0.0000123 0.0002475 0.0000630 0.0000550 -0.0000026 0.0001159 -0.0000296 0.0001571 -0.0002457 0.0002852 0.0000477 0.0000320 -0.0000621 0.0000389 -0.0000351 0.0000062 -0.0000964 0.0001785 -0.0000796 0.0001008 -0.0001679 0.0001339 -0.0000794 0.0002765 -0.0000761 0.0001185 -0.0000487 0.0000318 -0.0000023 -0.0000516 -0.0000826 0.0000266 -0.0000626 0.0000458 -0.0000517 0.0001236 -0.0000291 0.0000680 0.0000454 0.0000580 0.0000230 0.0000030 -0.0000332 -0.0000267 0.0000535 -0.0001630 -0.0000777 0.0000352 -0.0000547 0.0000403 -0.0002618 0.0000866 -0.0000267 0.0000496 -0.0006936 0.0008011 0.0001214 -0.0001062 -0.0000750 0.0000512 0.0002246 -0.0005668 -0.0000459 0.0000389 0.0000485 0.0001301 0.0002279 -0.0002408 -0.0001145 0.0002143 0.0000497 -0.0005760 -0.0000900 0.0002868 -0.0000161 0.0001738 -0.0000563 0.0000520 -0.0000729 0.0002323 0.0000252 0.0000201 -0.0000102 -0.0000398 -0.0000540 -0.0002358 -0.0000363 -0.0000310 -0.0000437 0.0000463 0.0001568 -0.0001301 0.0000548 0.0000918 0.0005409 -0.0000289 -0.0002175 0.0005403 0.0000011 0.0002501 -0.0000411 0.0001433 0.0000053 0.0002427 0.0000105 0.0001220 -0.0001050 0.0002898 -0.0000505 0.0004091 -0.0000755 0.0002368 0.0000414 0.0002468 -0.0000125 0.0001052 -0.0001833 0.0002790 -0.0000109 0.0000707 -0.0001269 0.0001472 -0.0000675 0.0001563 -0.0000273 0.0000282 -0.0000674 0.0004665 0.0000273 0.0000506 -0.0001595 0.0002425 -0.0002145 0.0002802 -0.0001322 0.0004389 -0.0000042 0.0001575 -0.0000067 0.0001023 -0.0000563 0.0003857 -0.0001954 0.0003329 0.0000439 0.0002220 -0.0000573 0.0001759 -0.0001310 0.0003792 0.0000113 0.0001251 -0.0000112 0.0001340 -0.0000767 0.0002090 0.0000048 0.0001571 -0.0000833 -0.0003191 -0.0000348 0.0002597 -0.0001313 0.0004303 -0.0000666 0.0002540 -0.0000763 0.0002668 -0.0000250 0.0002748 -0.0001214 0.0003901 -0.0001636 0.0004267
-0.0001382 0.0001367 0.0000031 0.0001144 -0.0004302 0.0004503 -0.0000142 0.0001869 0.0000269 0.0002003 -0.0001946 0.0003693 -0.0002085 0.0002079 -0.0000987 0.0000662 -0.0001642 0.0000562 -0.0001132 0.0001878 -0.0000962 0.0001202 -0.0000526 0.0002616 -0.0002399 0.0005786 -0.0000179 0.0001739 -0.0000100 0.0002354 0.0000363 0.0003169 -0.0000531 0.0002877 -0.0001084 0.0003351 -0.0000532 0.0004714 -0.0001203 0.0005614 -0.0000310 0.0002894 -0.0000461 0.0003471 -0.0000464 0.0003463 -0.0000020 0.0003070 -0.0000710 0.0002673 -0.0001290 0.0003148 0.0000175 0.0001617 -0.0000829 0.0001427 -0.0000655 0.0000985 -0.0001504 0.0003241 -0.0000998 0.0002199 -0.0002368 0.0002042 -0.0001150 0.0003058 -0.0001036 0.0001967 -0.0000218 0.0000419 0.0000068 0.0000006 -0.0001035 0.0000918 -0.0001318 0.0001249 -0.0001216 0.0003088 -0.0000680 0.0001751 -0.0000238 0.0002128 -0.0000201 0.0001039 -0.0000145 0.0000571 -0.0000166 -0.0000336 0.0000190 0.0000828 -0.0000830 0.0001644 -0.0000451 -0.0000020 0.0001000 -0.0000253 -0.0009450 0.0009145 0.0003101 -0.0001304 -0.0002068 0.0002186 -0.0000533 -0.0002281 -0.0000547 0.0001012 0.0000353 0.0002034 0.0002851 -0.0001939 -0.0001885 0.0003972 0.0000705 -0.0004303 -0.0000978 0.0004487 -0.0000367 0.0003074 -0.0000646 0.0001030 -0.0000732 0.0002550 -0.0000046 0.0000350 -0.0000558 -0.0000302 -0.0000206 -0.0001921 -0.0000383 0.0000648 -0.0000286 0.0001520 -0.0006128 0.0008332 -0.0000152 0.0002877 -0.0003869 0.0003813 0.0000699 0.0002547 -0.0000356 0.0003869 -0.0000550 0.0002326 0.0001096 0.0002495 0.0000276 0.0002089 -0.0001210 0.0002678 -0.0001141 0.0005480 -0.0000870 0.0002598 0.0000591 0.0003298 -0.0000147 0.0001708 -0.0003122 0.0005644 -0.0000039 0.0001470 -0.0000053 0.0001677 -0.0001154 0.0002313 -0.0000193 0.0000735 0.0000750 0.0004085 -0.0000336 0.0000966 0.0001491 0.0000344 -0.0003866 0.0004526 -0.0000587 0.0003872 -0.0000061 0.0002269 -0.0000187 0.0001653 -0.0000125 0.0002819 -0.0003843 0.0005009 -0.0002079 0.0005164 -0.0000673 0.0002113 -0.0002264 0.0005034 0.0000284 0.0001415 -0.0000333 0.0002051 -0.0000816 0.0002576 -0.0000054 0.0001614 -0.0001678 0.0000686 -0.0000833 0.0003079 -0.0003040 0.0006486 0.0000054 0.0002123 0.0001653 0.0001064 -0.0000469 0.0003697 -0.0001383 0.0004775 -0.0001521 0.0005411
0.0000280 0.0001085 0.0005379 -0.0002994 -0.0000383 0.0001958 -0.0000016 0.0002192 0.0000276 0.0002267 -0.0002611 0.0003774 -0.0002225 0.0001904 -0.0001328 0.0000761 -0.0001898 0.0000080 -0.0001147 0.0001086 -0.0001343 0.0000980 -0.0000402 0.0001518 -0.0000570 0.0003890 -0.0000247 0.0001045 -0.0000228 0.0001623 0.0000238 0.0003135 -0.0000607 0.0002362 -0.0000979 0.0002647 -0.0000904 0.0003621 -0.0001775 0.0004940 -0.0000205 0.0002206 -0.0000810 0.0003429 -0.0000407 0.0002696 0.0000169 0.0003124 -0.0000965 0.0002341 -0.0000210 0.0001775 -0.0000147 0.0001801 -0.0001058 0.0000910 -0.0000722 0.0001003 -0.0001966 0.0002755 -0.0001117 0.0001731 -0.0000084 -0.0000380 -0.0001014 0.0002724 -0.0001477 0.0001699 -0.0000390 0.0000573 0.0000355 0.0000599 -0.0000907 0.0001541 -0.0000614 0.0001983 -0.0001708 0.0004159 -0.0001075 0.0002213 -0.0000847 0.0003078 -0.0000049 0.0000808 -0.0000284 0.0000877 -0.0001011 0.0000350 -0.0000085 0.0001464 -0.0000327 0.0001394 0.0002631 -0.0002273 0.0003616 -0.0002345 -0.0001721 0.0001390 0.0010456 -0.0006842 -0.0002257 0.0002082 -0.0001198 -0.0001648 -0.0000398 0.0001020 0.0000288 0.0002505 0.0002846 -0.0002843 -0.0001885 0.0004862 0.0001398 -0.0002808 -0.0001546 0.0005426 -0.0000773 0.0004341 -0.0000923 0.0001454 -0.0000327 0.0002449 -0.0000672 0.0001014 -0.0000464 0.0000048 0.0000019 -0.0001541 -0.0000165 0.0001976 -0.0000187 0.0002317 -0.0012581 0.0019584 -0.0001279 0.0004876 -0.0017167 0.0014582 -0.0002044 0.0005855 -0.0000535 0.0005037 -0.0000580 0.0003415 -0.0000259 0.0004983 -0.0000054 0.0003373 -0.0001257 0.0003167 -0.0000775 0.0005106 -0.0000918 0.0002964 -0.0000787 0.0005181 -0.0000119 0.0002220 -0.0002310 0.0006200 -0.0000081 0.0002247 0.0002385 0.0000539 -0.0001338 0.0002943 -0.0000288 0.0001127 0.0000106 0.0005802 -0.0000100 0.0000886 0.0001720 0.0000864 -0.0000304 0.0003058 0.0001258 0.0002869 -0.0000112 0.0002864 -0.0000413 0.0002259 -0.0001125 0.0004717 -0.0004159 0.0006025 -0.0002494 0.0005450 -0.0000545 0.0002167 -0.0001457 0.0005136 -0.0001374 0.0003222 -0.0000476 0.0002731 -0.0000942 0.0003279 -0.0000060 0.0002263 -0.0002093 0.0001404 -0.0001262 0.0003864 -0.0003862 0.0007164 -0.0000698 0.0003623 -0.0000015 0.0002895 -0.0000785 0.0004764 -0.0001694 0.0005768 -0.0001540 0.0006657
-0.0000562 0.0001682 0.0001926 -0.0000765 0.0000411 0.0002592 -0.0000331 0.0003338 0.0000211 0.0002886 -0.0003334 0.0005277 -0.0002706 0.0002987 -0.0001980 0.0001760 -0.0002635 0.0000602 -0.0001065 0.0001351 -0.0001307 0.0001599 -0.0000475 0.0002159 -0.0002850 0.0006039 -0.0000306 0.0001791 -0.0000537 0.0002522 0.0000065 0.0004527 -0.0000868 0.0002899 -0.0001167 0.0003811 -0.0001369 0.0004853 -0.0002269 0.0006812 -0.0000297 0.0002747 -0.0000714 0.0004247 0.0000355 0.0000937 -0.0000043 0.0004144 -0.0001396 0.0003766 -0.0000135 0.0002216 -0.0000119 0.0002605 -0.0001168 0.0001874 -0.0000776 0.0001865 -0.0002469 0.0003941 -0.0001368 0.0002714 -0.0001573 0.0002113 -0.0001231 0.0002663 -0.0001965 0.0002824 -0.0000576 0.0001666 -0.0000223 0.0002407 -0.0001102 0.0002918 -0.0000097 0.0002660 -0.0002117 0.0005160 -0.0001350 0.0002876 -0.0000769 0.0003801 -0.0000145 0.0001413 -0.0000706 0.0001791 -0.0002007 0.0002269 -0.0000565 0.0002834 -0.0000959 0.0002477 0.0002442 -0.0000884 0.0000901 0.0000428 -0.0004356 0.0005349 0.0005545 -0.0003695 -0.0001566 0.0001514 0.0004835 -0.0003756 -0.0000706 0.0001864 -0.0000379 0.0002903 0.0001779 -0.0005438 -0.0002244 0.0005955 0.0002277 -0.0002120 -0.0002131 0.0006375 -0.0001033 0.0005074 -0.0001462 0.0002471 -0.0000558 0.0002829 -0.0000151 0.0001504 -0.0000511 0.0000371 0.0000243 -0.0000606 0.0000031 0.0003135 -0.0000161 0.0003008 -0.0002656 0.0009264 -0.0001124 0.0005448 -0.0016641 0.0015032 -0.0001576 0.0007987 -0.0000760 0.0005832 -0.0000964 0.0004017 -0.0001677 0.0007504 -0.0000416 0.0004111 -0.0001846 0.0003978 -0.0000006 0.0004138 -0.0000913 0.0003291 -0.0001812 0.0006292 -0.0000379 0.0000975 -0.0001695 0.0005043 -0.0000071 0.0000589 0.0000924 0.0000754 -0.0001162 0.0002142 -0.0000310 0.0000786 -0.0000469 0.0005621 -0.0000639 0.0000849 0.0001974 0.0000995 -0.0002040 0.0002910 0.0000281 0.0001369 -0.0000117 -0.0000948 -0.0000335 0.0000276 -0.0002756 0.0003262 -0.0000322 0.0001133 -0.0002083 0.0001983 -0.0000468 -0.0000297 -0.0001156 0.0002405 -0.0001714 0.0002528 -0.0000324 0.0001027 -0.0001232 0.0002016 -0.0000115 0.0000028 -0.0001587 -0.0000569 -0.0000987 0.0000467 -0.0001815 0.0001819 -0.0001878 0.0002094 -0.0002011 0.0002734 -0.0000629 0.0000577 -0.0001652 0.0003165 -0.0001471 0.0001759
-0.0000357 -0.0001001 -0.0001815 0.0000337 -0.0002275 0.0003564 -0.0000690 0.0001747 0.0000117 0.0001233 -0.0003565 0.0003898 -0.0001830 0.0000569 -0.0001879 0.0000893 -0.0002992 0.0001227 -0.0000900 0.0000344 -0.0001372 0.0001182 -0.0000314 0.0000654 -0.0003806 0.0006193 -0.0000275 0.0000704 -0.0000699 0.0002288 0.0000024 0.0004075 -0.0000999 0.0002481 -0.0001241 0.0003191 -0.0001671 0.0004648 -0.0002720 0.0006625 -0.0000367 0.0001969 -0.0000739 0.0003833 0.0001802 -0.0000087 -0.0000210 0.0003732 -0.0001517 0.0003964 -0.0000254 0.0002590 -0.0000588 0.0003187 -0.0001322 0.0002076 -0.0000870 0.0001793 -0.0002731 0.0004191 -0.0001291 0.0002510 -0.0002610 0.0002273 -0.0001052 0.0001828 -0.0002037 0.0002484 -0.0000767 0.0001389 -0.0001076 0.0002380 -0.0000632 0.0002076 -0.0000951 0.0002664 -0.0002387 0.0004958 -0.0001404 0.0002382 -0.0000809 0.0003265 -0.0000399 0.0001057 -0.0000555 0.0001547 -0.0001247 0.0001194 -0.0000038 0.0002420 -0.0001802 0.0002870 0.0001985 0.0000153 0.0000702 0.0001637 0.0008923 -0.0002624 -0.0011475 0.0007832 -0.0001595 0.0001191 0.0000707 -0.0001020 -0.0001083 0.0001843 -0.0001089 0.0002303 -0.0000017 -0.0010941 -0.0002847 0.0006176 0.0003124 -0.0002837 -0.0002221 0.0006270 -0.0001015 0.0004628 -0.0001925 0.0002584 -0.0001198 0.0003048 0.0000119 0.0000715 -0.0000438 0.0000311 0.0000568 -0.0000796 0.0000330 0.0003691 -0.0000127 0.0003283 0.0000058 0.0001753 -0.0000769 0.0005569 -0.0003759 0.0005833 0.0001317 0.0004927 -0.0000969 0.0006350 -0.0001179 0.0004230 -0.0001235 0.0007324 -0.0000420 0.0004480 -0.0001736 0.0003521 -0.0000534 0.0005082 -0.0000642 0.0003217 -0.0001205 0.0005245 -0.0000290 0.0000999 -0.0003282 0.0005811 -0.0000020 0.0001007 -0.0000526 0.0002089 -0.0001167 0.0002102 -0.0000143 0.0000468 -0.0003192 0.0007294 -0.0000747 0.0000815 0.0000591 0.0002191 -0.0003086 0.0002723 -0.0000973 0.0001918 -0.0000178 -0.0000481 -0.0000183 0.0000229 -0.0000613 0.0000528 0.0001069 -0.0000042 -0.0004506 0.0003793 -0.0000358 -0.0000419 -0.0001366 0.0001993 -0.0000241 0.0001394 -0.0000447 0.0001136 -0.0000900 0.0001517 -0.0000351 -0.0000164 0.0000986 0.0000236 -0.0001346 0.0001122 0.0001002 -0.0001419 -0.0002289 0.0002442 -0.0002576 0.0003555 -0.0000526 0.0000924 -0.0001564 0.0002819 -0.0000952 0.0001669
-0.0001316 -0.0000603 -0.0001431 0.0000559 -0.0003179 0.0004348 -0.0000805 0.0002022 0.0000047 0.0000746 -0.0003683 0.0003710 -0.0001962 -0.0000097 -0.0001906 0.0000567 -0.0003503 0.0001294 -0.0000824 0.0000374 -0.0000118 0.0000164 -0.0000546 0.0001024 -0.0004520 0.0006637 -0.0000471 0.0000387 -0.0001018 0.0002138 -0.0000267 0.0003851 -0.0001007 0.0002348 -0.0001793 0.0003135 -0.0001868 0.0005487 -0.0003678 0.0007296 -0.0000499 0.0001801 -0.0001170 0.0004297 0.0004431 -0.0000602 -0.0000772 0.0003438 -0.0001543 0.0004051 -0.0001972 0.0004593 -0.0000609 0.0003276 -0.0001339 0.0002184 -0.0000928 0.0001528 -0.0002974 0.0004242 -0.0001204 0.0002055 -0.0001958 0.0000817 -0.0001096 0.0001307 -0.0002002 0.0002086 -0.0000445 0.0001373 -0.0001610 0.0001505 -0.0000196 0.0001263 -0.0001444 0.0003228 -0.0002459 0.0003022 -0.0001032 0.0000706 -0.0001140 0.0002331 -0.0000360 -0.0000474 -0.0000601 -0.0000027 0.0000452 -0.0002299 -0.0000062 -0.0000010 -0.0000973 -0.0000475 0.0001862 -0.0001421 0.0001735 -0.0000062 0.0011156 -0.0006629 -0.0008533 0.0005838 -0.0001857 -0.0000997 -0.0000540 -0.0000984 -0.0001008 0.0000274 -0.0000427 0.0001661 0.0001694 -0.0011826 -0.0003070 0.0002273 0.0003017 -0.0008935 -0.0001345 0.0002441 -0.0000726 0.0000300 -0.0001640 0.0000418 -0.0001198 0.0001928 0.0000217 -0.0002249 -0.0000191 -0.0000224 0.0000577 -0.0005526 0.0000253 -0.0000347 -0.0000017 -0.0000097 -0.0008896 0.0001630 -0.0000517 0.0001071 -0.0000809 0.0005035 0.0002810 -0.0001229 -0.0000337 0.0002196 -0.0001116 0.0000978 -0.0000271 0.0001932 -0.0000390 0.0000564 -0.0000181 0.0002503 -0.0001567 0.0004701 -0.0000238 0.0001802 -0.0001562 0.0003656 -0.0000020 -0.0001401 -0.0002194 0.0002746 0.0000287 -0.0001474 -0.0000901 -0.0000740 -0.0001078 -0.0000086 0.0000134 -0.0001478 -0.0004025 0.0004643 -0.0000101 -0.0001428 0.0000418 0.0000049 -0.0000464 -0.0001801 -0.0001961 0.0002470 -0.0000123 -0.0001607 -0.0000193 -0.0001433 0.0001087 -0.0002744 -0.0000679 -0.0000131 -0.0003326 0.0001614 -0.0000406 -0.0001739 -0.0000453 0.0000343 0.0002050 -0.0001902 -0.0000344 0.0000113 -0.0000505 0.0000249 -0.0000723 -0.0001379 0.0005317 -0.0001686 -0.0000980 -0.0000204 0.0001172 -0.0001678 -0.0001702 0.0001045 -0.0001246 0.0001643 -0.0000878 0.0000599 -0.0001201 0.0001513 -0.0000089 0.0000571
-0.0003313 -0.0001632 -0.0000370 -0.0002622 -0.0002262 0.0001709 -0.0000936 0.0000926 -0.0000023 -0.0001037 -0.0003465 0.0002038 -0.0002805 -0.0001099 -0.0001983 -0.0000060 -0.0003042 0.0000011 -0.0000762 -0.0000140 0.0000181 -0.0001872 -0.0000591 0.0000297 -0.0002797 0.0004136 -0.0000597 -0.0001551 -0.0000793 0.0000928 -0.0000476 0.0001748 -0.0000992 0.0001480 -0.0001876 0.0001267 -0.0001704 0.0005240 -0.0004242 0.0006229 -0.0000556 0.0000620 -0.0001321 0.0003251 0.0000564 0.0000902 -0.0001372 0.0001424 -0.0001498 0.0003365 -0.0001150 0.0003498 -0.0000522 0.0002835 -0.0000966 0.0001403 -0.0000924 0.0001349 -0.0002855 0.0003417 -0.0000839 0.0001032 -0.0000600 -0.0001525 -0.0001198 0.0000175 -0.0002141 0.0001155 0.0000320 0.0000094 -0.0001441 0.0001608 -0.0000474 0.0001575 -0.0001041 0.0003446 -0.0002027 0.0001657 -0.0000768 -0.0000402 -0.0000552 0.0000595 -0.0000976 -0.0001137 -0.0000648 -0.0000611 0.0000591 -0.0002966 0.0000093 -0.0001821 -0.0000611 -0.0001998 0.0004166 -0.0003892 -0.0000491 0.0000025 0.0007239 -0.0003237 -0.0002483 0.0000407 -0.0001596 -0.0002773 0.0003298 -0.0001479 -0.0000858 -0.0000481 -0.0000121 0.0001779 0.0002280 -0.0011642 -0.0003042 0.0001325 0.0003181 -0.0010443 -0.0000438 0.0000889 -0.0000597 0.0000188 -0.0001140 -0.0000273 -0.0001119 0.0001260 0.0000554 -0.0003210 -0.0000102 -0.0000466 0.0000840 -0.0006284 0.0000097 -0.0000815 0.0000016 -0.0000481 -0.0004110 0.0000530 -0.0000054 0.0001134 -0.0007429 0.0008514 0.0005351 -0.0002501 -0.0000330 0.0002046 -0.0000969 0.0000864 -0.0000440 0.0001811 -0.0000468 0.0000501 -0.0000079 0.0002022 -0.0002371 0.0004701 -0.0000151 0.0001658 -0.0001200 0.0002650 0.0000075 -0.0001665 -0.0000911 0.0002334 0.0000207 -0.0001180 -0.0002407 -0.0000533 -0.0000998 -0.0000996 0.0000025 -0.0002058 -0.0001641 0.0002820 -0.0000217 -0.0002001 -0.0000053 -0.0000012 0.0000337 -0.0002443 0.0000299 0.0000283 -0.0000018 -0.0001672 -0.0000211 -0.0001815 -0.0001281 -0.0001688 -0.0002243 0.0000640 -0.0001703 -0.0000486 -0.0000450 -0.0002437 -0.0000571 0.0000445 0.0000290 -0.0001073 -0.0000498 -0.0000174 -0.0000683 0.0000299 -0.0001154 -0.0001968 0.0002477 0.0000621 -0.0000397 -0.0002179 -0.0002056 0.0000732 -0.0001891 0.0000054 -0.0001225 -0.0000019 -0.0000841 -0.0001699 -0.0000809 -0.0000345 0.0000802 -0.0003228
-0.0002940 -0.0004466 -0.0002789 -0.0002923 -0.0003859 0.0000840 -0.0000948 -0.0001543 -0.0000055 -0.0003375 -0.0003000 -0.0001906 -0.0002702 -0.0003687 -0.0001822 -0.0002317 -0.0002807 -0.0001877 -0.0000814 -0.0002049 0.0000098 -0.0003851 -0.0000455 -0.0002430 -0.0000589 0.0000484 -0.0000521 -0.0004870 -0.0000762 -0.0001354 -0.0000465 -0.0001397 -0.0000798 -0.0000792 -0.0001452 -0.0002465 -0.0001381 0.0002181 -0.0003597 0.0001889 -0.0000367 -0.0002265 -0.0001310 0.0000433 -0.0002856 -0.0000041 -0.0001259 -0.0002509 -0.0000989 0.0000888 0.0000560 -0.0000040 -0.0000338 -0.0001574 -0.0000576 -0.0002128 -0.0001061 -0.0001279 -0.0002466 -0.0000357 -0.0000290 -0.0003680 0.0001126 -0.0005425 -0.0000581 -0.0002121 -0.0001751 -0.0002849 0.0000496 -0.0002529 -0.0001959 -0.0001447 -0.0000925 -0.0000864 0.0000243 0.0002110 -0.0001514 -0.0001937 -0.0000517 -0.0003517 -0.0000724 -0.0002014 -0.0000680 -0.0004675 -0.0000644 -0.0002563 0.0000167 -0.0003613 0.0000583 -0.0005421 -0.0000753 -0.0004295 0.0005862 -0.0007212 -0.0000240 -0.0001689 0.0012554 -0.0010232 -0.0009674 0.0001893 -0.0001417 -0.0004436 0.0003293 -0.0001560 -0.0000471 -0.0002389 -0.0000655 -0.0000139 -0.0000029 -0.0018784 -0.0001856 -0.0001068 0.0004281 -0.0013288 -0.0000318 -0.0001082 0.0000003 -0.0001573 -0.0000236 -0.0002118 -0.0000710 -0.0000501 0.0001192 -0.0005047 0.0000280 -0.0000944 0.0001328 -0.0007290 0.0000729 -0.0001206 0.0000001 -0.0001716 -0.0000641 0.0001452 0.0000125 0.0000115 -0.0004482 0.0004522 0.0003194 -0.0002225 -0.0000371 0.0000914 0.0000097 -0.0000962 0.0000015 0.0000043 -0.0000015 -0.0000453 -0.0001561 0.0002215 -0.0001949 0.0002664 -0.0000007 0.0000620 -0.0000734 0.0000865 0.0000458 -0.0002590 -0.0000401 0.0000744 0.0000251 -0.0001473 -0.0001912 -0.0001792 -0.0000835 -0.0002227 0.0000090 -0.0003385 -0.0000091 0.0000685 -0.0000090 -0.0003436 -0.0000694 -0.0000560 -0.0001722 -0.0002230 0.0002873 -0.0003954 0.0000090 -0.0002170 -0.0000247 -0.0002728 -0.0002018 -0.0001974 -0.0003415 0.0000029 -0.0002182 -0.0001560 -0.0000164 -0.0003384 -0.0001622 0.0000286 -0.0001337 -0.0001253 -0.0000688 -0.0000864 -0.0000573 -0.0000214 -0.0001054 -0.0002415 -0.0001156 0.0001881 0.0000029 -0.0002801 -0.0003986 0.0000429 -0.0001380 -0.0000858 -0.0001135 -0.0000810 -0.0000349 -0.0002550 -0.0000376 -0.0001113 0.0000920 -0.0003388
0.0000112 -0.0007399 -0.0000060 -0.0005117 -0.0007264 0.0003257 -0.0001004 -0.0002068 -0.0000122 -0.0004462 -0.0002482 -0.0003613 -0.0002461 -0.0004808 -0.0001735 -0.0003119 -0.0003057 -0.0003335 -0.0000900 -0.0002722 -0.0000276 -0.0004046 -0.0000537 -0.0002911 -0.0001782 0.0001164 -0.0000722 -0.0006119 -0.0000926 -0.0002067 -0.0000707 -0.0003071 -0.0000933 -0.0003389 -0.0000873 -0.0003798 -0.0000695 0.0002842 -0.0003006 0.0000022 0.0000039 -0.0001613 -0.0001727 -0.0000015 -0.0002716 0.0001947 -0.0002252 -0.0005684 -0.0000633 0.0001302 0.0000682 0.0002811 -0.0001798 -0.0007350 -0.0000571 -0.0002360 -0.0002116 -0.0003166 -0.0002129 -0.0001168 -0.0000329 -0.0004726 0.0000348 -0.0004351 -0.0000715 -0.0002806 -0.0001129 -0.0003817 0.0000629 -0.0001882 -0.0003677 -0.0004105 -0.0001652 -0.0000212 0.0000602 0.0004572 -0.0001240 -0.0003240 -0.0000356 -0.0004611 -0.0000899 -0.0001476 -0.0000596 -0.0006022 -0.0000442 -0.0003189 -0.0000207 -0.0000931 -0.0000568 -0.0005325 -0.0000550 -0.0005076 0.0001221 -0.0003237 0.0001764 -0.0002279 0.0013586 -0.0011334 -0.0008718 0.0000059 -0.0002270 -0.0004437 0.0001225 0.0001878 -0.0000543 -0.0002073 -0.0001803 -0.0001873 0.0000813 -0.0016373 -0.0000885 -0.0004160 0.0005482 -0.0013528 0.0000502 -0.0004881 0.0000661 -0.0004435 -0.0000014 -0.0002104 -0.0000586 -0.0001446 -0.0000227 -0.0005669 0.0001151 0.0000033 0.0001397 -0.0010295 0.0001442 -0.0002126 0.0000090 -0.0004365 0.0008019 -0.0006881 0.0000375 -0.0003622 0.0000621 0.0000720 -0.0005650 0.0000535 0.0000650 -0.0003504 0.0000605 -0.0004620 0.0000999 -0.0005291 -0.0000008 -0.0003976 -0.0001461 0.0001833 0.0000469 -0.0001519 0.0000448 -0.0000785 -0.0000313 -0.0001939 0.0000470 -0.0007060 0.0001146 -0.0002876 0.0000713 -0.0005398 0.0001622 -0.0008552 0.0000010 -0.0005473 0.0000363 -0.0005772 -0.0002124 -0.0002847 0.0000060 -0.0006139 -0.0002580 -0.0002150 -0.0001549 -0.0005563 0.0001789 -0.0008719 0.0000251 -0.0006979 -0.0000109 -0.0006318 -0.0000817 -0.0007320 -0.0001679 -0.0005499 -0.0001770 -0.0006492 0.0000299 -0.0007436 -0.0001227 -0.0004482 -0.0000385 -0.0005456 -0.0000492 -0.0003906 -0.0000437 -0.0002819 -0.0000429 -0.0005632 -0.0000851 -0.0000708 -0.0000043 -0.0005893 0.0000404 -0.0006785 -0.0000222 -0.0004265 -0.0002606 -0.0002164 0.0000610 -0.0006335 0.0000362 -0.0004040 0.0000658 -0.0005655
0.0003972 -0.0011853 0.0001341 -0.0007308 -0.0006060 -0.0000056 -0.0000961 -0.0003744 -0.0000078 -0.0006337 -0.0001332 -0.0006726 -0.0001190 -0.0008206 -0.0001390 -0.0004242 -0.0002833 -0.0004979 -0.0000271 -0.0004783 -0.0001199 -0.0005423 -0.0000131 -0.0005336 -0.0001295 -0.0001080 -0.0000926 -0.0008379 -0.0000946 -0.0003537 -0.0001034 -0.0006619 -0.0001282 -0.0007143 -0.0000409 -0.0006145 0.0000097 0.0001766 -0.0002870 -0.0003007 0.0000706 -0.0002387 -0.0002015 -0.0001815 -0.0002678 0.0002254 -0.0002989 -0.0008991 -0.0000417 -0.0000220 0.0001768 0.0002927 -0.0002364 -0.0010082 -0.0000478 -0.0002971 -0.0002707 -0.0004527 -0.0001497 -0.0002364 -0.0000091 -0.0005277 0.0000293 -0.0005787 -0.0000497 -0.0004359 -0.0000866 -0.0005082 0.0000966 -0.0003983 -0.0004131 -0.0004599 -0.0001859 0.0000186 -0.0000766 0.0005642 -0.0000751 -0.0004775 0.0000024 -0.0005446 0.0000301 -0.0003861 -0.0000890 -0.0006769 0.0000076 -0.0003967 -0.0001495 -0.0000200 0.0000150 -0.0006507 0.0000294 -0.0006238 -0.0002358 -0.0002343 0.0001777 -0.0003812 0.0014647 -0.0011258 -0.0002794 -0.0006103 -0.0002574 -0.0003851 -0.0003372 0.0003500 -0.0000394 -0.0002874 -0.0001794 -0.0002443 0.0003981 -0.0008808 -0.0000363 -0.0005397 0.0005620 -0.0014509 0.0001277 -0.0007128 0.0000729 -0.0004709 0.0000020 -0.0001668 -0.0000325 -0.0002697 0.0001107 -0.0007795 0.0001547 0.0000468 0.0000874 -0.0012636 0.0001111 -0.0002672 -0.0000225 -0.0005249 0.0007207 -0.0009336 0.0000796 -0.0004340 -0.0002322 0.0005139 -0.0006881 -0.0000216 0.0001438 -0.0004581 0.0000409 -0.0004806 -0.0000848 -0.0004528 -0.0000129 -0.0004234 -0.0002043 0.0000999 -0.0001054 -0.0000873 0.0000577 -0.0001282 -0.0001080 -0.0003079 0.0000096 -0.0007828 0.0002058 -0.0002355 0.0000905 -0.0004717 0.0001853 -0.0008882 0.0000181 -0.0005068 0.0000420 -0.0006365 -0.0002888 -0.0002146 -0.0000209 -0.0006497 -0.0002749 -0.0002455 -0.0001720 -0.0005425 0.0000270 -0.0009199 0.0000410 -0.0006184 -0.0000148 -0.0005994 0.0000016 -0.0006363 0.0000609 -0.0006889 -0.0002200 -0.0005176 0.0000338 -0.0007256 -0.0001328 -0.0004730 -0.0000580 -0.0005616 -0.0000801 -0.0003476 -0.0000209 -0.0002850 0.0000065 -0.0005561 0.0000536 -0.0001388 0.0000044 -0.0005786 -0.0001806 -0.0004632 0.0000352 -0.0004465 -0.0002819 -0.0002225 0.0000899 -0.0006067 0.0000494 -0.0004109 0.0000518 -0.0004771
0.0004484 -0.0012097 -0.0001122 -0.0005544 -0.0001000 -0.0004171 -0.0000925 -0.0003070 0.0000173 -0.0005658 -0.0000767 -0.0007139 -0.0001330 -0.0007802 -0.0001195 -0.0004381 -0.0002440 -0.0006192 -0.0000469 -0.0004915 -0.0000741 -0.0006976 0.0000004 -0.0005714 -0.0001214 -0.0002346 -0.0001026 -0.0008917 -0.0001112 -0.0004807 -0.0001273 -0.0008041 -0.0001354 -0.0008443 -0.0000339 -0.0007148 0.0000098 0.0000257 -0.0002248 -0.0004968 0.0000699 -0.0004111 -0.0002229 -0.0003466 -0.0000477 -0.0002115 -0.0002799 -0.0010075 -0.0000253 -0.0002357 -0.0000383 0.0001070 -0.0001225 -0.0007237 -0.0000398 -0.0004257 -0.0002095 -0.0004443 -0.0000943 -0.0004193 0.0000279 -0.0006384 0.0000994 -0.0008603 -0.0000032 -0.0005896 -0.0000727 -0.0007099 0.0000926 -0.0007683 -0.0002729 -0.0004253 -0.0000759 -0.0003069 -0.0001517 0.0002894 -0.0000150 -0.0008381 0.0000601 -0.0007532 0.0000643 -0.0007398 -0.0000267 -0.0009311 0.0000387 -0.0005564 -0.0001556 -0.0003488 -0.0000981 -0.0007578 0.0000401 -0.0008335 0.0002963 -0.0010899 -0.0000964 -0.0005948 -0.0000542 -0.0005049 0.0002152 -0.0011584 -0.0001494 -0.0004545 0.0002803 -0.0004250 0.0000003 -0.0005599 -0.0000901 -0.0002212 0.0005348 -0.0007431 0.0000145 -0.0008024 0.0006494 -0.0019180 0.0001322 -0.0009613 0.0001040 -0.0007034 0.0001058 -0.0003984 0.0000231 -0.0005174 0.0001629 -0.0010184 0.0001551 -0.0000470 0.0000775 -0.0015362 0.0000764 -0.0004850 -0.0000110 -0.0005755 0.0006094 -0.0009454 0.0000667 -0.0005612 -0.0001435 0.0001237 0.0002041 -0.0009091 0.0001548 -0.0006110 0.0000978 -0.0006115 -0.0000433 -0.0005947 0.0000134 -0.0005095 -0.0001704 -0.0001188 -0.0002066 -0.0002783 0.0000466 -0.0002467 -0.0001039 -0.0005452 -0.0000182 -0.0008391 0.0002848 -0.0004278 0.0000889 -0.0004781 0.0000275 -0.0008376 0.0000325 -0.0005056 0.0000481 -0.0007425 0.0000529 -0.0006303 -0.0000191 -0.0007406 0.0000156 -0.0005704 -0.0000453 -0.0007122 0.0001161 -0.0012504 0.0000592 -0.0006222 0.0000061 -0.0006655 0.0001539 -0.0006869 0.0000830 -0.0007768 -0.0000229 -0.0006578 0.0000406 -0.0007110 -0.0001729 -0.0004867 -0.0002095 -0.0004912 -0.0000692 -0.0003891 0.0000074 -0.0003378 0.0000176 -0.0005447 0.0000675 -0.0001837 0.0000862 -0.0006685 0.0001237 -0.0006998 0.0000837 -0.0005251 -0.0003730 -0.0001058 0.0000800 -0.0005731 0.0000667 -0.0004875 0.0000432 -0.0005227
0.0001903 -0.0010883 -0.0000566 -0.0006671 0.0000348 -0.0005029 -0.0000705 -0.0002665 0.0000417 -0.0005397 0.0000248 -0.0007589 -0.0002040 -0.0006987 -0.0001010 -0.0004511 -0.0001601 -0.0007460 -0.0000415 -0.0005407 -0.0000724 -0.0008475 -0.0000093 -0.0006242 -0.0001499 -0.0002925 -0.0001133 -0.0009277 -0.0001282 -0.0006078 -0.0001166 -0.0009367 -0.0001263 -0.0009052 -0.0000320 -0.0007756 0.0000394 -0.0000323 -0.0001851 -0.0005911 0.0000667 -0.0004637 -0.0002668 -0.0003809 0.0001582 -0.0004610 -0.0003060 -0.0009980 -0.0000176 -0.0001717 0.0000295 -0.0000420 -0.0001855 -0.0003554 -0.0000429 -0.0003170 -0.0001879 -0.0002491 -0.0000631 -0.0003534 0.0000179 -0.0004606 -0.0000548 -0.0007308 0.0000116 -0.0006534 -0.0000536 -0.0006589 0.0000809 -0.0008478 -0.0002079 -0.0002297 -0.0000086 -0.0003067 -0.0001053 0.0001972 0.0000273 -0.0008396 0.0000742 -0.0006828 0.0000101 -0.0007231 -0.0000206 -0.0009205 0.0000432 -0.0004541 0.0000954 -0.0004750 -0.0003412 -0.0005490 0.0000769 -0.0007219 0.0002060 -0.0009594 -0.0000473 -0.0007307 -0.0002236 -0.0004208 -0.0001146 -0.0008162 -0.0000854 -0.0003647 0.0006281 -0.0004140 0.0000373 -0.0005494 -0.0001130 -0.0000961 0.0005460 -0.0005617 0.0000141 -0.0007601 0.0007574 -0.0015726 0.0001179 -0.0010070 0.0001107 -0.0006880 0.0001322 -0.0003536 0.0000230 -0.0005721 0.0001389 -0.0010069 0.0001814 -0.0000343 0.0001513 -0.0014714 0.0001277 -0.0004330 0.0000049 -0.0004162 0.0004928 -0.0009146 0.0000995 -0.0005800 -0.0000912 -0.0005271 0.0002694 -0.0010398 0.0001627 -0.0007028 0.0001298 -0.0006364 0.0001261 -0.0007962 0.0000250 -0.0004801 -0.0000751 -0.0002707 -0.0000400 -0.0005934 0.0000252 -0.0002831 -0.0000293 -0.0007634 -0.0000185 -0.0009726 0.0003690 -0.0006461 0.0000877 -0.0005921 0.0000868 -0.0010649 0.0000463 -0.0005539 0.0000551 -0.0008092 0.0001456 -0.0009841 0.0000242 -0.0008724 0.0001006 -0.0008115 0.0001349 -0.0009392 0.0001580 -0.0014921 0.0000454 -0.0008905 0.0000357 -0.0008678 0.0003415 -0.0011066 -0.0001046 -0.0008332 0.0000916 -0.0010322 0.0000586 -0.0009068 0.0000322 -0.0009786 0.0000157 -0.0008251 -0.0000421 -0.0005813 0.0000066 -0.0004903 0.0000429 -0.0007077 0.0000515 -0.0002771 0.0000663 -0.0008578 0.0006587 -0.0013555 0.0001563 -0.0008738 -0.0004663 -0.0002177 0.0000695 -0.0009299 0.0001268 -0.0008237 0.0001772 -0.0011218
-0.0000467 -0.0010587 -0.0002505 -0.0007267 -0.0002223 -0.0004862 -0.0000252 -0.0004910 0.0000573 -0.0006546 0.0001470 -0.0010921 -0.0000813 -0.0010350 -0.0000347 -0.0005878 -0.0000767 -0.0008872 0.0000409 -0.0008743 -0.0000485 -0.0011326 0.0000454 -0.0010421 -0.0001881 -0.0004872 -0.0001150 -0.0011111 -0.0001262 -0.0008546 -0.0001074 -0.0011793 -0.0000849 -0.0010789 0.0000502 -0.0010974 0.0000774 -0.0003148 -0.0001675 -0.0008685 0.0000948 -0.0006865 -0.0002856 -0.0005632 0.0001907 -0.0006928 -0.0002928 -0.0010750 -0.0000077 -0.0001944 0.0002861 -0.0002359 -0.0000615 -0.0004157 -0.0000093 -0.0003696 -0.0001819 -0.0002390 -0.0000334 -0.0004181 0.0000193 -0.0004524 -0.0001127 -0.0007833 0.0000651 -0.0008592 -0.0000298 -0.0007424 0.0001430 -0.0010651 -0.0002648 -0.0001885 -0.0000238 -0.0002723 -0.0000559 0.0001069 0.0000649 -0.0009474 0.0000844 -0.0007061 0.0000474 -0.0009597 -0.0000496 -0.0010260 0.0000536 -0.0004731 0.0002060 -0.0006022 -0.0000481 -0.0009252 0.0000624 -0.0007254 0.0001197 -0.0010027 -0.0001167 -0.0007416 0.0004366 -0.0009527 -0.0000622 -0.0011280 -0.0001098 -0.0002946 0.0000527 0.0000424 0.0000574 -0.0006278 -0.0001992 -0.0001965 0.0003770 -0.0010086 0.0000343 -0.0007707 0.0008400 -0.0015010 0.0001294 -0.0011545 0.0001208 -0.0007642 0.0001163 -0.0004173 0.0000336 -0.0007230 0.0002118 -0.0011773 0.0002073 -0.0001126 0.0002788 -0.0013856 0.0002351 -0.0003675 0.0000001 -0.0003693 -0.0006941 -0.0006623 0.0001554 -0.0007134 -0.0000998 -0.0003889 -0.0002914 -0.0009114 0.0002007 -0.0008520 0.0001142 -0.0006642 0.0001026 -0.0008937 0.0001024 -0.0005532 -0.0000915 -0.0004066 -0.0000939 -0.0007378 0.0000480 -0.0004057 -0.0000732 -0.0008950 0.0000191 -0.0009719 0.0002840 -0.0005725 0.0000770 -0.0005354 -0.0001772 -0.0009758 0.0000852 -0.0005319 0.0000623 -0.0008567 0.0003311 -0.0011907 0.0000743 -0.0010096 0.0001146 -0.0009650 -0.0000277 -0.0009993 0.0000549 -0.0013008 0.0000415 -0.0008359 0.0000225 -0.0008706 0.0000596 -0.0007082 -0.0002770 -0.0007190 -0.0001899 -0.0007102 0.0000144 -0.0008095 0.0001047 -0.0009754 0.0000247 -0.0009545 -0.0000423 -0.0005643 0.0000120 -0.0004802 0.0000412 -0.0006297 0.0001852 -0.0001956 -0.0000277 -0.0006729 0.0001716 -0.0008970 0.0001760 -0.0008969 0.0000502 -0.0005858 0.0000480 -0.0008240 0.0001488 -0.0008147 0.0003267 -0.0011264
0.0000543 -0.0009984 -0.0001725 -0.0006535 -0.0003238 -0.0003252 -0.0000018 -0.0004049 0.0000650 -0.0005282 0.0001399 -0.0010026 0.0000350 -0.0010406 -0.0000422 -0.0004828 -0.0000953 -0.0008616 0.0000465 -0.0009194 0.0000705 -0.0012366 0.0000614 -0.0010733 -0.0001117 -0.0006752 -0.0001255 -0.0010096 -0.0001238 -0.0008973 -0.0001322 -0.0010725 -0.0001019 -0.0010400 0.0000472 -0.0010712 0.0000802 -0.0003177 -0.0001151 -0.0008471 0.0000614 -0.0006748 -0.0002663 -0.0006250 -0.0002173 -0.0003817 -0.0002891 -0.0010057 -0.0000181 -0.0001081 0.0001200 -0.0000037 0.0000136 -0.0003507 -0.0000006 -0.0003139 -0.0001874 -0.0001739 -0.0000364 -0.0003386 -0.0000013 -0.0003355 -0.0000073 -0.0007973 0.0000669 -0.0009209 -0.0000449 -0.0006660 0.0001557 -0.0010731 -0.0003666 -0.0001138 -0.0001578 -0.0001340 0.0000185 0.0000036 0.0000960 -0.0010278 0.0000955 -0.0007045 0.0001122 -0.0010921 -0.0000152 -0.0011104 0.0000457 -0.0004884 0.0000987 -0.0005470 0.0000522 -0.0010777 0.0000742 -0.0008203 -0.0000629 -0.0009841 -0.0001294 -0.0008715 0.0007115 -0.0012975 0.0004321 -0.0017007 -0.0000864 -0.0003579 0.0002365 -0.0001542 0.0000189 -0.0006781 -0.0002910 -0.0004307 0.0001988 -0.0016110 0.0000825 -0.0010262 0.0009172 -0.0016577 0.0001452 -0.0014458 0.0001411 -0.0011150 0.0001410 -0.0006495 0.0001088 -0.0009893 0.0003163 -0.0015458 0.0002304 -0.0002201 0.0003897 -0.0014603 0.0003322 -0.0004293 0.0000347 -0.0005548 -0.0010075 -0.0009563 0.0001767 -0.0011514 0.0003143 -0.0008766 0.0000270 -0.0018004 0.0002075 -0.0012641 0.0001404 -0.0009973 0.0000461 -0.0012596 0.0001099 -0.0008695 0.0000320 -0.0007078 0.0000050 -0.0012165 0.0000859 -0.0006428 0.0000515 -0.0012658 0.0000278 -0.0011175 0.0001565 -0.0005817 0.0000831 -0.0007079 -0.0000156 -0.0012911 0.0001092 -0.0006589 0.0000644 -0.0010113 0.0002188 -0.0013673 0.0001042 -0.0012544 -0.0000153 -0.0011139 0.0001609 -0.0013586 0.0000083 -0.0014355 0.0000551 -0.0009339 0.0000302 -0.0010487 -0.0001270 -0.0005746 -0.0000629 -0.0009804 -0.0002636 -0.0006879 0.0000204 -0.0008448 0.0000596 -0.0009796 -0.0001810 -0.0009197 -0.0000526 -0.0006494 0.0000063 -0.0005321 0.0000340 -0.0006739 0.0002804 -0.0001791 -0.0000790 -0.0006417 -0.0000368 -0.0008284 0.0001797 -0.0010066 -0.0001495 -0.0005265 0.0000790 -0.0008549 0.0001902 -0.0009272 0.0003839 -0.0012169
0.0002528 -0.0012270 0.0004131 -0.0010390 0.0001682 -0.0007568 -0.0000001 -0.0003787 0.0000701 -0.0004964 0.0001868 -0.0010261 -0.0000022 -0.0010336 -0.0000237 -0.0005116 -0.0001235 -0.0008842 0.0000984 -0.0010785 0.0000126 -0.0013029 0.0000687 -0.0012153 0.0001783 -0.0010933 -0.0001254 -0.0010073 -0.0001506 -0.0009683 -0.0001241 -0.0011014 -0.0000922 -0.0011196 0.0000325 -0.0011718 0.0000902 -0.0003954 -0.0001053 -0.0009020 0.0000738 -0.0007801 -0.0002850 -0.0007025 -0.0003977 -0.0004100 -0.0002824 -0.0009918 -0.0000293 -0.0001580 -0.0000339 0.0001593 -0.0000711 -0.0002325 0.0000227 -0.0003362 -0.0001894 -0.0001743 -0.0000229 -0.0003234 -0.0000132 -0.0002918 0.0003435 -0.0010754 0.0000949 -0.0010668 -0.0000448 -0.0006663 0.0001562 -0.0011489 -0.0002414 -0.0002372 -0.0002165 -0.0000670 0.0000249 -0.0000870 0.0001295 -0.0010075 0.0001000 -0.0006456 0.0001576 -0.0012304 0.0000173 -0.0011653 0.0000433 -0.0004159 0.0000471 -0.0003798 -0.0001440 -0.0009858 0.0001144 -0.0007474 0.0001974 -0.0012107 0.0000445 -0.0010410 0.0003994 -0.0011239 0.0003745 -0.0017626 -0.0001107 -0.0002438 0.0002992 -0.0003199 0.0000319 -0.0006185 -0.0002785 -0.0004659 0.0002029 -0.0015681 0.0001254 -0.0009574 0.0008822 -0.0015826 0.0001918 -0.0014623 0.0001253 -0.0010333 0.0001480 -0.0007099 0.0001277 -0.0011192 0.0003648 -0.0015634 0.0002417 -0.0002969 0.0003839 -0.0014351 0.0003204 -0.0003548 0.0000565 -0.0004651 0.0002000 -0.0014946 0.0001609 -0.0011271 0.0002865 -0.0012938 0.0004590 -0.0020607 0.0001918 -0.0012898 0.0001864 -0.0010300 0.0001367 -0.0014703 0.0000831 -0.0007888 0.0000987 -0.0009626 -0.0000182 -0.0012992 0.0000802 -0.0007041 0.0000972 -0.0014106 0.0000285 -0.0010010 0.0002572 -0.0006051 0.0000730 -0.0006178 0.0003148 -0.0014067 0.0000461 -0.0005430 0.0000666 -0.0009972 0.0001005 -0.0012857 0.0000829 -0.0012873 -0.0001655 -0.0010406 0.0001993 -0.0013488 -0.0000662 -0.0013235 0.0000547 -0.0008645 0.0000473 -0.0010551 -0.0001726 -0.0003976 0.0000097 -0.0009274 0.0000091 -0.0008640 0.0000840 -0.0007985 0.0001396 -0.0010155 -0.0000720 -0.0009081 -0.0000449 -0.0006509 0.0000295 -0.0005138 0.0000581 -0.0005996 0.0005665 -0.0002720 0.0000285 -0.0006435 -0.0002167 -0.0007650 0.0002252 -0.0010384 0.0000982 -0.0007577 0.0001130 -0.0007906 0.0002229 -0.0009393 0.0003250 -0.0010789
0.0003625 -0.0011597 0.0006653 -0.0012646 0.0003203 -0.0008611 0.0000060 -0.0003210 0.0000704 -0.0003745 0.0002097 -0.0009545 -0.0000750 -0.0009270 -0.0000055 -0.0004932 -0.0000865 -0.0009150 0.0001116 -0.0011355 0.0000379 -0.0013652 0.0000787 -0.0012595 0.0000656 -0.0011424 -0.0001177 -0.0009378 -0.0001788 -0.0009242 -0.0001022 -0.0010236 -0.0000679 -0.0011083 0.0000797 -0.0011565 0.0000645 -0.0003908 -0.0002011 -0.0007854 0.0001007 -0.0008426 -0.0003232 -0.0006934 0.0001059 -0.0008819 -0.0002543 -0.0009492 -0.0000625 -0.0002566 0.0000400 0.0000158 -0.0000579 -0.0002256 0.0000431 -0.0004837 -0.0001532 -0.0002877 0.0000011 -0.0004508 -0.0000178 -0.0004742 0.0003061 -0.0012201 0.0001305 -0.0012527 -0.0000141 -0.0008195 0.0001743 -0.0013129 -0.0002518 -0.0002777 -0.0001570 -0.0001877 -0.0001191 -0.0000633 0.0001281 -0.0011191 0.0000971 -0.0006899 0.0001855 -0.0014768 0.0000150 -0.0012647 0.0000496 -0.0004030 0.0001609 -0.0004356 0.0000110 -0.0011464 0.0000371 -0.0006434 0.0006747 -0.0018426 -0.0002759 -0.0007730 -0.0010164 -0.0003806 0.0012605 -0.0026267 -0.0001271 -0.0001571 0.0000691 0.0000787 0.0000500 -0.0005819 -0.0002429 -0.0004782 0.0001669 -0.0015863 0.0001315 -0.0008187 0.0009071 -0.0016096 0.0002915 -0.0015209 0.0001349 -0.0009750 0.0002349 -0.0009024 0.0001357 -0.0012468 0.0002969 -0.0015520 0.0002416 -0.0004109 0.0003775 -0.0013617 0.0002759 -0.0002897 0.0000740 -0.0003968 0.0019371 -0.0027553 0.0001816 -0.0011640 0.0001043 -0.0012462 0.0007331 -0.0022294 0.0002301 -0.0013137 0.0002074 -0.0010109 0.0002960 -0.0016624 0.0000609 -0.0007131 0.0000450 -0.0011157 -0.0001363 -0.0013395 0.0001036 -0.0008156 -0.0000416 -0.0013401 0.0000338 -0.0008376 0.0003396 -0.0006123 0.0000664 -0.0005175 0.0002817 -0.0013593 0.0000319 -0.0004144 0.0000781 -0.0009700 0.0001715 -0.0014135 0.0000781 -0.0013073 -0.0001880 -0.0011146 0.0000217 -0.0012387 -0.0001955 -0.0013850 0.0000515 -0.0007800 0.0000384 -0.0010160 -0.0000980 -0.0002948 -0.0000032 -0.0007990 0.0000767 -0.0008110 0.0000805 -0.0006538 0.0001173 -0.0008644 -0.0001338 -0.0008656 -0.0000262 -0.0006060 0.0000510 -0.0004631 0.0000851 -0.0004334 0.0005247 -0.0001124 0.0001511 -0.0006159 -0.0000275 -0.0008978 0.0001630 -0.0009188 0.0000541 -0.0006891 0.0000909 -0.0006282 0.0002420 -0.0009153 0.0003334 -0.0010037
0.0002325 -0.0007621 0.0003141 -0.0008868 0.0003486 -0.0007815 0.0000141 -0.0002472 0.0000539 -0.0002485 0.0002196 -0.0008196 -0.0000270 -0.0008525 -0.0000411 -0.0003737 -0.0000437 -0.0008830 0.0001178 -0.0011796 0.0002396 -0.0014915 0.0001122 -0.0013086 0.0000281 -0.0012744 -0.0001137 -0.0008070 -0.0001528 -0.0009050 -0.0000869 -0.0008769 -0.0000738 -0.0009954 0.0001149 -0.0011132 0.0000209 -0.0002922 -0.0002457 -0.0006066 0.0000706 -0.0007950 -0.0003227 -0.0005847 0.0003436 -0.0010414 -0.0002383 -0.0008060 -0.0001042 -0.0002704 0.0002355 -0.0002058 -0.0001264 -0.0000337 0.0000565 -0.0004112 -0.0001315 -0.0002249 0.0000062 -0.0003729 -0.0000195 -0.0003693 0.0000801 -0.0012130 0.0001190 -0.0013054 -0.0000163 -0.0007362 0.0002043 -0.0013771 -0.0003122 -0.0001372 -0.0002619 -0.0000722 -0.0001468 -0.0001467 0.0000947 -0.0009539 0.0000756 -0.0005532 0.0001760 -0.0014233 0.0000200 -0.0010942 0.0000365 -0.0002548 0.0000565 -0.0002349 0.0000417 -0.0009503 0.0001104 -0.0005121 0.0002682 -0.0015428 -0.0000903 -0.0008870 -0.0006818 -0.0007136 0.0010918 -0.0025356 -0.0000550 -0.0000581 -0.0002424 0.0006459 0.0000277 -0.0004395 -0.0001936 -0.0003477 0.0002275 -0.0012618 0.0000604 -0.0004958 0.0009214 -0.0013803 0.0002457 -0.0012680 0.0001282 -0.0007977 0.0002120 -0.0008820 0.0001464 -0.0012911 0.0002924 -0.0014356 0.0002046 -0.0004497 0.0004294 -0.0011432 0.0002446 -0.0001713 0.0000683 -0.0002624 0.0022037 -0.0030812 0.0002285 -0.0011111 -0.0000750 -0.0012723 0.0005955 -0.0021191 0.0002378 -0.0012003 0.0002044 -0.0008708 0.0002764 -0.0014908 0.0000197 -0.0005342 0.0000718 -0.0012606 -0.0000561 -0.0015264 0.0001039 -0.0009104 -0.0000043 -0.0014214 0.0000434 -0.0006488 0.0002695 -0.0004381 0.0000448 -0.0004007 0.0000725 -0.0010950 0.0000458 -0.0003000 0.0000664 -0.0008648 0.0001870 -0.0015948 0.0000741 -0.0012352 -0.0002201 -0.0011273 0.0000166 -0.0012073 -0.0001046 -0.0013092 0.0000394 -0.0006384 0.0000425 -0.0009223 0.0000171 -0.0001839 -0.0000422 -0.0005956 -0.0002186 -0.0004286 0.0000236 -0.0004307 0.0000431 -0.0005991 -0.0001877 -0.0007052 -0.0000579 -0.0004593 0.0000143 -0.0003249 0.0001396 -0.0002376 0.0001350 -0.0000890 0.0001497 -0.0004698 -0.0003227 -0.0005580 0.0002246 -0.0008836 -0.0000892 -0.0004561 0.0000216 -0.0004202 0.0002550 -0.0008556 0.0003369 -0.0010235
0.0001141 -0.0004995 0.0000693 -0.0004930 0.0001044 -0.0003143 0.0000114 -0.0001410 0.0000440 -0.0001259 0.0002129 -0.0006478 -0.0000268 -0.0007149 -0.0000695 -0.0002540 -0.0000739 -0.0007391 0.0000798 -0.0011580 0.0001609 -0.0013763 0.0001258 -0.0013011 0.0003289 -0.0015552 -0.0000988 -0.0006458 -0.0000830 -0.0008532 -0.0000783 -0.0006708 -0.0000482 -0.0008683 0.0001369 -0.0010537 -0.0000094 -0.0001478 -0.0002177 -0.0004258 0.0000674 -0.0007118 -0.0003042 -0.0004453 -0.0000476 -0.0005151 -0.0002421 -0.0006843 -0.0001353 -0.0002323 0.0001327 -0.0001454 -0.0001976 0.0001462 0.0000850 -0.0003325 -0.0001066 -0.0001423 0.0000070 -0.0002847 -0.0000297 -0.0002365 -0.0000160 -0.0010938 0.0001105 -0.0013424 -0.0000267 -0.0006100 0.0001960 -0.0013028 -0.0002871 -0.0000053 -0.0002020 -0.0000043 -0.0001156 -0.0000930 0.0000348 -0.0007253 0.0000693 -0.0004018 0.0002032 -0.0012724 0.0000369 -0.0008989 0.0000452 -0.0000974 -0.0000859 0.0000175 0.0000093 -0.0007117 0.0001769 -0.0003239 0.0004280 -0.0014489 0.0001965 -0.0010639 -0.0001516 -0.0009564 0.0001501 -0.0014709 -0.0000645 0.0000810 -0.0006782 0.0008985 0.0000267 -0.0002451 -0.0000929 -0.0001009 0.0004589 -0.0003832 0.0000546 -0.0002844 0.0008185 -0.0011892 0.0002535 -0.0010756 0.0001025 -0.0005469 0.0001278 -0.0007312 0.0001470 -0.0012869 0.0002522 -0.0011928 0.0001739 -0.0004085 0.0004409 -0.0009916 0.0001649 -0.0001660 0.0000495 -0.0001253 0.0008256 -0.0019938 0.0002484 -0.0009751 -0.0001962 -0.0012122 -0.0001576 -0.0012792 0.0001947 -0.0009646 0.0001718 -0.0006392 0.0002263 -0.0013253 0.0000371 -0.0003748 0.0001972 -0.0014425 0.0000699 -0.0016174 0.0000988 -0.0009676 0.0001301 -0.0015262 0.0000515 -0.0004246 0.0002426 -0.0002116 0.0000150 -0.0002324 -0.0000135 -0.0006710 -0.0000000 -0.0000728 0.0000544 -0.0006806 0.0003092 -0.0016582 0.0001113 -0.0011176 -0.0000174 -0.0011969 -0.0000612 -0.0009894 0.0000642 -0.0011950 0.0000238 -0.0004302 0.0000585 -0.0007229 -0.0000899 0.0001017 -0.0001958 -0.0002260 -0.0002257 -0.0001641 0.0000156 -0.0001787 0.0000337 -0.0003561 0.0000129 -0.0005083 -0.0001019 -0.0002289 -0.0000003 -0.0001382 0.0001747 -0.0000317 -0.0001999 0.0000689 0.0000957 -0.0002817 -0.0002341 -0.0003690 0.0002991 -0.0007873 0.0002824 -0.0005804 0.0000479 -0.0002559 0.0002467 -0.0007244 0.0002958 -0.0009143
0.0000804 -0.0001808 -0.0001049 -0.0001782 -0.0002237 0.0002430 0.0000103 -0.0000272 0.0000429 0.0000034 0.0001648 -0.0004255 0.0000536 -0.0005668 -0.0000675 -0.0001305 -0.0000683 -0.0005739 0.0000672 -0.0010834 0.0000906 -0.0011393 0.0000988 -0.0011896 0.0002619 -0.0015876 -0.0000827 -0.0004566 -0.0000405 -0.0006273 -0.0000734 -0.0004105 -0.0000238 -0.0006357 0.0001065 -0.0008216 -0.0000441 0.0000709 -0.0002306 -0.0001679 0.0000685 -0.0005228 -0.0003111 -0.0002561 -0.0001330 -0.0000408 -0.0002619 -0.0005274 -0.0001598 -0.0001409 0.0000351 -0.0000189 -0.0001522 0.0002971 0.0000805 -0.0002047 -0.0000734 -0.0000183 -0.0000036 -0.0001719 -0.0000450 -0.0001020 -0.0000286 -0.0009528 0.0001219 -0.0013578 -0.0000262 -0.0004402 0.0001357 -0.0010221 -0.0002889 0.0001835 -0.0000946 0.0000889 -0.0000924 0.0001562 0.0000181 -0.0005232 0.0000508 -0.0002372 0.0002027 -0.0010319 0.0000217 -0.0006913 0.0000278 0.0000783 0.0000750 0.0000056 0.0001768 -0.0005772 0.0001091 -0.0000670 0.0007855 -0.0014833 -0.0003978 -0.0003945 -0.0000935 -0.0010088 0.0007938 -0.0015267 -0.0000675 0.0001986 -0.0001743 0.0006308 0.0000211 -0.0000105 -0.0000344 0.0001046 0.0005813 0.0001744 0.0000917 -0.0001469 0.0007008 -0.0009188 0.0001621 -0.0007909 0.0000825 -0.0003228 0.0001231 -0.0006108 0.0001570 -0.0012203 0.0000506 -0.0008008 0.0001595 -0.0002920 0.0004486 -0.0007716 0.0001114 -0.0000945 0.0000319 0.0000162 -0.0004940 -0.0004714 0.0002311 -0.0007958 0.0003899 -0.0014272 -0.0002839 -0.0010499 0.0001839 -0.0007507 0.0001392 -0.0004062 0.0002079 -0.0011305 0.0000817 -0.0002636 0.0001817 -0.0014036 -0.0000789 -0.0013680 0.0000908 -0.0009514 0.0000392 -0.0012532 -0.0000123 -0.0001741 0.0002054 0.0000020 -0.0000034 -0.0000699 0.0000012 -0.0004148 -0.0000270 0.0001172 0.0000383 -0.0004570 -0.0000181 -0.0012392 0.0001264 -0.0009398 -0.0000214 -0.0010308 -0.0001287 -0.0007128 0.0002295 -0.0012379 0.0000185 -0.0002719 0.0000285 -0.0004895 -0.0000411 0.0002816 -0.0003834 0.0001090 -0.0001812 0.0000771 -0.0000276 0.0000524 0.0000616 -0.0001873 0.0001555 -0.0003209 -0.0000923 -0.0000329 -0.0000025 0.0000019 0.0001593 0.0001577 -0.0001717 0.0001792 0.0001242 -0.0001657 0.0000569 -0.0004437 0.0001357 -0.0004864 0.0000731 -0.0002646 0.0000226 -0.0001064 0.0002401 -0.0006236 0.0002976 -0.0008098
-0.0000839 0.0001483 -0.0005925 0.0003519 0.0000055 0.0002928 0.0000113 0.0000421 0.0000385 0.0000600 0.0001352 -0.0002745 0.0001046 -0.0004111 -0.0000552 -0.0000560 -0.0000769 -0.0004205 0.0001081 -0.0010503 0.0001488 -0.0009725 0.0001138 -0.0011456 -0.0000948 -0.0014209 -0.0000739 -0.0003906 0.0000240 -0.0005291 -0.0000788 -0.0002899 -0.0000055 -0.0004987 0.0000936 -0.0007139 -0.0000569 0.0002282 -0.0003095 -0.0000575 0.0000724 -0.0004040 -0.0003089 -0.0001267 0.0003097 -0.0002345 -0.0002686 -0.0005413 -0.0001391 -0.0000586 0.0001259 -0.0000258 -0.0001075 0.0002969 0.0000654 -0.0001453 -0.0000530 0.0000477 -0.0000109 -0.0001443 -0.0000404 -0.0000744 0.0000554 -0.0009750 0.0001390 -0.0013303 -0.0000253 -0.0003313 0.0001001 -0.0008845 -0.0001688 0.0001935 -0.0001716 0.0002058 -0.0000847 0.0001717 0.0000369 -0.0004098 0.0000308 -0.0001565 0.0001631 -0.0007703 0.0000109 -0.0005057 0.0000126 0.0001990 0.0002881 -0.0000366 0.0000256 -0.0002079 0.0000358 0.0001700 0.0005225 -0.0010868 -0.0003376 -0.0001435 0.0004623 -0.0014438 0.0010447 -0.0017789 -0.0000441 0.0002845 0.0001845 0.0003727 0.0000166 0.0001584 -0.0000803 0.0001527 0.0005321 0.0003936 -0.0000320 0.0000058 0.0007414 -0.0002874 0.0000368 -0.0005662 0.0000575 -0.0001949 0.0000966 -0.0003858 0.0001688 -0.0011151 0.0000342 -0.0005546 0.0001685 -0.0001359 0.0005010 -0.0004581 0.0001478 0.0001252 0.0000257 0.0001452 0.0001104 -0.0007421 0.0001839 -0.0005785 0.0004591 -0.0010757 -0.0002304 -0.0009373 0.0001584 -0.0005295 0.0001450 -0.0001963 0.0001973 -0.0009746 0.0000465 -0.0000902 0.0000973 -0.0012474 -0.0001763 -0.0011651 0.0001020 -0.0009394 0.0000172 -0.0010090 -0.0000556 -0.0000208 0.0001234 0.0001309 -0.0000089 0.0000742 0.0000159 -0.0002349 -0.0000207 0.0002864 0.0000093 -0.0002104 -0.0003325 -0.0008876 0.0001137 -0.0006911 -0.0001582 -0.0007304 -0.0002715 -0.0003786 0.0003112 -0.0011352 0.0000247 -0.0000922 0.0000035 -0.0002394 -0.0002658 0.0006528 -0.0004392 0.0003178 -0.0002441 0.0003721 -0.0001056 0.0002883 0.0000307 0.0000990 -0.0002258 0.0001634 -0.0000519 0.0001449 -0.0000002 0.0001434 0.0001390 0.0003321 0.0000620 -0.0000489 0.0001402 -0.0000475 -0.0001458 -0.0001556 -0.0000368 -0.0000913 -0.0002769 0.0001710 -0.0000494 0.0001144 0.0002601 -0.0005216 0.0003325 -0.0007193
-0.0000462 0.0002578 -0.0004636 0.0004470 -0.0001113 0.0005450 0.0000103 0.0000841 0.0000349 0.0000369 0.0001103 -0.0001115 0.0000268 -0.0001254 -0.0000289 0.0000242 -0.0000452 -0.0002704 0.0000765 -0.0008396 0.0001810 -0.0007617 0.0001454 -0.0009717 -0.0000837 -0.0012856 -0.0000543 -0.0002968 0.0000589 -0.0003750 -0.0000907 -0.0001687 -0.0000021 -0.0003170 0.0000988 -0.0004652 -0.0000631 0.0004284 -0.0003500 0.0000918 0.0000722 -0.0001467 -0.0002809 -0.0000140 0.0004861 -0.0001897 -0.0002859 -0.0004685 -0.0001247 0.0000458 0.0000954 0.0000028 -0.0001076 0.0002327 0.0000588 -0.0000379 -0.0000428 0.0000913 -0.0000219 -0.0000247 -0.0000274 0.0000164 -0.0000816 -0.0006138 0.0001004 -0.0011335 -0.0000165 -0.0001412 0.0001049 -0.0006248 -0.0001182 0.0001682 -0.0001913 0.0002766 -0.0000944 0.0002736 0.0000435 -0.0002724 0.0000205 -0.0000831 0.0000957 -0.0003750 0.0000376 -0.0003401 -0.0000019 0.0003255 0.0000889 0.0001266 -0.0000447 0.0001078 0.0000115 0.0003684 0.0004073 -0.0005989 0.0001833 -0.0002890 0.0006974 -0.0012587 0.0015486 -0.0018331 -0.0000213 0.0003773 0.0001020 0.0005789 0.0000341 0.0002978 -0.0001034 0.0001759 0.0005401 0.0009697 -0.0001296 0.0000587 0.0007131 0.0000863 0.0000419 -0.0004839 0.0000534 -0.0001262 0.0000865 -0.0000941 0.0001411 -0.0008811 0.0001829 -0.0004506 0.0001927 0.0000553 0.0004549 -0.0003508 0.0001135 0.0002088 -0.0000145 0.0001791 -0.0003024 -0.0001252 0.0001528 -0.0003821 -0.0007896 0.0006774 0.0002496 -0.0012684 0.0001362 -0.0003063 0.0001293 0.0000192 0.0002104 -0.0008292 0.0000154 0.0000782 0.0001010 -0.0010932 0.0001209 -0.0012257 0.0001240 -0.0008553 0.0000197 -0.0008530 -0.0000954 0.0000940 0.0000359 0.0002593 -0.0000200 0.0002278 -0.0000151 0.0000402 -0.0000409 0.0004752 0.0000040 0.0000158 -0.0002066 -0.0008744 0.0001246 -0.0004322 -0.0000155 -0.0005391 -0.0004076 -0.0001232 0.0002653 -0.0009217 0.0000354 0.0001048 0.0000339 -0.0000215 -0.0004686 0.0009457 -0.0000739 0.0002059 -0.0001205 0.0004468 -0.0001101 0.0004375 -0.0000912 0.0004246 -0.0002962 0.0004888 -0.0000669 0.0003154 0.0000010 0.0002508 0.0001742 0.0003569 0.0001060 -0.0000098 0.0001106 0.0000285 0.0001754 -0.0001544 0.0001260 -0.0001390 0.0000192 0.0000494 -0.0000289 0.0000496 0.0002774 -0.0005825 0.0003808 -0.0009275
0.0001053 0.0001180 -0.0000642 0.0002869 -0.0002580 0.0006273 0.0000154 -0.0000593 0.0000309 -0.0001217 0.0000692 -0.0002051 0.0000397 -0.0000886 0.0000059 -0.0000518 0.0000434 -0.0003020 0.0000583 -0.0007750 0.0001011 -0.0005834 0.0001143 -0.0009388 0.0000984 -0.0013925 -0.0000303 -0.0003367 0.0000494 -0.0002462 -0.0001089 -0.0001793 -0.0000092 -0.0001960 0.0001105 -0.0003291 -0.0000861 0.0004191 -0.0003077 -0.0000131 0.0000762 -0.0000002 -0.0002637 -0.0000591 0.0004329 -0.0000545 -0.0003046 -0.0004759 -0.0001280 -0.0000393 -0.0002251 0.0001163 -0.0000774 0.0000717 0.0000489 -0.0000271 -0.0000528 0.0000719 -0.0000320 0.0000032 -0.0000031 0.0000200 -0.0000092 -0.0004548 0.0001016 -0.0009823 -0.0000015 -0.0000450 0.0001312 -0.0003633 -0.0000940 0.0000824 -0.0000109 0.0000767 -0.0000670 0.0003662 0.0000732 -0.0002419 0.0000142 -0.0000645 0.0000823 -0.0001004 0.0000566 -0.0002634 -0.0000028 0.0003338 -0.0000415 0.0001260 0.0000564 0.0001046 -0.0000369 0.0004313 0.0007824 -0.0004985 0.0002049 -0.0001768 0.0006596 -0.0011224 0.0010495 -0.0009970 -0.0000442 0.0003698 0.0005048 0.0001962 0.0000511 0.0003414 -0.0001095 0.0001163 0.0005558 0.0011833 -0.0000764 -0.0000484 0.0006673 -0.0000079 0.0001079 -0.0004702 0.0000736 -0.0001328 0.0000973 0.0001026 0.0001204 -0.0006599 0.0000066 -0.0000460 0.0001837 0.0002406 0.0003760 -0.0004083 0.0000543 0.0001162 -0.0000634 0.0001407 0.0003436 0.0001572 0.0001159 -0.0002568 -0.0006384 0.0009155 0.0006143 -0.0014744 0.0001779 -0.0002382 0.0000882 0.0001415 0.0001728 -0.0006511 0.0000537 0.0001077 0.0001356 -0.0009348 0.0002138 -0.0012487 0.0001614 -0.0007605 0.0000011 -0.0006984 -0.0001233 0.0001538 -0.0000645 0.0003393 -0.0000321 0.0002848 -0.0001876 0.0002735 -0.0000295 0.0005134 0.0000157 0.0001640 0.0002039 -0.0011468 0.0001169 -0.0001984 0.0000132 -0.0002710 -0.0002122 -0.0001337 0.0003645 -0.0008934 0.0000407 0.0002017 0.0000300 0.0001641 -0.0001217 0.0007184 0.0000861 0.0001474 -0.0002271 0.0005433 -0.0001197 0.0004804 -0.0000901 0.0004542 0.0000607 0.0003305 -0.0000690 0.0004121 -0.0000354 0.0003403 0.0001814 0.0003380 0.0003095 0.0000079 0.0000935 0.0000545 0.0002273 0.0000748 0.0002666 -0.0002058 0.0005246 -0.0001486 -0.0000551 0.0001264 0.0002530 -0.0004962 0.0003922 -0.0008524
0.0000937 0.0001450 0.0003631 0.0002145 0.0000798 0.0001955 0.0000022 -0.0001216 0.0000310 -0.0002307 -0.0000083 -0.0001766 0.0000571 -0.0000091 -0.0000119 -0.0000960 0.0000911 -0.0003327 0.0000313 -0.0005226 -0.0000119 -0.0002888 0.0000493 -0.0006243 0.0000675 -0.0012360 -0.0000280 -0.0003392 0.0000278 -0.0001431 -0.0001219 -0.0001736 -0.0000188 -0.0001653 0.0000756 -0.0002143 -0.0001245 0.0003798 -0.0003456 -0.0000669 0.0000780 0.0001176 -0.0002734 -0.0001246 0.0001092 0.0001670 -0.0003302 -0.0004595 -0.0001401 -0.0001118 -0.0001133 -0.0000286 -0.0000500 -0.0000247 0.0000339 -0.0000244 -0.0000558 0.0000575 -0.0000257 -0.0000126 0.0000017 0.0000079 0.0000800 -0.0002102 0.0000765 -0.0007316 -0.0000120 0.0000766 0.0000717 -0.0000158 -0.0000405 0.0001080 -0.0000442 0.0000699 -0.0000313 0.0003832 0.0000860 -0.0002064 0.0000172 -0.0000528 0.0001867 0.0000459 0.0000308 -0.0001486 0.0000129 0.0002850 -0.0000591 0.0002012 -0.0000932 0.0003347 -0.0000160 0.0004086 0.0005540 -0.0000593 -0.0001247 0.0002144 -0.0000390 -0.0003757 0.0001132 -0.0000150 -0.0000399 0.0002687 0.0006564 -0.0002713 0.0000358 0.0003400 -0.0001365 0.0000773 0.0004899 0.0012811 -0.0000243 -0.0001422 0.0006862 0.0000130 0.0001104 -0.0004095 0.0000754 -0.0001204 0.0001192 0.0002498 0.0001211 -0.0004507 -0.0001229 0.0002010 0.0001517 0.0003691 0.0003854 -0.0003505 0.0000293 0.0001605 -0.0000734 0.0001601 0.0003409 0.0004353 0.0000938 -0.0001167 -0.0004287 0.0007912 0.0001291 -0.0008004 0.0001260 -0.0001172 0.0000862 0.0001945 0.0001342 -0.0004177 0.0000377 0.0001721 0.0000779 -0.0006690 0.0000135 -0.0009301 0.0001898 -0.0006013 -0.0000657 -0.0004213 -0.0001144 0.0001720 -0.0001039 0.0003817 -0.0000274 0.0003030 -0.0000075 0.0003245 -0.0000087 0.0005058 0.0000325 0.0002766 0.0002230 -0.0009443 0.0001005 0.0000189 0.0001711 -0.0001929 0.0001686 -0.0002823 0.0000739 -0.0005453 0.0000434 0.0002554 0.0000169 0.0003044 0.0002873 0.0002427 0.0000432 0.0002597 -0.0003262 0.0005681 -0.0001719 0.0005087 -0.0000723 0.0003364 -0.0000766 0.0004378 -0.0000767 0.0004250 -0.0000234 0.0003034 0.0001373 0.0002478 0.0003301 -0.0000704 0.0000998 -0.0001292 0.0002485 0.0000480 0.0002265 -0.0001989 0.0002771 0.0000739 -0.0000830 0.0000601 0.0002471 -0.0005205 0.0003764 -0.0009182
-0.0000988 0.0001877 0.0005750 0.0000608 0.0005703 -0.0004059 -0.0000047 -0.0002361 0.0000307 -0.0003609 -0.0000459 -0.0002045 0.0001286 -0.0000582 0.0000020 -0.0002055 0.0001139 -0.0003102 0.0000418 -0.0002982 -0.0001006 -0.0000414 0.0000707 -0.0003960 0.0001698 -0.0010757 -0.0000280 -0.0003805 0.0000459 -0.0001222 -0.0001172 -0.0002323 -0.0000086 -0.0002232 0.0000619 -0.0001788 -0.0001425 0.0002776 -0.0003742 -0.0001786 0.0000589 0.0001788 -0.0002645 -0.0002493 -0.0002435 0.0004151 -0.0003437 -0.0004576 -0.0001299 -0.0002099 0.0000790 -0.0002281 -0.0000061 -0.0001363 0.0000327 -0.0000593 -0.0000530 0.0000080 0.0000081 -0.0000907 0.0000096 -0.0000394 -0.0001155 0.0001697 0.0000496 -0.0004670 0.0000148 0.0001177 0.0001129 0.0001957 -0.0001090 0.0001538 -0.0001527 0.0000686 -0.0000030 0.0003692 0.0001271 -0.0001922 0.0000285 -0.0000655 0.0002908 0.0001345 -0.0000094 -0.0000570 0.0000013 0.0002263 -0.0000301 0.0000761 0.0000687 0.0002204 0.0000066 0.0002933 0.0002646 0.0003099 -0.0001587 0.0004271 0.0000197 -0.0001086 -0.0002413 0.0003348 -0.0000382 0.0001524 0.0004434 -0.0001272 0.0000365 0.0002715 -0.0001724 0.0000272 0.0003983 0.0012325 -0.0000709 -0.0001901 0.0006698 0.0001729 0.0001123 -0.0003906 0.0000918 -0.0001492 0.0001233 0.0003965 0.0000910 -0.0002259 -0.0001107 0.0002661 0.0001390 0.0004322 0.0004226 -0.0002627 0.0000578 0.0002061 -0.0000805 0.0001478 -0.0004786 0.0006259 0.0000634 -0.0000107 -0.0005642 0.0005741 0.0001712 -0.0004446 0.0001126 -0.0000855 0.0000874 0.0002067 0.0002018 -0.0002654 -0.0000066 0.0002222 -0.0000012 -0.0003613 0.0000909 -0.0007048 0.0001631 -0.0003771 -0.0000584 -0.0002785 -0.0001209 0.0001727 -0.0000898 0.0003697 -0.0000354 0.0003203 0.0000109 0.0004681 -0.0000147 0.0004876 0.0000252 0.0003564 0.0002332 -0.0006660 0.0000818 0.0002217 0.0002257 -0.0000142 0.0001367 -0.0001618 -0.0000166 -0.0003117 0.0000446 0.0003021 0.0000338 0.0003634 0.0001058 0.0003487 0.0000912 0.0002822 -0.0002747 0.0004551 -0.0001997 0.0005045 -0.0001842 0.0004338 -0.0001444 0.0005529 -0.0000933 0.0004654 -0.0000168 0.0002975 0.0001180 0.0002089 -0.0000291 0.0002597 -0.0000388 -0.0000230 0.0000549 0.0002034 0.0002417 -0.0001061 -0.0003134 0.0005064 -0.0000630 0.0000543 0.0002349 -0.0004924 0.0002974 -0.0007750
-0.0001053 0.0001231 0.0005980 -0.0001650 0.0007230 -0.0004533 0.0000080 -0.0002495 0.0000408 -0.0003646 -0.0000438 -0.0002331 0.0001391 0.0000143 0.0000189 -0.0002652 0.0000877 -0.0002995 0.0000278 -0.0000685 -0.0001701 0.0001397 0.0000494 -0.0001386 0.0001211 -0.0007736 -0.0000153 -0.0003850 0.0000732 -0.0000944 -0.0001208 -0.0002098 -0.0000313 -0.0002327 0.0000288 -0.0001074 -0.0001544 0.0002000 -0.0003665 -0.0002714 0.0000424 0.0002241 -0.0002391 -0.0003488 0.0002724 0.0000108 -0.0003641 -0.0003951 -0.0001016 -0.0002369 -0.0000677 -0.0001083 -0.0001075 -0.0000805 0.0000226 -0.0000642 -0.0000694 0.0000007 0.0000218 -0.0001289 0.0000124 -0.0000450 -0.0001055 0.0002926 0.0000362 -0.0002199 0.0000403 0.0001435 0.0001884 0.0003291 -0.0001738 0.0001880 -0.0001096 0.0000242 0.0000346 0.0003032 0.0001353 -0.0001784 0.0000344 -0.0000664 0.0002343 0.0002840 0.0000368 -0.0000759 -0.0000011 0.0001645 0.0000475 -0.0000723 0.0000936 0.0001749 -0.0000837 0.0002802 0.0005092 0.0002336 0.0002464 0.0002731 0.0002727 -0.0001056 0.0001247 0.0000750 -0.0001223 0.0001053 0.0002299 0.0001869 0.0000551 0.0001831 -0.0001768 -0.0000222 0.0003592 0.0011447 -0.0000950 -0.0002411 0.0006173 0.0003247 0.0002005 -0.0004315 0.0000971 -0.0001543 0.0001085 0.0005053 0.0000792 -0.0000508 -0.0000917 0.0003389 0.0001131 0.0004596 0.0004135 -0.0001694 0.0000905 0.0001766 -0.0001079 0.0001332 0.0001740 0.0000433 0.0000814 0.0000304 -0.0002494 0.0002512 0.0005349 -0.0003161 0.0001391 -0.0000906 0.0000475 0.0002106 0.0001469 -0.0001235 -0.0000104 0.0002317 0.0000121 -0.0001727 0.0002175 -0.0005573 0.0001364 -0.0001991 0.0001316 -0.0002135 -0.0001200 0.0001434 -0.0001066 0.0003797 -0.0000282 0.0003094 -0.0002086 0.0005456 -0.0000239 0.0004160 0.0000153 0.0003795 0.0004639 -0.0006922 0.0000939 0.0003097 0.0000577 0.0002476 -0.0002615 0.0003090 0.0002498 -0.0005857 0.0000398 0.0001035 0.0000314 0.0003068 -0.0001341 0.0003186 0.0001150 0.0001850 -0.0001943 0.0002055 -0.0001566 0.0002908 -0.0001266 0.0002727 -0.0000630 0.0004798 -0.0000885 0.0003954 -0.0000415 0.0002643 0.0001299 0.0000650 0.0000507 0.0001475 -0.0000666 -0.0000797 -0.0004860 0.0005399 0.0001321 -0.0000398 -0.0005157 0.0005949 -0.0000688 0.0000080 0.0002088 -0.0004659 0.0002383 -0.0006671
0.0000379 0.0000258 0.0006258 -0.0003107 0.0002906 -0.0001966 0.0000149 -0.0002411 0.0000621 -0.0003384 -0.0000418 -0.0002527 0.0001687 0.0000335 0.0000498 -0.0002914 0.0001096 -0.0003092 0.0000307 0.0000928 -0.0000369 0.0000739 0.0000209 0.0000619 0.0000847 -0.0005022 0.0000048 -0.0003861 0.0001178 -0.0001269 -0.0001146 -0.0001894 -0.0000362 -0.0002885 0.0000179 -0.0001446 -0.0001682 0.0000967 -0.0003551 -0.0003780 0.0000479 0.0002179 -0.0002205 -0.0004696 0.0006523 -0.0003721 -0.0003720 -0.0003280 -0.0000965 -0.0002163 -0.0000054 -0.0001508 -0.0001873 0.0000697 0.0000041 -0.0000494 -0.0000927 0.0000363 0.0000277 -0.0001770 0.0000066 -0.0000299 -0.0001221 0.0004751 0.0000301 0.0000237 0.0000259 0.0001856 0.0001514 0.0005201 -0.0001555 0.0001903 -0.0001104 0.0000705 0.0000133 0.0003579 0.0001258 -0.0001767 0.0000366 -0.0000680 0.0001715 0.0003458 0.0000568 -0.0001488 -0.0000308 0.0001071 -0.0001149 0.0000335 0.0000062 0.0001739 -0.0000944 0.0001914 0.0005601 0.0003324 0.0001355 0.0002414 -0.0000257 0.0001877 0.0011126 -0.0003843 -0.0000872 -0.0000344 0.0001549 0.0001447 0.0000555 0.0000698 -0.0001761 -0.0000251 0.0002748 0.0011945 0.0000306 -0.0003767 0.0005944 0.0004216 0.0001950 -0.0004137 0.0000840 -0.0001388 0.0000689 0.0005724 0.0000853 0.0000836 0.0000297 0.0002921 0.0000987 0.0004642 0.0003724 -0.0000113 0.0001068 0.0001552 -0.0001111 0.0001023 0.0002194 0.0001144 0.0001495 0.0000548 -0.0007328 0.0010563 -0.0001579 0.0004017 0.0001103 -0.0000569 0.0000815 0.0001426 0.0001231 0.0000173 0.0000364 0.0001939 -0.0001266 0.0001797 0.0001472 -0.0002051 0.0001265 0.0000118 0.0000395 -0.0000198 -0.0001035 0.0000965 -0.0001728 0.0004523 -0.0000205 0.0003053 -0.0001267 0.0004017 -0.0000430 0.0003724 0.0000298 0.0003629 0.0002383 -0.0002960 0.0001056 0.0003964 0.0000269 0.0003511 -0.0001440 0.0003346 0.0001056 -0.0003037 0.0000522 0.0001084 0.0000202 0.0003431 -0.0000821 0.0001531 0.0001150 0.0002738 -0.0003710 0.0003457 -0.0001420 0.0002324 0.0000288 0.0001325 0.0001136 0.0003908 -0.0000903 0.0003727 -0.0000201 0.0002206 0.0001156 -0.0000027 0.0001980 -0.0001947 0.0001083 -0.0002078 -0.0003543 0.0004558 0.0000203 0.0000779 -0.0003879 0.0005169 -0.0000723 0.0000211 0.0001871 -0.0003896 0.0002192 -0.0005077
0.0000088 0.0000343 0.0008665 -0.0004716 -0.0000731 -0.0001531 0.0000098 -0.0001522 0.0000753 -0.0002062 -0.0000431 -0.0001865 0.0001625 0.0000504 0.0000590 -0.0002307 0.0001090 -0.0002678 0.0000034 0.0002534 -0.0000200 0.0001464 0.0000086 0.0002244 0.0001167 -0.0002940 0.0000126 -0.0002951 0.0001219 -0.0000983 -0.0001065 -0.0000798 -0.0000244 -0.0003018 0.0000253 -0.0001368 -0.0001786 0.0000634 -0.0003286 -0.0003723 0.0000481 0.0002316 -0.0001796 -0.0005568 0.0002918 0.0000145 -0.0003683 -0.0002683 -0.0000910 -0.0001637 0.0000290 -0.0001746 -0.0002052 0.0002491 -0.0000141 -0.0000116 -0.0001048 0.0000943 0.0000322 -0.0002219 -0.0000141 0.0000016 0.0000057 0.0005520 0.0000190 0.0002380 0.0000244 0.0002068 0.0001230 0.0006343 -0.0001551 0.0002872 -0.0002770 0.0001856 -0.0000209 0.0004609 0.0001481 -0.0002032 0.0000391 -0.0000539 0.0002108 0.0003388 0.0000525 -0.0001704 -0.0000402 0.0000720 -0.0002010 0.0001092 0.0000869 0.0000518 -0.0000639 0.0000825 0.0003093 0.0005186 -0.0000267 0.0003401 0.0003973 0.0000085 0.0002077 0.0004448 -0.0000783 -0.0000904 0.0001630 0.0000474 0.0000051 0.0000165 -0.0001529 -0.0000208 0.0002165 0.0012566 0.0000365 -0.0004294 0.0005485 0.0004782 0.0001318 -0.0003896 0.0001097 -0.0001687 0.0000498 0.0005874 0.0000538 0.0002322 0.0001078 0.0003437 0.0000880 0.0004572 0.0003264 -0.0000102 0.0000993 0.0000087 -0.0000999 -0.0000938 -0.0006966 0.0007857 0.0001523 -0.0001673 -0.0009739 0.0010894 -0.0002847 0.0005818 0.0001650 -0.0003651 0.0001355 -0.0001233 0.0001247 -0.0001394 0.0000887 -0.0001254 -0.0001842 0.0003982 0.0000292 -0.0000615 0.0001170 0.0001033 -0.0000963 0.0000733 -0.0000812 -0.0002328 -0.0001061 0.0002340 0.0000153 -0.0000816 0.0000769 -0.0000599 -0.0000041 0.0000872 0.0000403 0.0002200 -0.0000910 -0.0001000 0.0001054 0.0003404 -0.0000281 0.0003413 -0.0001158 0.0001284 0.0000246 -0.0002605 0.0000686 -0.0000873 0.0000192 0.0001868 0.0000269 -0.0002550 0.0000105 0.0001377 -0.0004912 0.0003137 -0.0001276 0.0000549 -0.0000513 0.0000376 0.0001176 0.0002273 -0.0000602 0.0002327 0.0000112 0.0001257 0.0000833 -0.0001451 -0.0001028 -0.0000743 0.0001336 -0.0002667 -0.0002682 0.0003866 -0.0001558 0.0001636 -0.0004397 0.0004029 -0.0000749 -0.0000538 0.0001952 -0.0004209 0.0001836 -0.0004566
-0.0001500 0.0000505 0.0006380 -0.0003088 0.0002338 -0.0004565 0.0000268 -0.0001276 0.0000878 -0.0001420 -0.0000191 -0.0001814 0.0000893 0.0000779 0.0000764 -0.0001749 0.0001483 -0.0002581 0.0000048 0.0003307 0.0001100 0.0000389 -0.0000189 0.0003084 -0.0000458 0.0000154 0.0000209 -0.0002603 0.0000709 -0.0000900 -0.0000965 -0.0000273 -0.0000349 -0.0003598 0.0000643 -0.0002566 -0.0001796 -0.0000265 -0.0002234 -0.0005251 0.0000428 0.0001616 -0.0001641 -0.0006531 0.0003411 -0.0001170 -0.0003573 -0.0002674 -0.0000769 -0.0002017 0.0001325 -0.0002326 -0.0002102 0.0003455 -0.0000172 -0.0000236 -0.0000951 0.0000720 0.0000510 -0.0003067 -0.0000210 -0.0000161 0.0000904 0.0005259 0.0000081 0.0003830 0.0000375 0.0001290 0.0000919 0.0005947 -0.0001171 0.0002696 -0.0003646 0.0002448 -0.0000364 0.0003897 0.0001634 -0.0002551 0.0000507 -0.0000836 0.0002274 0.0002322 0.0000669 -0.0002325 -0.0000180 0.0000214 -0.0003081 0.0001495 0.0000575 -0.0000074 -0.0000474 -0.0000099 0.0000122 0.0006759 0.0000982 0.0001981 0.0010625 -0.0004569 0.0005050 -0.0000205 -0.0001540 -0.0000735 0.0003345 0.0000139 -0.0000196 -0.0000785 -0.0001363 -0.0000655 0.0001708 0.0013029 0.0000401 -0.0004040 0.0004598 0.0004591 0.0001582 -0.0003761 0.0001348 -0.0001345 0.0000363 0.0005389 0.0000137 0.0003477 0.0001483 0.0003432 0.0000348 0.0004165 0.0002995 0.0000120 0.0000779 0.0000001 -0.0001082 -0.0000650 -0.0011044 0.0013259 0.0002144 -0.0002049 0.0009563 -0.0006236 0.0000210 0.0003703 0.0001460 -0.0003419 0.0001223 -0.0001489 0.0000555 0.0000034 0.0001124 -0.0001504 -0.0001555 0.0004452 0.0000290 0.0000744 0.0000767 0.0002404 0.0000237 0.0001199 -0.0000459 -0.0002238 -0.0000295 0.0002254 0.0000464 -0.0000810 0.0002277 -0.0001859 0.0000445 -0.0000219 0.0000400 0.0001671 -0.0001779 0.0002518 0.0000509 0.0003786 0.0000260 0.0003026 -0.0001099 0.0001860 0.0002122 -0.0002605 0.0000764 -0.0000887 0.0000166 0.0001645 0.0001568 -0.0004345 -0.0000230 0.0000237 -0.0002077 0.0001254 -0.0001308 0.0000589 -0.0000844 0.0000164 -0.0000151 0.0002362 -0.0000564 0.0001842 -0.0000049 0.0001158 0.0000684 -0.0001844 -0.0000747 -0.0000408 0.0000548 -0.0001480 -0.0003488 0.0004386 -0.0000672 0.0001192 0.0000701 -0.0000372 -0.0000494 -0.0000519 0.0001743 -0.0003790 0.0000815 -0.0002740
-0.0002215 0.0000759 -0.0005309 0.0005722 0.0003410 -0.0004012 0.0000488 -0.0000381 0.0001057 -0.0000307 -0.0000425 -0.0000893 0.0000778 0.0001202 0.0001129 -0.0001558 0.0001470 -0.0002254 0.0000274 0.0003831 0.0001900 -0.0000178 -0.0000324 0.0004004 -0.0000945 0.0002508 0.0000262 -0.0001790 0.0000815 -0.0001302 -0.0000842 0.0000519 -0.0000295 -0.0003624 0.0000764 -0.0003179 -0.0001608 -0.0000489 -0.0001428 -0.0006076 0.0000137 0.0001057 -0.0001342 -0.0006907 0.0002453 -0.0002109 -0.0003405 -0.0001988 -0.0000835 -0.0002773 0.0001072 -0.0001578 -0.0001185 0.0002653 -0.0000244 0.0000004 -0.0000966 0.0000885 0.0000730 -0.0003437 -0.0000225 -0.0000084 -0.0001859 0.0007140 0.0000027 0.0004912 0.0000061 0.0001193 0.0000706 0.0005623 -0.0001464 0.0002162 -0.0002194 0.0001378 -0.0001469 0.0003472 0.0001352 -0.0003821 0.0000839 -0.0001985 0.0001495 0.0001127 0.0000706 -0.0003310 -0.0000101 -0.0001348 -0.0001571 -0.0001884 -0.0000324 -0.0000921 0.0000338 -0.0003217 0.0000382 0.0004867 -0.0000046 0.0001402 0.0005010 -0.0002782 0.0018417 -0.0010896 -0.0001295 -0.0002756 0.0002734 -0.0001236 0.0000022 -0.0002953 -0.0001209 -0.0001850 0.0001036 0.0010932 0.0001506 -0.0006766 0.0003462 0.0001485 0.0001577 -0.0005718 0.0001561 -0.0004205 0.0000004 0.0003294 0.0000045 0.0003142 0.0001549 0.0000899 -0.0000141 0.0003198 0.0003101 -0.0000130 0.0000586 -0.0001679 -0.0000673 -0.0002118 -0.0001398 0.0000821 0.0002833 -0.0003918 0.0012666 -0.0008646 -0.0001327 0.0000943 0.0001147 -0.0004912 0.0001156 -0.0003533 0.0000745 -0.0000671 0.0001098 -0.0003378 -0.0001101 0.0005074 0.0000058 0.0001433 0.0000835 0.0002678 0.0000785 -0.0000022 0.0000019 -0.0003235 -0.0001352 0.0000803 0.0000716 -0.0002268 0.0001340 -0.0003708 0.0000531 -0.0001923 0.0000378 0.0000154 -0.0000408 0.0001807 0.0000339 0.0002960 0.0001672 0.0001148 0.0000962 -0.0000606 0.0001847 -0.0002668 0.0000858 -0.0002326 0.0000018 0.0000222 0.0003052 -0.0007408 -0.0001263 -0.0000760 -0.0001179 -0.0000768 -0.0001415 -0.0000439 -0.0000149 -0.0001845 -0.0000882 0.0001543 -0.0001010 0.0000976 0.0000004 -0.0000085 0.0000481 -0.0003073 0.0000371 -0.0001278 0.0000590 -0.0002514 -0.0003216 0.0002472 -0.0000219 -0.0000285 0.0004730 -0.0004912 0.0000189 -0.0001623 0.0001627 -0.0004181 0.0000805 -0.0002686
-0.0000657 -0.0000154 0.0000811 0.0000009 0.0001217 -0.0002504 0.0000606 -0.0000335 0.0001150 -0.0000131 0.0000124 -0.0001630 0.0000856 -0.0000072 0.0001381 -0.0001906 0.0001393 -0.0002399 0.0000346 0.0003489 0.0000359 0.0000045 0.0000112 0.0003463 0.0001558 0.0001135 0.0000320 -0.0002316 0.0001128 -0.0002737 -0.0000749 -0.0000164 0.0000041 -0.0004660 0.0000479 -0.0005111 -0.0001079 -0.0001806 -0.0000872 -0.0007928 0.0000193 -0.0000651 -0.0000624 -0.0008258 -0.0003100 -0.0000526 -0.0003135 -0.0002093 -0.0000819 -0.0003778 0.0000003 -0.0000464 -0.0000172 0.0001131 0.0000096 -0.0000643 -0.0001043 0.0000802 0.0000978 -0.0004301 -0.0000193 -0.0000387 -0.0002117 0.0005881 -0.0000040 0.0005081 0.0000097 0.0000260 0.0000972 0.0004351 -0.0001218 0.0002439 -0.0001578 0.0000765 -0.0000381 0.0002423 0.0001372 -0.0004479 0.0000791 -0.0002243 0.0001533 -0.0000420 0.0001458 -0.0005028 -0.0000052 -0.0001996 -0.0000032 -0.0003363 -0.0000308 -0.0002303 0.0000560 -0.0004834 0.0005446 -0.0001534 -0.0001494 0.0000974 -0.0004552 0.0004978 0.0014976 -0.0009413 0.0000157 -0.0004372 -0.0000299 -0.0000837 0.0000074 -0.0003934 -0.0000731 -0.0001698 0.0000831 0.0010710 0.0001815 -0.0006286 0.0003370 0.0001940 0.0001231 -0.0005156 0.0001936 -0.0003946 -0.0000145 0.0002137 0.0000036 0.0003254 0.0001747 -0.0000036 -0.0000360 0.0002343 0.0003212 0.0000831 0.0000479 -0.0001800 -0.0000286 -0.0002324 0.0000305 -0.0001107 0.0003004 -0.0004003 0.0007087 -0.0008866 -0.0001357 -0.0000041 0.0001886 -0.0005842 0.0001582 -0.0004726 0.0001124 -0.0001535 0.0001381 -0.0004319 -0.0000849 0.0005354 -0.0000053 0.0002661 0.0000648 0.0003386 -0.0000782 0.0000771 0.0000442 -0.0003768 -0.0000980 0.0000098 0.0000781 -0.0002569 -0.0000943 -0.0004036 0.0000551 -0.0003177 0.0000352 -0.0000832 0.0000599 0.0001379 0.0000425 0.0002039 0.0000638 0.0001452 0.0000716 -0.0001182 0.0001760 -0.0003266 0.0000626 -0.0002755 -0.0000055 -0.0000809 0.0003746 -0.0009297 -0.0002089 -0.0000151 -0.0001059 -0.0002045 -0.0001030 -0.0001521 0.0001096 -0.0003460 -0.0001275 0.0001130 -0.0001129 0.0000065 0.0000146 -0.0000842 0.0000498 -0.0003812 -0.0000270 -0.0000769 0.0000897 -0.0003118 -0.0000767 -0.0000401 -0.0000593 -0.0001083 -0.0000452 -0.0001947 0.0000419 -0.0001799 0.0001561 -0.0004155 0.0001685 -0.0002836
0.0000693 -0.0000979 0.0008964 -0.0005941 0.0000975 -0.0004350 0.0000678 -0.0000030 0.0001146 0.0000260 0.0000793 -0.0002202 0.0000828 -0.0000615 0.0001262 -0.0001836 0.0001552 -0.0002959 0.0000337 0.0002902 0.0000830 -0.0000837 0.0000484 0.0002930 0.0002504 0.0000380 0.0000334 -0.0003016 0.0000996 -0.0003946 -0.0000701 -0.0001243 0.0000505 -0.0006477 0.0000517 -0.0007421 -0.0000684 -0.0003552 -0.0000457 -0.0010058 0.0000401 -0.0002578 -0.0000404 -0.0009611 -0.0001496 -0.0004343 -0.0002628 -0.0004221 -0.0000557 -0.0005077 0.0000325 -0.0001127 -0.0000391 0.0000013 0.0000571 -0.0003798 -0.0000999 -0.0000941 0.0001324 -0.0007658 -0.0000084 -0.0003635 -0.0000031 0.0000931 0.0000604 0.0004039 0.0000620 -0.0003030 0.0001262 0.0001559 -0.0000682 0.0001172 -0.0000736 -0.0001513 -0.0000128 0.0001746 0.0001397 -0.0006861 0.0000834 -0.0004131 0.0002000 -0.0003691 0.0001881 -0.0007991 -0.0000127 -0.0003271 0.0000953 -0.0005504 0.0000188 -0.0005880 -0.0000115 -0.0006649 0.0008412 -0.0006435 -0.0001851 -0.0002049 -0.0002264 0.0000383 0.0008968 -0.0009268 0.0000701 -0.0006238 0.0002608 -0.0002933 0.0000170 -0.0005792 -0.0000414 -0.0002189 0.0000643 0.0010918 0.0002185 -0.0007363 0.0003768 0.0001701 0.0002144 -0.0007572 0.0002325 -0.0005103 0.0000356 -0.0000032 0.0000473 0.0002151 0.0002401 -0.0002613 -0.0000142 0.0001215 0.0002899 0.0001199 0.0000494 -0.0002493 -0.0000169 -0.0003365 0.0007506 -0.0008262 0.0003526 -0.0005535 -0.0002026 -0.0001905 0.0001272 -0.0003904 0.0002304 -0.0007123 0.0002060 -0.0006577 0.0000724 -0.0003097 0.0002185 -0.0006246 -0.0000659 0.0004819 0.0000136 0.0001868 0.0000462 0.0003404 -0.0001239 0.0000744 0.0000801 -0.0004932 0.0000591 -0.0001691 0.0000957 -0.0003510 -0.0002261 -0.0005589 0.0000971 -0.0005153 0.0000594 -0.0002741 0.0003168 -0.0000844 0.0000363 0.0000081 0.0001055 -0.0000081 0.0002018 -0.0003843 0.0002336 -0.0005403 0.0000525 -0.0003943 0.0000163 -0.0002753 0.0001624 -0.0008649 -0.0000172 -0.0003237 -0.0002074 -0.0003183 -0.0000565 -0.0003117 0.0002999 -0.0006220 -0.0001366 -0.0000882 -0.0000985 -0.0001592 -0.0000060 -0.0001901 0.0000409 -0.0004766 0.0000833 -0.0001834 0.0000050 -0.0002617 0.0001111 -0.0003628 0.0001256 -0.0003668 -0.0001912 -0.0001247 0.0000500 -0.0002536 0.0001652 -0.0004507 0.0001373 -0.0002709
0.0000464 -0.0001902 0.0002627 -0.0001631 0.0002581 -0.0006711 0.0000902 -0.0000406 0.0001118 -0.0000105 0.0000962 -0.0002468 0.0001428 -0.0002296 0.0001581 -0.0002383 0.0001422 -0.0003758 0.0000332 0.0001830 0.0000201 -0.0001221 0.0000523 0.0002075 0.0001578 0.0000726 0.0000378 -0.0003723 0.0000796 -0.0005271 -0.0000634 -0.0002563 0.0000675 -0.0007839 0.0000999 -0.0009406 -0.0000442 -0.0004615 -0.0000245 -0.0011024 0.0000581 -0.0003607 -0.0000258 -0.0010166 0.0000009 -0.0005588 -0.0002270 -0.0005235 -0.0000451 -0.0005304 0.0000737 -0.0001631 -0.0001274 0.0001403 0.0000816 -0.0004278 -0.0001084 -0.0001035 0.0001697 -0.0008327 -0.0000107 -0.0003863 0.0002422 -0.0002264 0.0000730 0.0003071 0.0000749 -0.0004024 0.0001580 -0.0000587 -0.0001345 0.0001605 -0.0000750 -0.0001345 -0.0001554 0.0002385 0.0001397 -0.0007463 0.0000936 -0.0004576 0.0002010 -0.0005528 0.0001232 -0.0008381 -0.0000356 -0.0003482 0.0001176 -0.0005472 0.0000696 -0.0007357 -0.0000102 -0.0006818 0.0004051 -0.0003853 -0.0000484 -0.0004567 0.0015927 -0.0014276 0.0001431 -0.0005378 0.0000040 -0.0006175 0.0003513 -0.0002116 0.0000292 -0.0006691 -0.0000347 -0.0002080 0.0000411 0.0013074 0.0002402 -0.0007356 0.0002973 0.0002377 0.0002691 -0.0008475 0.0002341 -0.0004952 0.0000687 -0.0001213 0.0000601 0.0001455 0.0001565 -0.0002936 0.0000010 0.0000373 0.0002685 0.0001635 0.0000422 -0.0002644 0.0000169 -0.0004088 0.0008631 -0.0011444 0.0004138 -0.0006491 -0.0004624 0.0001395 0.0000814 -0.0004689 0.0002169 -0.0007770 0.0002356 -0.0007811 0.0000601 -0.0004144 0.0002164 -0.0006991 -0.0000884 0.0004045 -0.0000757 0.0001939 0.0000440 0.0003019 -0.0000138 -0.0000530 0.0000758 -0.0005445 0.0000459 -0.0001926 0.0001115 -0.0004045 -0.0000975 -0.0007465 0.0001178 -0.0006223 0.0000652 -0.0004072 0.0001786 -0.0000401 0.0000231 -0.0001151 -0.0000227 -0.0000769 -0.0001234 -0.0001631 0.0001205 -0.0004789 0.0000892 -0.0004798 0.0000119 -0.0003637 0.0000988 -0.0007991 0.0000578 -0.0005899 -0.0002692 -0.0003011 -0.0000206 -0.0003701 0.0002074 -0.0006577 -0.0000871 -0.0003109 -0.0000791 -0.0002512 -0.0000243 -0.0002606 0.0000417 -0.0005789 0.0001002 -0.0001302 -0.0000312 -0.0003284 0.0001661 -0.0005962 0.0001035 -0.0005014 0.0001466 -0.0005320 0.0001050 -0.0005651 0.0001763 -0.0006253 0.0000989 -0.0005924
-0.0000389 -0.0003544 0.0000140 -0.0001496 0.0004596 -0.0007885 0.0001196 -0.0002600 0.0001152 -0.0001743 0.0001615 -0.0005497 0.0002476 -0.0005808 0.0001936 -0.0004044 0.0001336 -0.0005005 0.0000795 -0.0001069 -0.0000037 -0.0004724 0.0000626 -0.0000971 0.0001500 -0.0000581 0.0000482 -0.0005730 0.0000533 -0.0007334 -0.0000555 -0.0004932 0.0001053 -0.0009941 0.0002077 -0.0012831 0.0000103 -0.0007194 0.0000896 -0.0014171 0.0000960 -0.0005540 0.0000150 -0.0011529 -0.0005307 -0.0003460 -0.0001792 -0.0007163 -0.0000257 -0.0006476 0.0003016 -0.0003838 -0.0001832 0.0001866 0.0001294 -0.0005489 -0.0001068 -0.0001644 0.0001964 -0.0009601 0.0000054 -0.0004928 0.0002662 -0.0004604 0.0000873 0.0001655 0.0001000 -0.0006062 0.0002098 -0.0003743 -0.0001638 0.0000842 -0.0000698 -0.0001177 -0.0001063 0.0001807 0.0002053 -0.0009499 0.0001062 -0.0005546 0.0001702 -0.0007813 0.0000944 -0.0009900 -0.0000336 -0.0004167 0.0001001 -0.0005692 0.0000933 -0.0009736 0.0001242 -0.0008818 -0.0000830 -0.0002368 0.0002026 -0.0007995 0.0013445 -0.0012861 -0.0003786 -0.0004239 0.0000455 -0.0007055 0.0007005 -0.0007128 0.0000460 -0.0007825 -0.0000407 -0.0002337 0.0000565 0.0016004 0.0002047 -0.0006922 0.0002198 0.0002969 0.0002219 -0.0008831 0.0002468 -0.0004867 0.0001229 -0.0002776 0.0000608 0.0000367 0.0001524 -0.0004635 0.0000291 -0.0000389 0.0002398 0.0001296 0.0000596 -0.0003337 0.0000285 -0.0005014 0.0007153 -0.0013679 0.0003827 -0.0007082 0.0009595 -0.0012037 0.0004866 -0.0009498 0.0002424 -0.0009188 0.0002807 -0.0009363 0.0001951 -0.0007037 0.0002318 -0.0008288 -0.0000746 0.0002999 0.0001897 -0.0000695 0.0000417 0.0002226 0.0002036 -0.0003459 0.0000933 -0.0006191 0.0000141 -0.0001502 0.0001240 -0.0004585 0.0001173 -0.0010459 0.0001666 -0.0007541 0.0000471 -0.0005455 -0.0000826 -0.0000080 0.0000348 -0.0003050 -0.0002094 -0.0001738 -0.0002654 -0.0002320 0.0002450 -0.0006117 0.0001215 -0.0005560 0.0000221 -0.0004932 0.0002567 -0.0010373 0.0000854 -0.0008026 0.0000260 -0.0005257 -0.0000409 -0.0003530 0.0002212 -0.0007304 0.0000406 -0.0004588 -0.0000454 -0.0003749 -0.0000183 -0.0003295 0.0000608 -0.0005948 0.0001470 -0.0001383 0.0000723 -0.0003807 0.0000227 -0.0005367 0.0000149 -0.0004945 0.0002684 -0.0007135 0.0001560 -0.0005785 0.0001602 -0.0005920 0.0001506 -0.0005386
0.0001640 -0.0004706 0.0005529 -0.0006008 0.0005632 -0.0008319 0.0001247 -0.0002756 0.0001152 -0.0002302 0.0002212 -0.0006793 0.0002665 -0.0006534 0.0001681 -0.0004251 0.0001798 -0.0006341 0.0000980 -0.0002468 0.0001150 -0.0007551 0.0000815 -0.0002149 -0.0000060 -0.0000371 0.0000425 -0.0006213 0.0000465 -0.0008352 -0.0000734 -0.0005945 0.0001260 -0.0011118 0.0002654 -0.0013894 0.0000598 -0.0008164 0.0001501 -0.0015075 0.0001114 -0.0005799 0.0000184 -0.0011298 -0.0004542 -0.0002808 -0.0001406 -0.0007898 0.0000064 -0.0005887 0.0002093 -0.0002504 -0.0002427 0.0001556 0.0001467 -0.0005599 -0.0000924 -0.0001589 0.0002093 -0.0009754 0.0000124 -0.0004844 0.0002551 -0.0006381 0.0000824 0.0000576 0.0001411 -0.0006961 0.0001861 -0.0004952 -0.0001786 0.0001742 -0.0000459 -0.0001133 -0.0000853 0.0001404 0.0002519 -0.0010301 0.0001085 -0.0005549 0.0001591 -0.0009188 0.0001496 -0.0010820 -0.0000051 -0.0004271 0.0000879 -0.0005561 0.0001912 -0.0011810 0.0002002 -0.0009250 0.0000609 -0.0004912 0.0000797 -0.0006601 -0.0004242 -0.0000321 0.0004178 -0.0011647 0.0001164 -0.0007583 0.0010412 -0.0008859 0.0000461 -0.0007949 -0.0000451 -0.0001899 0.0000949 0.0020289 0.0002268 -0.0006737 0.0001843 0.0004982 0.0001862 -0.0009096 0.0002407 -0.0004523 0.0001606 -0.0003523 0.0000663 -0.0000434 0.0001761 -0.0005530 0.0000672 -0.0000456 0.0001521 0.0002322 0.0000446 -0.0002913 0.0000058 -0.0005298 0.0002531 -0.0012726 0.0003007 -0.0006651 0.0003244 -0.0004802 0.0004418 -0.0007231 0.0002538 -0.0009736 0.0003153 -0.0009943 0.0002445 -0.0008300 0.0002820 -0.0008870 0.0000241 0.0002056 0.0003894 -0.0002380 0.0000400 0.0001630 0.0001902 -0.0004441 0.0001073 -0.0006457 0.0000683 -0.0001146 0.0001153 -0.0004324 0.0002448 -0.0013227 0.0002134 -0.0008374 0.0000575 -0.0006344 0.0002254 -0.0003771 0.0000514 -0.0004776 -0.0000731 -0.0004278 0.0002072 -0.0007293 0.0002802 -0.0008045 0.0001291 -0.0007703 0.0000465 -0.0006782 0.0002942 -0.0012708 0.0000879 -0.0010167 0.0002752 -0.0009503 -0.0000570 -0.0004739 0.0003820 -0.0010577 -0.0001024 -0.0005018 -0.0000555 -0.0005401 0.0000218 -0.0005030 0.0000476 -0.0007102 0.0002315 -0.0003642 0.0000637 -0.0005270 -0.0000980 -0.0006739 0.0001111 -0.0007647 -0.0000209 -0.0006894 0.0001802 -0.0007081 0.0001539 -0.0006321 0.0001206 -0.0005390
0.0001826 -0.0004997 0.0005070 -0.0006574 0.0001713 -0.0006190 0.0001384 -0.0003579 0.0001159 -0.0003115 0.0002896 -0.0008440 0.0002887 -0.0007561 0.0002206 -0.0004894 0.0002386 -0.0007325 0.0001377 -0.0004177 0.0002657 -0.0010440 0.0001136 -0.0003928 0.0000432 -0.0001531 0.0000446 -0.0006856 0.0001121 -0.0010514 -0.0000676 -0.0007545 0.0001399 -0.0012279 0.0002981 -0.0014879 0.0000763 -0.0009317 0.0002185 -0.0016021 0.0001265 -0.0006309 -0.0000001 -0.0010999 0.0002897 -0.0008074 -0.0000996 -0.0008709 0.0000249 -0.0005705 0.0000902 -0.0001831 -0.0002133 0.0001250 0.0001632 -0.0005692 -0.0000938 -0.0001492 0.0002223 -0.0009888 0.0000162 -0.0004442 0.0002095 -0.0007647 0.0000804 -0.0000866 0.0001481 -0.0007629 0.0002094 -0.0006749 -0.0002314 0.0002539 -0.0001072 -0.0000942 -0.0000562 0.0000955 0.0002747 -0.0010658 0.0000980 -0.0005238 0.0001879 -0.0010443 0.0001249 -0.0010880 -0.0000107 -0.0003873 0.0001181 -0.0004929 0.0002182 -0.0011850 0.0001352 -0.0008199 0.0002433 -0.0007598 0.0002664 -0.0009023 0.0003441 -0.0007135 -0.0001160 -0.0008236 0.0001113 -0.0007200 0.0002849 -0.0000870 0.0000674 -0.0007904 -0.0000503 -0.0001297 0.0001028 0.0022591 0.0002561 -0.0006737 0.0001525 0.0005785 0.0003091 -0.0010390 0.0002353 -0.0004057 0.0001454 -0.0004158 0.0000881 -0.0001717 0.0001085 -0.0005832 0.0000829 -0.0000634 0.0001242 0.0003070 0.0000389 -0.0002472 -0.0000090 -0.0005322 -0.0001268 -0.0003689 0.0003593 -0.0007102 0.0000307 -0.0004535 0.0000824 -0.0004721 0.0002404 -0.0009706 0.0003366 -0.0010156 0.0002548 -0.0009306 0.0003205 -0.0009119 0.0001250 0.0000414 0.0002763 -0.0002429 0.0000382 0.0001006 0.0001196 -0.0004915 0.0001121 -0.0006107 0.0001178 -0.0001001 0.0001165 -0.0003880 0.0002206 -0.0012906 0.0002303 -0.0008297 0.0000672 -0.0006996 0.0005169 -0.0006480 0.0000711 -0.0005811 0.0000389 -0.0006001 0.0003529 -0.0009478 0.0002675 -0.0008861 0.0001334 -0.0007221 0.0000584 -0.0006885 0.0002147 -0.0010572 0.0001044 -0.0010685 0.0001365 -0.0008443 -0.0000735 -0.0004112 0.0002719 -0.0009307 -0.0001994 -0.0005468 -0.0000575 -0.0005270 0.0000347 -0.0005001 0.0000951 -0.0006543 0.0001594 -0.0001573 -0.0000057 -0.0004150 0.0004179 -0.0010957 0.0001232 -0.0007584 -0.0001175 -0.0005510 0.0001895 -0.0006467 0.0001381 -0.0005578 0.0001495 -0.0004702
0.0002377 -0.0006929 0.0001182 -0.0004208 0.0000187 -0.0005125 0.0001609 -0.0003875 0.0001126 -0.0002988 0.0003519 -0.0009152 0.0003079 -0.0007969 0.0002489 -0.0005208 0.0002577 -0.0008037 0.0001610 -0.0005521 0.0002316 -0.0011279 0.0001192 -0.0004808 0.0001733 -0.0003599 0.0000491 -0.0006486 0.0000908 -0.0011457 -0.0000812 -0.0007717 0.0001503 -0.0012600 0.0003358 -0.0015156 0.0000716 -0.0009590 0.0003065 -0.0015885 0.0001454 -0.0006350 -0.0000273 -0.0009911 0.0003379 -0.0008323 -0.0000598 -0.0008697 0.0000076 -0.0005657 0.0001932 -0.0002978 -0.0001294 0.0001217 0.0001870 -0.0005283 -0.0001004 -0.0000937 0.0002313 -0.0009496 0.0000390 -0.0003766 0.0001302 -0.0008457 0.0000872 -0.0002078 0.0001635 -0.0007522 0.0002701 -0.0008248 -0.0001991 0.0002927 -0.0002419 0.0001222 0.0000605 0.0001314 0.0002611 -0.0010124 0.0000876 -0.0004617 0.0001910 -0.0010499 0.0001016 -0.0010229 -0.0000371 -0.0002664 0.0002373 -0.0004618 0.0000629 -0.0009465 0.0001110 -0.0007007 0.0004705 -0.0009850 0.0003286 -0.0010201 0.0014507 -0.0015121 -0.0011199 -0.0000972 0.0000932 -0.0005916 -0.0002685 0.0002612 0.0000781 -0.0006973 -0.0000657 -0.0000789 0.0000972 0.0022673 0.0001892 -0.0005425 0.0001519 0.0006035 0.0003366 -0.0010269 0.0002442 -0.0003218 0.0001545 -0.0004663 0.0000978 -0.0002433 0.0002920 -0.0007860 0.0000855 -0.0001008 0.0001132 0.0003859 0.0000365 -0.0002011 -0.0000209 -0.0005091 0.0002377 -0.0004427 0.0003896 -0.0007836 0.0012661 -0.0015551 0.0008854 -0.0013720 0.0002519 -0.0011034 0.0003544 -0.0011396 0.0002262 -0.0010812 0.0003366 -0.0010568 0.0001461 -0.0001166 0.0001268 -0.0002670 0.0000574 -0.0000034 0.0000385 -0.0004705 0.0001426 -0.0007787 0.0001001 -0.0001588 0.0001452 -0.0006348 0.0001101 -0.0013694 0.0002543 -0.0009566 0.0000629 -0.0008093 0.0003975 -0.0007871 0.0000927 -0.0007976 0.0002002 -0.0007898 0.0005124 -0.0012751 0.0004051 -0.0011846 0.0001337 -0.0008108 0.0000664 -0.0008044 0.0002908 -0.0012331 0.0004742 -0.0014301 -0.0001361 -0.0007183 -0.0000683 -0.0004456 0.0002045 -0.0009184 -0.0001433 -0.0005740 -0.0000853 -0.0005199 0.0000202 -0.0004889 0.0001499 -0.0006408 0.0000271 0.0000738 0.0000887 -0.0004845 0.0007770 -0.0013436 -0.0000326 -0.0006489 -0.0002407 -0.0004579 0.0001863 -0.0006168 0.0001539 -0.0005347 0.0001888 -0.0004721
0.0004831 -0.0009546 -0.0003116 -0.0001232 0.0003936 -0.0007398 0.0001742 -0.0004304 0.0001146 -0.0003317 0.0003913 -0.0010111 0.0003112 -0.0008421 0.0002754 -0.0005945 0.0002991 -0.0009373 0.0001585 -0.0007014 0.0003422 -0.0013285 0.0001695 -0.0006488 0.0001957 -0.0006213 0.0000659 -0.0006539 0.0000318 -0.0011578 -0.0000836 -0.0008043 0.0001496 -0.0012587 0.0003534 -0.0015559 0.0000910 -0.0009737 0.0003717 -0.0016562 0.0001576 -0.0006310 -0.0000373 -0.0009034 0.0001423 -0.0006609 -0.0000296 -0.0008658 0.0000102 -0.0005319 0.0000896 -0.0002226 -0.0000900 0.0000932 0.0002104 -0.0004996 -0.0000926 -0.0000322 0.0002508 -0.0009158 0.0000510 -0.0003170 0.0001474 -0.0010472 0.0001136 -0.0003891 0.0001953 -0.0007444 0.0002590 -0.0009119 -0.0001055 0.0003675 -0.0001839 0.0001612 -0.0000196 0.0002471 0.0002742 -0.0009682 0.0000827 -0.0004074 0.0001828 -0.0010246 0.0001252 -0.0009617 -0.0000104 -0.0002073 0.0000787 -0.0001835 0.0000644 -0.0008454 0.0000968 -0.0005195 0.0007013 -0.0011720 0.0002421 -0.0009704 0.0012124 -0.0013845 -0.0001091 -0.0010745 0.0001761 -0.0005122 0.0001236 0.0001248 0.0000988 -0.0005876 -0.0000925 -0.0000493 0.0000560 0.0021428 0.0001719 -0.0004502 0.0001623 0.0008816 0.0003979 -0.0010172 0.0002255 -0.0002194 0.0001592 -0.0004755 0.0001025 -0.0003420 0.0003528 -0.0008073 0.0000895 -0.0001216 0.0001373 0.0006171 0.0000399 -0.0000406 -0.0000134 -0.0003904 -0.0002132 -0.0005016 0.0003571 -0.0006938 0.0011133 -0.0010888 0.0009851 -0.0015993 0.0002448 -0.0010432 0.0003564 -0.0010406 0.0002792 -0.0010847 0.0003216 -0.0009253 0.0001853 -0.0002523 0.0000270 -0.0002404 0.0000643 -0.0001021 0.0001038 -0.0005013 0.0001221 -0.0006295 0.0000423 0.0000472 0.0001415 -0.0005134 0.0003048 -0.0014300 0.0002096 -0.0007904 0.0000784 -0.0007540 0.0002660 -0.0006639 0.0000973 -0.0008376 0.0002906 -0.0008453 0.0005367 -0.0012156 0.0002622 -0.0010176 0.0001460 -0.0006608 0.0000488 -0.0006698 0.0005405 -0.0012954 0.0006025 -0.0014235 -0.0000376 -0.0006750 -0.0000317 -0.0003379 0.0001995 -0.0007154 -0.0001606 -0.0004191 -0.0000977 -0.0003758 0.0000010 -0.0003436 0.0001111 -0.0004659 0.0000387 -0.0000320 0.0001247 -0.0004115 0.0004079 -0.0008872 0.0000377 -0.0005733 -0.0002162 -0.0004097 0.0001488 -0.0004243 0.0001421 -0.0003949 0.0001654 -0.0002686
0.0003421 -0.0006806 -0.0007925 0.0003546 0.0001397 -0.0004547 0.0001848 -0.0003853 0.0001285 -0.0002775 0.0004230 -0.0010030 0.0002714 -0.0006894 0.0002866 -0.0005765 0.0002859 -0.0009295 0.0001596 -0.0007534 0.0004052 -0.0014131 0.0001737 -0.0006795 0.0002872 -0.0008535 0.0000625 -0.0005473 0.0000031 -0.0011171 -0.0000703 -0.0007513 0.0001496 -0.0011403 0.0003947 -0.0014788 0.0001049 -0.0008845 0.0004214 -0.0015938 0.0001687 -0.0005559 0.0000021 -0.0008325 0.0000814 -0.0004853 -0.0000219 -0.0007925 0.0000148 -0.0004443 0.0000661 -0.0002012 -0.0000508 0.0001637 0.0002177 -0.0004248 -0.0000952 0.0000662 0.0002469 -0.0008237 0.0000444 -0.0002363 0.0002503 -0.0011652 0.0001201 -0.0004826 0.0001946 -0.0006636 0.0001996 -0.0008910 -0.0000336 0.0004899 -0.0000555 0.0001610 -0.0001052 0.0003800 0.0003059 -0.0009777 0.0000958 -0.0003742 0.0001435 -0.0008983 0.0001472 -0.0008756 0.0000167 -0.0002194 0.0001169 -0.0001754 0.0002431 -0.0009036 0.0000677 -0.0004129 0.0004152 -0.0011229 0.0002068 -0.0008416 0.0011409 -0.0015931 0.0005791 -0.0016117 0.0000927 -0.0004423 0.0004349 0.0000155 0.0001092 -0.0005601 -0.0001322 -0.0000729 -0.0000114 0.0018833 0.0002222 -0.0006898 0.0001927 0.0009175 0.0004730 -0.0013208 0.0002182 -0.0004549 0.0001977 -0.0006297 0.0001448 -0.0005482 0.0001542 -0.0008365 0.0001086 -0.0001512 0.0002107 0.0006566 0.0000941 -0.0001313 -0.0000086 -0.0005078 -0.0002162 -0.0006825 0.0003515 -0.0008597 0.0007023 -0.0006654 0.0006673 -0.0017927 0.0002682 -0.0011543 0.0003141 -0.0010812 0.0003680 -0.0013670 0.0003341 -0.0009941 0.0001715 -0.0003501 0.0000776 -0.0004910 0.0000770 -0.0002882 0.0001969 -0.0006554 0.0001088 -0.0006042 0.0000675 0.0000315 0.0001428 -0.0005267 0.0005038 -0.0015523 0.0001996 -0.0007311 0.0000983 -0.0007796 0.0002267 -0.0009083 0.0001456 -0.0009738 0.0003031 -0.0009703 0.0002945 -0.0010168 -0.0000307 -0.0009774 0.0001416 -0.0005857 0.0000579 -0.0006261 0.0005274 -0.0010334 0.0006128 -0.0014492 0.0000717 -0.0006199 -0.0000062 -0.0002663 0.0001521 -0.0005520 -0.0001278 -0.0004294 -0.0000511 -0.0003215 -0.0000357 -0.0002113 0.0001366 -0.0003582 0.0001249 -0.0001100 0.0001028 -0.0002909 0.0000369 -0.0005826 0.0001574 -0.0006225 -0.0000489 -0.0003613 0.0001393 -0.0003215 0.0001212 -0.0002858 0.0001645 -0.0001243
0.0002015 -0.0004657 -0.0002186 -0.0000993 -0.0002330 -0.0000429 0.0002039 -0.0003978 0.0001302 -0.0002813 0.0004904 -0.0010457 0.0001827 -0.0006107 0.0002875 -0.0005742 0.0003241 -0.0009364 0.0001669 -0.0008470 0.0002274 -0.0013234 0.0001445 -0.0007468 0.0002515 -0.0009882 0.0000684 -0.0005295 0.0000275 -0.0012194 -0.0000727 -0.0007895 0.0001615 -0.0011203 0.0004130 -0.0014728 0.0001294 -0.0008659 0.0003972 -0.0015505 0.0001784 -0.0005315 0.0000427 -0.0008362 0.0002290 -0.0004883 -0.0000128 -0.0007767 0.0000223 -0.0004291 -0.0000391 -0.0002122 -0.0001176 0.0002544 0.0002047 -0.0003459 -0.0000942 0.0000874 0.0002596 -0.0007528 0.0000569 -0.0002003 0.0003086 -0.0011736 0.0001310 -0.0006209 0.0002043 -0.0006006 0.0002027 -0.0009046 -0.0000363 0.0005947 -0.0000461 0.0001807 -0.0000378 0.0003526 0.0003353 -0.0008668 0.0000847 -0.0002826 0.0001746 -0.0007984 0.0001864 -0.0007765 -0.0000245 -0.0000813 0.0001685 -0.0001565 0.0003244 -0.0008136 0.0000613 -0.0001709 0.0003783 -0.0011025 -0.0000488 -0.0004945 0.0003744 -0.0009277 0.0008679 -0.0017448 -0.0000093 -0.0002558 0.0001608 0.0002980 0.0000596 -0.0003558 -0.0001750 -0.0000517 -0.0000523 0.0019336 0.0002422 -0.0006738 0.0001806 0.0010773 0.0003496 -0.0010912 0.0002089 -0.0003757 0.0001641 -0.0005317 0.0001365 -0.0005800 0.0001307 -0.0007693 0.0001123 -0.0001323 0.0001929 0.0007906 0.0001088 -0.0000203 -0.0000142 -0.0003734 0.0000141 -0.0003343 0.0003007 -0.0006923 0.0019308 -0.0017467 -0.0001900 -0.0009356 0.0002463 -0.0009850 0.0002985 -0.0009129 0.0003829 -0.0012837 0.0003353 -0.0008427 0.0001117 -0.0004177 0.0000961 -0.0005752 0.0000726 -0.0003342 0.0002021 -0.0006179 0.0001135 -0.0004776 0.0000955 0.0001694 0.0001284 -0.0003819 0.0004317 -0.0012341 0.0002052 -0.0005391 0.0000957 -0.0006574 0.0004163 -0.0011186 0.0001644 -0.0009234 0.0003266 -0.0008081 0.0001023 -0.0006931 0.0000835 -0.0008556 0.0001071 -0.0003901 0.0000991 -0.0004956 0.0001575 -0.0004332 0.0004029 -0.0010839 0.0000187 -0.0003745 -0.0000190 -0.0000989 0.0001267 -0.0003239 -0.0001306 -0.0002466 -0.0000515 -0.0001550 -0.0000746 -0.0000412 0.0001485 -0.0001956 0.0001512 0.0000720 0.0001522 -0.0001619 -0.0002172 -0.0002750 0.0002494 -0.0005153 0.0000939 -0.0003051 0.0001431 -0.0002091 0.0000880 -0.0001364 0.0001120 0.0000514
0.0004233 -0.0005912 0.0001198 -0.0002155 0.0002384 -0.0002919 0.0002110 -0.0003523 0.0001327 -0.0002374 0.0005264 -0.0010071 0.0001882 -0.0005673 0.0002985 -0.0005398 0.0003797 -0.0009602 0.0001616 -0.0008756 0.0002738 -0.0013213 0.0001375 -0.0007873 0.0002182 -0.0010386 0.0000971 -0.0005259 0.0000901 -0.0013363 -0.0000632 -0.0008035 0.0001811 -0.0011398 0.0003984 -0.0014263 0.0001533 -0.0008660 0.0003951 -0.0015828 0.0001547 -0.0005359 0.0000283 -0.0008351 0.0003869 -0.0006515 0.0000136 -0.0008955 0.0000483 -0.0005466 0.0001435 -0.0004799 -0.0000942 0.0000239 0.0001921 -0.0004684 -0.0000858 -0.0000801 0.0002682 -0.0008993 0.0000741 -0.0004028 0.0002667 -0.0013414 0.0001832 -0.0008537 0.0002008 -0.0007236 0.0002898 -0.0010954 0.0000358 0.0002740 -0.0001006 0.0000030 -0.0000450 0.0001428 0.0003440 -0.0009817 0.0000861 -0.0003872 0.0002655 -0.0008654 0.0001657 -0.0008067 -0.0000438 -0.0000687 0.0001453 -0.0001782 0.0001857 -0.0007238 0.0000650 -0.0001615 0.0004245 -0.0011428 0.0000127 -0.0006102 -0.0016185 0.0005150 0.0008884 -0.0019710 0.0000860 -0.0002955 0.0001189 -0.0000106 0.0000748 -0.0002855 -0.0002038 -0.0001951 -0.0000914 0.0017808 0.0002302 -0.0007683 0.0001373 0.0011041 0.0004023 -0.0011683 0.0002156 -0.0004740 0.0001358 -0.0005320 0.0001722 -0.0007468 0.0003329 -0.0009757 0.0001205 -0.0001482 0.0001878 0.0008014 0.0001093 -0.0000039 0.0000043 -0.0003050 -0.0004253 -0.0000616 0.0003336 -0.0007713 0.0019438 -0.0021087 -0.0008711 -0.0003140 0.0002307 -0.0009384 0.0003343 -0.0008660 0.0003315 -0.0012428 0.0003252 -0.0007829 0.0002523 -0.0006228 0.0002319 -0.0008892 0.0000974 -0.0004852 0.0001985 -0.0006239 0.0001294 -0.0004451 0.0000475 0.0002336 0.0001049 -0.0003508 0.0002069 -0.0010170 0.0001804 -0.0003494 0.0000976 -0.0005819 0.0004218 -0.0012718 0.0001605 -0.0008849 0.0003359 -0.0006865 -0.0000204 -0.0005732 0.0003211 -0.0009812 0.0001137 -0.0003263 0.0001235 -0.0004229 0.0002031 -0.0003855 0.0003533 -0.0009239 0.0001695 -0.0004293 -0.0000330 -0.0000216 0.0001845 -0.0002565 -0.0001509 0.0000434 -0.0000766 -0.0000158 -0.0000472 0.0000089 0.0001238 -0.0000664 0.0002101 0.0000005 0.0002035 -0.0001845 -0.0003491 -0.0001229 0.0001363 -0.0003787 0.0005315 -0.0006069 0.0001231 -0.0001623 0.0000670 -0.0000759 0.0001422 0.0000226
0.0004113 -0.0006374 0.0000122 -0.0001639 0.0006247 -0.0007235 0.0002290 -0.0003718 0.0001359 -0.0002474 0.0005152 -0.0009512 0.0002651 -0.0005594 0.0003039 -0.0005197 0.0004015 -0.0009547 0.0001906 -0.0009530 0.0003829 -0.0013462 0.0001472 -0.0008437 0.0002506 -0.0012005 0.0001057 -0.0004963 0.0000530 -0.0012871 -0.0000540 -0.0008004 0.0001942 -0.0011171 0.0004345 -0.0013980 0.0001567 -0.0008013 0.0004006 -0.0015134 0.0001450 -0.0004968 0.0000282 -0.0008518 0.0002138 -0.0003992 0.0000225 -0.0008739 0.0000735 -0.0005549 0.0003562 -0.0006204 -0.0001100 -0.0000494 0.0001609 -0.0003903 -0.0000979 -0.0001124 0.0002695 -0.0008297 0.0000779 -0.0003537 0.0001682 -0.0013013 0.0001849 -0.0009720 0.0002078 -0.0006654 0.0002549 -0.0009826 -0.0000421 0.0001613 -0.0000765 -0.0000572 -0.0000549 0.0000049 0.0003611 -0.0009046 0.0000892 -0.0003133 0.0002766 -0.0006905 0.0001464 -0.0006476 -0.0000282 -0.0000175 0.0001262 -0.0000849 0.0001921 -0.0005659 0.0000347 0.0000228 0.0000924 -0.0006878 0.0000591 -0.0004558 -0.0010661 0.0002856 0.0007993 -0.0016649 0.0000801 -0.0002057 0.0007839 -0.0005633 0.0000973 -0.0001763 -0.0002315 -0.0002627 -0.0001645 0.0016540 0.0002629 -0.0007800 0.0001283 0.0011485 0.0004637 -0.0012591 0.0002291 -0.0004747 0.0002106 -0.0004908 0.0001765 -0.0007660 0.0003208 -0.0008620 0.0001073 -0.0000784 0.0001849 0.0008222 0.0001336 0.0000579 0.0000217 -0.0001836 0.0003975 -0.0004909 0.0003468 -0.0007273 0.0013565 -0.0017146 -0.0000087 -0.0010012 0.0002590 -0.0008671 0.0003361 -0.0007323 0.0002385 -0.0010668 0.0002874 -0.0006345 0.0002348 -0.0006120 0.0002687 -0.0009725 0.0000891 -0.0005085 0.0001315 -0.0004823 0.0001012 -0.0003312 0.0000012 0.0003222 0.0001065 -0.0002788 0.0000491 -0.0006970 0.0001550 -0.0001411 0.0000934 -0.0004265 0.0001166 -0.0010610 0.0001389 -0.0007472 0.0002969 -0.0005656 0.0001645 -0.0005896 0.0001633 -0.0010155 0.0001263 -0.0002157 0.0001067 -0.0002528 0.0002465 -0.0001932 0.0003095 -0.0007084 0.0001129 -0.0002353 -0.0000634 0.0001455 0.0001621 -0.0002292 0.0000176 0.0000534 -0.0000849 0.0001254 -0.0000353 0.0001027 0.0001392 0.0000570 0.0003696 -0.0000999 0.0001864 -0.0001170 -0.0002269 0.0000264 0.0001047 -0.0002942 0.0003432 -0.0003700 0.0001194 -0.0001031 0.0000662 -0.0000213 0.0001835 0.0000400
0.0004245 -0.0005537 -0.0002962 -0.0000164 0.0004228 -0.0004845 0.0002439 -0.0004016 0.0001305 -0.0002311 0.0004598 -0.0009103 0.0003381 -0.0005981 0.0003357 -0.0005570 0.0004446 -0.0009641 0.0002242 -0.0010761 0.0003831 -0.0013253 0.0001584 -0.0009747 0.0002434 -0.0013254 0.0001089 -0.0004856 0.0000437 -0.0012675 -0.0000420 -0.0007958 0.0002045 -0.0010584 0.0004524 -0.0013665 0.0001657 -0.0007678 0.0004308 -0.0014904 0.0001522 -0.0004862 0.0000704 -0.0009146 0.0003654 -0.0006509 0.0000259 -0.0008495 0.0000827 -0.0005435 0.0000031 -0.0002810 -0.0002061 0.0000206 0.0001156 -0.0003151 -0.0001221 -0.0001159 0.0002609 -0.0007640 0.0000655 -0.0003178 0.0001700 -0.0012260 0.0002057 -0.0010637 0.0002005 -0.0006093 0.0001646 -0.0007687 -0.0002207 0.0001867 -0.0000215 -0.0001597 -0.0000091 -0.0000767 0.0003650 -0.0008673 0.0000968 -0.0002705 0.0002754 -0.0005539 0.0001482 -0.0005305 0.0000002 0.0000026 0.0000310 -0.0000094 0.0002498 -0.0004371 0.0000140 0.0001597 -0.0002463 -0.0001926 0.0000192 -0.0002167 0.0007182 -0.0008386 0.0003637 -0.0010489 0.0000783 -0.0001327 0.0005657 -0.0003359 0.0000921 -0.0000849 -0.0002307 -0.0002895 -0.0002001 0.0016115 0.0002660 -0.0007932 0.0001124 0.0011687 0.0003442 -0.0010920 0.0002306 -0.0004675 0.0002329 -0.0004106 0.0001809 -0.0007360 0.0000800 -0.0005353 0.0001095 -0.0000196 0.0001631 0.0008246 0.0001376 0.0001019 0.0000343 -0.0001250 0.0011919 -0.0011186 0.0003511 -0.0006707 0.0005771 -0.0007489 0.0005578 -0.0014216 0.0002619 -0.0007790 0.0003181 -0.0005985 0.0001923 -0.0009413 0.0002583 -0.0005394 0.0001555 -0.0005454 0.0001519 -0.0009076 0.0000883 -0.0004843 0.0002754 -0.0005252 0.0000347 -0.0002134 -0.0000195 0.0003338 0.0001203 -0.0002463 0.0002052 -0.0006000 0.0001330 0.0000438 0.0001158 -0.0002886 -0.0000419 -0.0009282 0.0001154 -0.0005440 0.0002053 -0.0004416 0.0000189 -0.0004332 0.0000428 -0.0008873 0.0001313 -0.0001509 0.0001054 -0.0001203 0.0002099 0.0000012 0.0000257 -0.0003707 0.0000157 -0.0000622 -0.0001166 0.0003150 0.0000462 -0.0001345 0.0000758 -0.0000203 -0.0000854 0.0002097 -0.0000495 0.0001617 0.0001936 0.0001007 0.0001836 0.0001118 0.0001217 0.0000264 -0.0002042 0.0001892 0.0002580 -0.0003406 0.0001408 -0.0001102 0.0001086 -0.0000480 0.0000367 0.0000456 0.0000975 0.0002515
0.0004501 -0.0004390 -0.0005101 0.0003752 0.0001445 -0.0002106 0.0002445 -0.0003428 0.0001265 -0.0001435 0.0004480 -0.0007604 0.0003220 -0.0004856 0.0003459 -0.0004850 0.0004584 -0.0008641 0.0001840 -0.0009895 0.0005148 -0.0013623 0.0001565 -0.0009555 0.0003807 -0.0014477 0.0001147 -0.0003903 0.0000845 -0.0012288 -0.0000281 -0.0007050 0.0002196 -0.0009633 0.0004255 -0.0012030 0.0001775 -0.0006635 0.0004977 -0.0013828 0.0001592 -0.0004087 0.0001197 -0.0009360 0.0001432 -0.0004681 0.0000205 -0.0007458 0.0001008 -0.0005130 -0.0000379 -0.0001937 -0.0001468 -0.0000149 0.0000677 -0.0002029 -0.0001442 -0.0000859 0.0002272 -0.0006481 0.0000542 -0.0002601 0.0003600 -0.0011878 0.0001900 -0.0010272 0.0001983 -0.0005195 0.0001721 -0.0005374 -0.0002745 0.0002679 -0.0001432 -0.0000491 -0.0000901 0.0000730 0.0003454 -0.0007951 0.0001079 -0.0002172 0.0003116 -0.0003578 0.0001115 -0.0004096 0.0000165 0.0000585 -0.0000703 0.0001327 0.0002304 -0.0002448 -0.0000013 0.0002216 -0.0000710 -0.0001058 -0.0000707 0.0000253 0.0002074 -0.0004096 0.0003279 -0.0003923 0.0000703 -0.0000569 -0.0000457 -0.0000166 0.0000971 -0.0000121 -0.0001944 -0.0002393 -0.0002117 0.0017227 0.0002639 -0.0007493 0.0000744 0.0011662 0.0002897 -0.0009281 0.0002315 -0.0004413 0.0001921 -0.0002561 0.0001868 -0.0006612 0.0000714 -0.0003589 0.0001276 0.0000558 0.0001349 0.0008007 0.0001310 0.0001081 0.0000059 -0.0000772 0.0014254 -0.0018584 0.0003890 -0.0006414 -0.0002218 0.0000997 0.0003249 -0.0013490 0.0002472 -0.0006619 0.0002839 -0.0004782 0.0002233 -0.0008695 0.0002474 -0.0004838 0.0002372 -0.0005528 0.0002344 -0.0009170 0.0001150 -0.0004506 0.0002110 -0.0004178 0.0000217 -0.0001432 0.0000029 0.0003244 0.0001189 -0.0001992 0.0002688 -0.0004897 0.0000954 0.0002107 0.0001337 -0.0001497 0.0000264 -0.0009021 0.0001300 -0.0003442 0.0002018 -0.0003292 -0.0000742 -0.0002865 0.0000536 -0.0006916 0.0001504 -0.0001037 0.0001008 -0.0000274 0.0002353 0.0000445 0.0000973 -0.0002839 0.0001752 -0.0001343 -0.0001328 0.0003807 0.0001943 -0.0002073 0.0000648 0.0000792 -0.0000828 0.0002601 -0.0000334 0.0001712 0.0002116 0.0001428 -0.0003433 0.0005390 0.0000697 0.0001273 -0.0001350 0.0001171 0.0001271 -0.0002101 0.0003722 -0.0002229 0.0001290 -0.0001431 0.0000144 0.0000266 0.0000890 0.0001818
0.0001998 -0.0002635 0.0000064 0.0002179 -0.0000025 -0.0001720 0.0002429 -0.0003369 0.0001360 -0.0001116 0.0004253 -0.0006663 0.0002743 -0.0003354 0.0003442 -0.0004452 0.0004290 -0.0007386 0.0001790 -0.0009279 0.0005697 -0.0012608 0.0001425 -0.0009442 0.0004365 -0.0015239 0.0001268 -0.0003296 0.0001094 -0.0011731 0.0000024 -0.0006503 0.0002484 -0.0008788 0.0004575 -0.0010995 0.0001808 -0.0005772 0.0005372 -0.0013119 0.0001664 -0.0003438 0.0001527 -0.0009523 -0.0003664 0.0000757 0.0000183 -0.0006551 0.0001361 -0.0005309 -0.0000544 -0.0001007 -0.0001871 0.0000214 0.0000179 -0.0001107 -0.0001465 -0.0000930 0.0001717 -0.0005464 0.0000278 -0.0002289 0.0002868 -0.0009071 0.0001593 -0.0009227 0.0001904 -0.0004244 0.0002300 -0.0002892 -0.0002981 0.0003484 -0.0001435 0.0000342 -0.0001867 0.0002736 0.0003544 -0.0007331 0.0001311 -0.0001883 0.0003120 -0.0001520 0.0001153 -0.0003670 -0.0000225 0.0001363 -0.0002445 0.0002992 0.0000418 -0.0000161 -0.0000407 0.0002609 0.0004234 -0.0002157 -0.0000316 -0.0000097 -0.0007652 0.0002332 0.0002860 -0.0001134 0.0001221 -0.0001129 0.0005007 -0.0002332 0.0000923 0.0000481 -0.0001287 -0.0001805 -0.0002161 0.0020244 0.0002707 -0.0007261 -0.0000182 0.0010473 0.0003017 -0.0009018 0.0002396 -0.0004062 0.0001701 -0.0000887 0.0001703 -0.0005387 0.0002758 -0.0003411 0.0001155 0.0001771 0.0000372 0.0006924 0.0000940 0.0000152 -0.0000294 -0.0000847 0.0017053 -0.0017767 0.0003765 -0.0005745 0.0000837 -0.0002180 0.0005494 -0.0012956 0.0002807 -0.0006068 0.0002598 -0.0003507 0.0004309 -0.0008766 0.0002891 -0.0005014 0.0002133 -0.0003639 0.0002660 -0.0008336 0.0001097 -0.0003322 0.0000533 -0.0002317 0.0000464 -0.0001033 -0.0000456 0.0004246 0.0001269 -0.0001570 0.0002781 -0.0002681 0.0000569 0.0002891 0.0001117 0.0000106 0.0002316 -0.0008858 0.0001662 -0.0001426 0.0001919 -0.0001955 0.0001751 -0.0004108 0.0000788 -0.0006576 0.0001661 -0.0000827 0.0001016 0.0000274 0.0000149 0.0002734 0.0001430 -0.0001267 0.0001234 -0.0000318 -0.0001538 0.0004384 0.0003119 -0.0003056 0.0000151 0.0001747 -0.0001047 0.0002813 -0.0000347 0.0001992 0.0001735 0.0001838 -0.0003949 0.0006399 0.0000652 0.0001924 -0.0001943 0.0003120 -0.0000849 0.0000895 0.0005870 -0.0004125 0.0001315 -0.0000778 0.0000176 0.0000781 0.0000675 0.0002925
0.0000154 0.0000082 0.0000788 0.0001633 -0.0000098 -0.0001443 0.0002187 -0.0002445 0.0001499 -0.0000573 0.0003560 -0.0004560 0.0002301 -0.0001316 0.0003628 -0.0003781 0.0003995 -0.0005712 0.0001940 -0.0007644 0.0003370 -0.0008751 0.0001740 -0.0008152 0.0003502 -0.0013308 0.0001403 -0.0002483 0.0001584 -0.0010906 0.0000309 -0.0005448 0.0002668 -0.0007664 0.0004684 -0.0009467 0.0001810 -0.0004691 0.0004837 -0.0011729 0.0001431 -0.0002371 0.0001511 -0.0009008 -0.0000677 -0.0001266 0.0000185 -0.0005662 0.0001486 -0.0005343 -0.0000779 0.0000052 -0.0002700 0.0001558 -0.0000281 -0.0000084 -0.0001555 -0.0000752 0.0001174 -0.0004284 -0.0000092 -0.0001615 0.0002613 -0.0006482 0.0001482 -0.0007359 0.0001464 -0.0002723 0.0002259 -0.0000348 -0.0002257 0.0003273 -0.0001660 0.0000672 -0.0000867 0.0002499 0.0003564 -0.0006251 0.0001426 -0.0001252 0.0002900 0.0000070 0.0001940 -0.0003401 -0.0000347 0.0001716 -0.0002188 0.0002862 -0.0000750 0.0001331 -0.0000797 0.0003312 0.0004752 0.0000792 -0.0000535 0.0000920 0.0004331 -0.0006131 0.0004513 -0.0002183 0.0001891 -0.0001601 0.0003721 -0.0001478 0.0000721 0.0000947 -0.0000865 -0.0001590 -0.0001777 0.0021418 0.0003078 -0.0006843 -0.0001151 0.0007970 0.0003509 -0.0008651 0.0002322 -0.0003538 0.0002140 -0.0000017 0.0001687 -0.0003866 0.0003407 -0.0002595 0.0001065 0.0002278 -0.0000637 0.0005702 0.0000461 -0.0000766 -0.0000536 -0.0000858 0.0018517 -0.0018867 0.0003780 -0.0004814 0.0001442 -0.0003545 0.0006486 -0.0008246 0.0003094 -0.0005409 0.0002179 -0.0002405 0.0004702 -0.0007736 0.0003032 -0.0004892 0.0001615 -0.0001557 0.0003625 -0.0007507 0.0001048 -0.0001622 0.0000134 -0.0000954 0.0000359 -0.0000484 -0.0000396 0.0004335 0.0001397 -0.0001262 0.0001802 -0.0000832 0.0000034 0.0003559 0.0000969 0.0001129 0.0003008 -0.0007456 0.0001689 0.0000341 0.0000726 0.0000648 0.0001360 -0.0003465 0.0000797 -0.0005110 0.0001637 -0.0000645 0.0000927 0.0000699 0.0000691 0.0003600 0.0003292 -0.0001888 0.0001054 0.0000514 -0.0001795 0.0005059 0.0002695 -0.0002810 -0.0000963 0.0002420 -0.0000866 0.0002451 -0.0000460 0.0002101 0.0001479 0.0001576 -0.0001647 0.0004721 0.0002007 0.0000532 -0.0001332 0.0002489 -0.0001266 0.0001226 0.0001390 -0.0001499 0.0000537 -0.0000843 0.0000168 0.0000413 -0.0000015 0.0003065
-0.0000063 0.0000202 -0.0000417 0.0001446 0.0004120 -0.0004287 0.0002056 -0.0002318 0.0001428 -0.0000409 0.0003007 -0.0003545 0.0002389 -0.0001034 0.0003797 -0.0003545 0.0003888 -0.0004023 0.0001966 -0.0005906 0.0001980 -0.0006276 0.0001920 -0.0006556 0.0002955 -0.0010960 0.0001418 -0.0001864 0.0002073 -0.0010065 0.0000514 -0.0004712 0.0002815 -0.0006828 0.0004454 -0.0007881 0.0001931 -0.0004287 0.0004140 -0.0010327 0.0001345 -0.0001749 0.0001717 -0.0008690 0.0001306 -0.0003828 0.0000142 -0.0005118 0.0001529 -0.0005515 0.0000392 -0.0000561 -0.0002924 0.0002423 -0.0000677 0.0000492 -0.0001726 -0.0000430 0.0000673 -0.0003507 -0.0000291 -0.0001294 0.0003389 -0.0004022 0.0001505 -0.0005370 0.0001075 -0.0001370 0.0001861 0.0001465 -0.0001725 0.0002382 -0.0002419 0.0001414 -0.0001000 0.0002362 0.0003661 -0.0005382 0.0001433 -0.0000634 0.0002705 0.0001162 0.0002480 -0.0003138 -0.0000229 0.0001483 -0.0000670 0.0001512 0.0000697 0.0000853 -0.0000996 0.0003440 0.0003894 0.0002455 -0.0000676 0.0001448 0.0006835 -0.0006403 0.0007731 -0.0001308 0.0000843 -0.0000802 -0.0002337 0.0002155 0.0000455 0.0000610 -0.0000746 -0.0001128 -0.0001776 0.0021067 0.0003650 -0.0006454 -0.0001685 0.0006044 0.0004477 -0.0008275 0.0002499 -0.0003097 0.0002110 0.0001071 0.0001321 -0.0002086 0.0002998 -0.0000127 0.0000624 0.0002776 -0.0001048 0.0005278 0.0000462 -0.0001469 -0.0000352 -0.0001074 0.0002380 -0.0006159 0.0004279 -0.0004530 0.0009856 -0.0010203 0.0005534 -0.0004768 0.0002795 -0.0004861 0.0001664 -0.0001866 0.0004289 -0.0005552 0.0003287 -0.0005065 0.0000922 0.0000990 0.0004196 -0.0006726 0.0001076 0.0000125 0.0000021 -0.0000213 0.0000456 -0.0000447 0.0000357 0.0003652 0.0001353 -0.0001048 0.0000892 0.0000716 -0.0000103 0.0003748 0.0000887 0.0001762 0.0004095 -0.0005055 0.0001564 0.0001881 0.0002789 0.0000137 -0.0000268 0.0000222 0.0000942 -0.0003620 0.0001716 -0.0000645 0.0000848 0.0000930 0.0000498 0.0004458 0.0002962 -0.0000241 -0.0000240 0.0001807 -0.0001640 0.0004839 0.0001984 -0.0001764 -0.0000712 0.0001430 -0.0000387 0.0001765 -0.0000316 0.0001555 0.0000968 0.0001617 0.0001974 0.0002158 0.0002098 0.0000731 0.0002356 -0.0000561 -0.0000197 0.0000754 -0.0002361 0.0002365 0.0000630 -0.0000469 0.0000063 0.0000682 -0.0000139 0.0004507
