-0.0000000 -0.0000000 -0.0000000 -0.0000000 -0.0000000 -0.0000000 -0.0000000 -0.0000000 -0.0000000 -0.0000000 -0.0000000 -0.0000000 -0.0000000 -0.0000000 -0.0000000 -0.0000000 -0.0000000 -0.0000000 -0.0000000 -0.0000000 -0.0000000 -0.0000000 -0.0000000 -0.0000000 -0.0000000 -0.0000000 -0.0000000 -0.0000000 -0.0000000 -0.0000000 -0.0000000 -0.0000000 -0.0000000 -0.0000000 -0.0000000 -0.0000000 -0.0000000 -0.0000000 -0.0000000 -0.0000000
-0.0000000 -0.0000000 -0.0000000 -0.0000000 -0.0000000 -0.0000000 -0.0000000 -0.0000000 -0.0000000 -0.0000000 -0.0000000 -0.0000000 -0.0000000 -0.0000000 -0.0000000 -0.0000000 -0.0000000 -0.0000000 -0.0000000 -0.0000000 -0.0000000 -0.0000000 -0.0000000 -0.0000000 -0.0000000 -0.0000000 -0.0000000 -0.0000000 -0.0000000 -0.0000000 -0.0000000 -0.0000000 -0.0000000 -0.0000000 -0.0000000 -0.0000000 -0.0000000 -0.0000000 -0.0000000 -0.0000000
0.0000038 -0.0000579 -0.0000001 -0.0000370 -0.0000073 -0.0000956 -0.0000010 -0.0001474 0.0000081 -0.0001066 0.0000033 -0.0001140 0.0000322 -0.0001119 -0.0000234 -0.0001090 0.0000361 -0.0001442 -0.0000163 -0.0000505 0.0000010 -0.0002405 -0.0000120 -0.0001328 0.0000007 -0.0001637 -0.0000003 -0.0001794 0.0000047 -0.0001249 -0.0000039 -0.0001974 -0.0000029 -0.0000780 -0.0000265 -0.0002988 -0.0000012 -0.0002323 -0.0000041 -0.0002711
0.0000055 -0.0003096 -0.0000137 -0.0002855 -0.0000143 -0.0004060 -0.0000048 -0.0005406 0.0000022 -0.0002984 0.0000203 -0.0003439 0.0000480 -0.0003083 -0.0000151 -0.0003156 0.0001273 -0.0003985 -0.0000138 -0.0002554 0.0000106 -0.0003041 -0.0000054 -0.0002473 0.0000018 -0.0002204 0.0000357 -0.0002959 0.0000154 -0.0002372 -0.0000003 -0.0002444 0.0000119 -0.0001648 -0.0000259 -0.0003895 0.0000076 -0.0002020 0.0000014 -0.0001840
0.0000024 -0.0002253 -0.0000169 -0.0002387 -0.0000123 -0.0002992 0.0000073 -0.0003960 0.0000317 -0.0002575 0.0000213 -0.0002507 -0.0000020 -0.0002504 0.0000123 -0.0002656 0.0000834 -0.0003968 0.0000231 -0.0002574 0.0000149 -0.0001957 0.0000154 -0.0002093 0.0000108 -0.0001636 0.0000183 -0.0002053 0.0000134 -0.0002063 0.0000050 -0.0001643 0.0000133 -0.0001398 -0.0000097 -0.0002424 0.0000199 -0.0001246 0.0000069 -0.0000710
0.0000011 -0.0001158 -0.0000065 -0.0001248 -0.0000081 -0.0001484 0.0000169 -0.0002028 0.0000395 -0.0001548 0.0000358 -0.0001422 -0.0000249 -0.0001405 0.0000260 -0.0001419 -0.0000270 -0.0001263 0.0000577 -0.0002040 0.0000112 -0.0000175 0.0000128 -0.0001030 0.0000019 -0.0000313 -0.0000074 -0.0000709 -0.0000020 -0.0001059 0.0000117 -0.0000439 -0.0000032 -0.0000602 0.0000049 -0.0000081 0.0000178 0.0000335 0.0000148 0.0001130
-0.0000044 0.0000560 0.0000013 0.0000286 0.0000029 0.0000902 0.0000213 0.0000982 0.0000246 0.0000325 0.0000252 0.0000689 -0.0000326 0.0000333 0.0000126 0.0000457 0.0001353 -0.0000956 0.0000290 -0.0000340 0.0000022 0.0002171 0.0000115 0.0000475 -0.0000036 0.0001459 0.0000077 0.0000646 0.0000158 0.0000126 0.0000055 0.0001546 -0.0000088 0.0000381 0.0000239 0.0002700 0.0000084 0.0002141 0.0000306 0.0002950
-0.0000083 0.0002308 0.0000360 0.0001596 0.0000141 0.0003321 0.0000214 0.0004013 0.0000157 0.0002331 0.0000035 0.0002818 0.0000081 0.0001791 -0.0000286 0.0002550 0.0000291 0.0001931 0.0000009 0.0001179 -0.0000037 0.0004396 -0.0000286 0.0002885 -0.0000036 0.0003087 0.0000063 0.0002209 0.0000054 0.0001665 -0.0000201 0.0003813 -0.0000012 0.0001429 0.0000351 0.0004816 0.0000043 0.0002317 0.0000289 0.0002656
-0.0000078 0.0001685 0.0000332 0.0001598 -0.0000007 0.0001636 0.0000117 0.0001757 0.0000095 0.0000880 0.0000030 0.0001078 0.0000304 0.0000702 0.0000047 0.0000704 0.0000321 0.0000220 -0.0000128 0.0000581 -0.0000006 0.0001320 -0.0000070 0.0000971 0.0000022 0.0001148 -0.0000137 0.0000456 -0.0000169 0.0000624 -0.0000143 0.0001426 -0.0000003 0.0000508 -0.0000083 0.0000820 0.0000114 -0.0000733 0.0000085 -0.0001131
-0.0000067 -0.0001647 0.0000087 -0.0001494 -0.0000199 -0.0003238 0.0000060 -0.0004557 -0.0000072 -0.0002788 0.0000309 -0.0003307 0.0000410 -0.0002609 0.0000652 -0.0004289 0.0000194 -0.0003745 -0.0000391 -0.0002530 0.0000083 -0.0003884 0.0000586 -0.0003743 0.0000076 -0.0002501 0.0000008 -0.0003814 -0.0000031 -0.0002792 0.0000101 -0.0003061 0.0000033 -0.0001885 -0.0000598 -0.0005529 0.0000175 -0.0003058 0.0000043 -0.0003504
-0.0000090 -0.0003236 0.0000098 -0.0003928 -0.0000275 -0.0004411 0.0000132 -0.0006135 -0.0000075 -0.0003568 0.0000465 -0.0004191 0.0000784 -0.0004259 0.0000465 -0.0005499 -0.0000136 -0.0004356 0.0000186 -0.0004925 0.0000211 -0.0004033 0.0000445 -0.0004522 0.0000025 -0.0002835 0.0000210 -0.0005036 0.0000138 -0.0004130 0.0000060 -0.0003500 -0.0000008 -0.0002564 -0.0000535 -0.0005934 0.0000185 -0.0002608 0.0000038 -0.0002514
-0.0000127 -0.0002543 -0.0000065 -0.0003315 -0.0000217 -0.0003339 0.0000218 -0.0004705 0.0000118 -0.0002946 0.0000337 -0.0003150 0.0000367 -0.0003830 0.0000139 -0.0004374 0.0000098 -0.0004856 0.0000638 -0.0004935 0.0000309 -0.0002967 0.0000432 -0.0004137 0.0000055 -0.0002195 0.0000328 -0.0004729 0.0000213 -0.0003995 0.0000075 -0.0002787 -0.0000207 -0.0002194 -0.0000334 -0.0004233 0.0000209 -0.0001585 0.0000010 -0.0000840
-0.0000164 -0.0001183 0.0000019 -0.0002076 -0.0000030 -0.0001468 0.0000315 -0.0002242 0.0000288 -0.0001644 0.0000197 -0.0001386 0.0000170 -0.0002752 0.0000212 -0.0002830 -0.0001204 -0.0002843 0.0000079 -0.0002972 0.0000224 -0.0000605 0.0000280 -0.0002825 0.0000082 -0.0000663 0.0000322 -0.0003299 0.0000336 -0.0003036 -0.0000076 -0.0000640 -0.0000185 -0.0001384 -0.0000107 -0.0001185 0.0000242 0.0000147 0.0000153 0.0001378
-0.0000174 0.0000691 0.0000100 -0.0000347 0.0000051 0.0001028 0.0000354 0.0001091 0.0000356 0.0000128 0.0000076 0.0000869 -0.0000158 -0.0000925 0.0000356 -0.0000941 -0.0000121 -0.0001354 -0.0000565 -0.0000581 0.0000094 0.0002104 0.0000148 -0.0000913 0.0000027 0.0001377 0.0000187 -0.0001030 0.0000046 -0.0001147 -0.0000162 0.0001627 -0.0000101 -0.0000313 0.0000117 0.0002006 0.0000147 0.0002178 0.0000276 0.0003491
-0.0000190 0.0002609 0.0000143 0.0001303 0.0000058 0.0003660 0.0000354 0.0004495 0.0000045 0.0002238 -0.0000050 0.0003178 -0.0000242 0.0001220 0.0000291 0.0001308 0.0000817 -0.0000125 -0.0000365 0.0001079 0.0000176 0.0004624 0.0000297 0.0001219 0.0000017 0.0003353 0.0000002 0.0001287 -0.0000302 0.0001104 -0.0000118 0.0003847 0.0000002 0.0000825 0.0000334 0.0004810 0.0000007 0.0003213 0.0000263 0.0004131
-0.0000155 0.0002799 0.0000111 0.0002165 -0.0000062 0.0002665 0.0000291 0.0003181 0.0000071 0.0001219 -0.0000070 0.0001905 0.0000587 0.0000008 0.0000033 0.0000512 -0.0000367 0.0000100 -0.0000257 0.0000763 0.0000212 0.0001568 0.0000007 -0.0000357 -0.0000039 0.0001640 -0.0000275 -0.0000632 -0.0000188 -0.0000082 -0.0000251 0.0001731 -0.0000043 -0.0000024 -0.0000090 0.0000976 0.0000004 0.0000233 0.0000167 0.0000044
-0.0000130 -0.0000580 0.0000214 -0.0001046 -0.0000314 -0.0002246 0.0000227 -0.0003160 0.0000255 -0.0002734 0.0000308 -0.0002793 0.0000890 -0.0003843 0.0000012 -0.0003756 -0.0001395 -0.0002759 -0.0000545 -0.0002565 0.0000232 -0.0004069 -0.0000251 -0.0004570 -0.0000058 -0.0002185 -0.0000106 -0.0005419 0.0000043 -0.0004014 -0.0000178 -0.0003075 -0.0000174 -0.0002387 -0.0000681 -0.0006255 0.0000069 -0.0003025 0.0000035 -0.0003675
-0.0000139 -0.0003365 -0.0000001 -0.0004340 -0.0000406 -0.0004697 0.0000307 -0.0006238 0.0000428 -0.0004614 0.0000581 -0.0004789 0.0000904 -0.0006063 0.0000351 -0.0006183 0.0000339 -0.0006677 -0.0000062 -0.0005450 0.0000279 -0.0004578 -0.0000334 -0.0005603 -0.0000007 -0.0003175 0.0000234 -0.0006952 0.0000205 -0.0005878 0.0000018 -0.0004321 -0.0000241 -0.0003408 -0.0000641 -0.0007599 0.0000149 -0.0003211 0.0000039 -0.0003199
-0.0000162 -0.0003133 -0.0000271 -0.0003929 -0.0000373 -0.0004249 0.0000364 -0.0005330 0.0000574 -0.0004321 0.0000461 -0.0004148 0.0000297 -0.0005909 0.0000424 -0.0005776 0.0002774 -0.0009301 0.0000064 -0.0005751 0.0000214 -0.0003289 0.0000152 -0.0005655 0.0000029 -0.0002785 0.0000081 -0.0006535 0.0000265 -0.0005988 0.0000132 -0.0003986 -0.0000202 -0.0003392 -0.0000452 -0.0006062 0.0000151 -0.0002453 0.0000099 -0.0001809
-0.0000200 -0.0002025 -0.0000133 -0.0003019 -0.0000290 -0.0002709 0.0000408 -0.0003159 0.0000361 -0.0002806 0.0000438 -0.0002709 -0.0000420 -0.0004164 0.0000793 -0.0004685 0.0001900 -0.0007717 -0.0000142 -0.0004591 0.0000124 -0.0001199 0.0000544 -0.0004995 0.0000077 -0.0001497 0.0000178 -0.0005680 0.0000077 -0.0004910 0.0000103 -0.0002556 -0.0000146 -0.0002725 -0.0000183 -0.0003196 0.0000143 -0.0000792 0.0000180 0.0000429
-0.0000228 -0.0000244 0.0000051 -0.0001473 -0.0000255 -0.0000303 0.0000459 0.0000035 0.0000295 -0.0000867 0.0000184 -0.0000374 0.0000059 -0.0002892 0.0000454 -0.0002238 0.0000835 -0.0004974 -0.0000474 -0.0002166 -0.0000061 0.0001519 0.0000354 -0.0002915 -0.0000016 0.0000532 0.0000377 -0.0004140 -0.0000190 -0.0003026 -0.0000139 -0.0000419 -0.0000174 -0.0001572 0.0000113 0.0000100 0.0000159 0.0001025 0.0000294 0.0002612
-0.0000299 0.0001700 0.0000110 0.0000504 -0.0000226 0.0002270 0.0000462 0.0003484 0.0000228 0.0001136 -0.0000194 0.0002241 0.0000482 -0.0001654 -0.0000084 0.0000772 -0.0000821 -0.0001953 -0.0000566 -0.0000025 -0.0000201 0.0004320 0.0000151 -0.0000452 -0.0000110 0.0002631 0.0000414 -0.0001908 -0.0000209 -0.0001079 -0.0000211 0.0002002 -0.0000104 -0.0000279 0.0000325 0.0003480 0.0000168 0.0003209 0.0000342 0.0004981
-0.0000373 0.0003803 0.0000118 0.0002735 -0.0000170 0.0005371 0.0000504 0.0007086 0.0000253 0.0003240 -0.0000046 0.0003911 0.0000140 0.0000579 0.0000283 0.0002665 -0.0001540 0.0000595 -0.0000154 0.0001469 -0.0000167 0.0004996 -0.0000198 0.0000967 -0.0000182 0.0003264 0.0000022 -0.0001029 -0.0000075 -0.0000123 -0.0000232 0.0002311 -0.0000120 0.0000490 0.0000098 0.0003834 0.0000054 0.0001789 0.0000203 0.0002475
-0.0000351 0.0001468 0.0000062 0.0000990 -0.0000408 0.0001872 0.0000331 0.0002627 0.0000140 0.0000731 0.0000165 0.0000471 -0.0000372 -0.0001003 0.0000647 -0.0000660 -0.0002102 -0.0001193 -0.0000373 -0.0000334 -0.0000004 0.0000683 -0.0000134 -0.0002017 -0.0000215 0.0000456 -0.0000160 -0.0004307 -0.0000112 -0.0002436 -0.0000087 -0.0001866 -0.0000194 -0.0001106 -0.0000492 -0.0002219 0.0000041 -0.0002282 0.0000046 -0.0002800
-0.0000279 -0.0003049 -0.0000211 -0.0003035 -0.0000687 -0.0004651 0.0000203 -0.0004920 0.0000077 -0.0003930 0.0000217 -0.0004442 -0.0000169 -0.0005341 0.0000322 -0.0005122 -0.0002754 -0.0004095 -0.0000624 -0.0004095 0.0000187 -0.0003315 -0.0000153 -0.0005408 -0.0000117 -0.0002515 0.0000266 -0.0008058 -0.0000122 -0.0005697 -0.0000100 -0.0005171 -0.0000087 -0.0003340 -0.0000743 -0.0007361 0.0000163 -0.0003602 0.0000012 -0.0003757
-0.0000287 -0.0003774 -0.0000315 -0.0003776 -0.0000669 -0.0005533 0.0000330 -0.0005440 0.0000256 -0.0004657 0.0000394 -0.0005091 0.0000368 -0.0007096 -0.0000126 -0.0005364 -0.0001319 -0.0006151 0.0000066 -0.0005638 0.0000305 -0.0003291 -0.0000265 -0.0005813 -0.0000122 -0.0003051 0.0000230 -0.0008498 0.0000106 -0.0006769 -0.0000111 -0.0005452 -0.0000018 -0.0003877 -0.0000644 -0.0007225 0.0000164 -0.0003378 0.0000062 -0.0002968
-0.0000271 -0.0003208 -0.0000065 -0.0003396 -0.0000661 -0.0004709 0.0000392 -0.0004068 0.0000155 -0.0003748 0.0000529 -0.0004573 -0.0000159 -0.0006692 0.0000209 -0.0005001 -0.0000100 -0.0006832 0.0000170 -0.0005215 0.0000212 -0.0001878 -0.0000084 -0.0005427 -0.0000138 -0.0002613 0.0000006 -0.0007857 0.0000021 -0.0006320 0.0000147 -0.0005326 -0.0000087 -0.0003658 -0.0000409 -0.0005482 0.0000173 -0.0002456 0.0000142 -0.0001340
-0.0000325 -0.0001907 0.0000015 -0.0002212 -0.0000644 -0.0002776 0.0000409 -0.0001412 0.0000124 -0.0002308 0.0000191 -0.0002739 -0.0000102 -0.0005390 0.0000222 -0.0003247 0.0000572 -0.0005421 -0.0000185 -0.0003416 -0.0000055 0.0000660 -0.0000104 -0.0004241 -0.0000121 -0.0001197 0.0000301 -0.0006560 -0.0000129 -0.0005022 0.0000061 -0.0003752 -0.0000089 -0.0002759 -0.0000078 -0.0002605 0.0000129 -0.0000894 0.0000192 0.0000805
-0.0000385 -0.0000170 -0.0000001 -0.0000381 -0.0000549 -0.0000649 0.0000396 0.0001646 0.0000291 -0.0000910 0.0000027 -0.0000709 -0.0000312 -0.0003204 -0.0000305 -0.0000492 0.0000441 -0.0003731 -0.0000037 -0.0001829 -0.0000030 0.0002818 0.0000119 -0.0002934 -0.0000206 0.0000458 0.0000770 -0.0005088 0.0000025 -0.0003573 -0.0000075 -0.0001584 -0.0000116 -0.0001476 0.0000141 0.0000486 -0.0000001 0.0001017 0.0000219 0.0002874
-0.0000374 0.0001588 0.0000046 0.0001262 -0.0000519 0.0001783 0.0000414 0.0004731 0.0000232 0.0001221 0.0000137 0.0001174 -0.0000868 -0.0000909 -0.0000238 0.0001769 0.0002164 -0.0003223 -0.0000096 -0.0000283 0.0000048 0.0004739 -0.0000137 -0.0000535 -0.0000261 0.0001899 0.0000855 -0.0003852 -0.0000185 -0.0001590 -0.0000151 0.0000005 -0.0000114 -0.0000383 0.0000212 0.0002370 -0.0000107 0.0000654 0.0000129 0.0001704
-0.0000326 0.0000361 0.0000236 0.0000594 -0.0000653 -0.0000518 0.0000276 0.0001847 0.0000129 -0.0000245 0.0000060 -0.0000890 -0.0000602 -0.0002662 -0.0000035 -0.0000238 0.0000936 -0.0002881 -0.0000367 -0.0001095 0.0000030 0.0001582 -0.0000209 -0.0002412 -0.0000295 -0.0000115 0.0000273 -0.0005250 -0.0000318 -0.0002878 -0.0000209 -0.0002687 -0.0000061 -0.0001445 -0.0000227 -0.0001785 -0.0000026 -0.0002430 0.0000022 -0.0002305
-0.0000285 -0.0002870 0.0000321 -0.0002224 -0.0000913 -0.0005232 0.0000138 -0.0003881 0.0000096 -0.0003708 0.0000108 -0.0005152 0.0000105 -0.0006834 0.0000174 -0.0004288 -0.0002143 -0.0004184 -0.0000135 -0.0004019 0.0000194 -0.0003043 0.0000026 -0.0006249 -0.0000312 -0.0003218 -0.0000368 -0.0007715 -0.0000268 -0.0005962 -0.0000040 -0.0006612 -0.0000056 -0.0003376 -0.0000589 -0.0006892 0.0000115 -0.0004146 0.0000049 -0.0003820
-0.0000300 -0.0003839 0.0000085 -0.0003208 -0.0000971 -0.0006163 0.0000231 -0.0004667 0.0000186 -0.0004306 0.0000102 -0.0005815 0.0001157 -0.0008544 0.0000043 -0.0004809 0.0000325 -0.0007683 0.0000268 -0.0005233 0.0000297 -0.0003273 -0.0000157 -0.0006426 -0.0000300 -0.0003757 -0.0000353 -0.0008288 -0.0000180 -0.0006771 0.0000041 -0.0007169 -0.0000127 -0.0003763 -0.0000441 -0.0007088 0.0000129 -0.0003960 0.0000067 -0.0003072
-0.0000331 -0.0003380 -0.0000017 -0.0002497 -0.0000937 -0.0005544 0.0000302 -0.0003405 0.0000386 -0.0003698 0.0000057 -0.0005304 0.0000871 -0.0007928 -0.0000146 -0.0003762 0.0000336 -0.0006147 0.0000116 -0.0004676 0.0000159 -0.0001829 0.0000036 -0.0006201 -0.0000300 -0.0003326 0.0000040 -0.0008230 -0.0000158 -0.0006264 0.0000012 -0.0006589 -0.0000105 -0.0003391 -0.0000215 -0.0005657 0.0000019 -0.0002850 0.0000128 -0.0001535
-0.0000413 -0.0002130 0.0000054 -0.0001210 -0.0000873 -0.0003800 0.0000319 -0.0000883 0.0000306 -0.0002131 -0.0000025 -0.0003768 0.0000763 -0.0006726 0.0000016 -0.0002153 -0.0001992 -0.0003504 -0.0000170 -0.0002983 -0.0000127 0.0000796 0.0000093 -0.0004759 -0.0000359 -0.0001687 0.0000361 -0.0006850 -0.0000290 -0.0004613 -0.0000106 -0.0004670 -0.0000010 -0.0002505 0.0000066 -0.0002672 -0.0000050 -0.0001030 0.0000139 0.0000708
-0.0000388 -0.0000435 0.0000119 0.0000524 -0.0000781 -0.0001470 0.0000392 0.0002115 0.0000342 -0.0000305 -0.0000144 -0.0001641 0.0000136 -0.0004366 -0.0000514 0.0000492 -0.0001511 -0.0002157 -0.0000425 -0.0000744 -0.0000334 0.0003208 -0.0000043 -0.0002387 -0.0000407 0.0000140 0.0000299 -0.0004582 -0.0000217 -0.0002949 -0.0000128 -0.0002216 -0.0000017 -0.0001299 0.0000260 0.0000731 0.0000008 0.0000856 0.0000186 0.0002899
-0.0000316 0.0001247 0.0000089 0.0002403 -0.0000786 0.0000556 0.0000377 0.0004442 0.0000177 0.0001139 -0.0000000 -0.0000884 -0.0000321 -0.0002830 -0.0000605 0.0001398 -0.0000353 -0.0000938 -0.0000203 0.0000243 -0.0000276 0.0001929 -0.0000056 -0.0002519 -0.0000464 -0.0000465 -0.0000518 -0.0004248 -0.0000079 -0.0002972 0.0000054 -0.0003312 -0.0000145 -0.0001092 0.0000004 -0.0000862 -0.0000028 -0.0001120 0.0000131 -0.0000171
-0.0000304 -0.0001187 -0.0000215 0.0000563 -0.0000902 -0.0003013 0.0000223 -0.0000318 0.0000109 -0.0001512 -0.0000008 -0.0004255 0.0000663 -0.0005959 -0.0000282 -0.0001873 0.0001469 -0.0005714 0.0000187 -0.0002786 -0.0000057 -0.0003032 -0.0000256 -0.0005757 -0.0000528 -0.0003781 -0.0000226 -0.0008231 0.0000111 -0.0005928 0.0000219 -0.0007832 -0.0000160 -0.0002949 -0.0000559 -0.0007179 0.0000067 -0.0005191 -0.0000011 -0.0005139
-0.0000279 -0.0005206 -0.0000312 -0.0003364 -0.0001008 -0.0008211 0.0000229 -0.0006647 0.0000221 -0.0005113 0.0000084 -0.0008208 0.0000817 -0.0009575 -0.0000377 -0.0005258 0.0000783 -0.0009014 0.0000429 -0.0006359 0.0000046 -0.0005671 -0.0000475 -0.0008406 -0.0000433 -0.0006004 0.0000477 -0.0011179 0.0000084 -0.0008262 0.0000342 -0.0010142 0.0000016 -0.0004585 -0.0000712 -0.0010153 0.0000190 -0.0006051 0.0000022 -0.0005673
-0.0000259 -0.0005749 -0.0000084 -0.0004049 -0.0000977 -0.0008796 0.0000310 -0.0006932 0.0000138 -0.0005473 0.0000330 -0.0008840 0.0000747 -0.0010458 -0.0000350 -0.0005535 0.0000252 -0.0008779 0.0000337 -0.0006678 -0.0000058 -0.0005286 -0.0000585 -0.0008675 -0.0000432 -0.0006079 0.0000638 -0.0011099 0.0000030 -0.0008280 0.0000378 -0.0009995 0.0000022 -0.0004730 -0.0000534 -0.0009420 0.0000176 -0.0005383 0.0000115 -0.0004611
-0.0000238 -0.0005037 -0.0000053 -0.0003067 -0.0000864 -0.0007662 0.0000290 -0.0005447 0.0000166 -0.0004469 0.0000137 -0.0007825 0.0000217 -0.0009586 0.0000219 -0.0004743 -0.0000514 -0.0006944 0.0000051 -0.0005497 -0.0000141 -0.0003576 -0.0000420 -0.0007645 -0.0000481 -0.0004931 0.0001056 -0.0010135 0.0000309 -0.0007727 0.0000330 -0.0008702 -0.0000103 -0.0004123 -0.0000255 -0.0007016 0.0000096 -0.0003689 0.0000182 -0.0002420
-0.0000263 -0.0003401 -0.0000229 -0.0001238 -0.0000712 -0.0005369 0.0000323 -0.0002566 0.0000143 -0.0002527 -0.0000086 -0.0005694 -0.0000419 -0.0007489 0.0000305 -0.0002754 -0.0000554 -0.0004791 -0.0000071 -0.0003406 -0.0000255 -0.0001145 -0.0000174 -0.0005865 -0.0000394 -0.0003182 0.0000813 -0.0007832 0.0000392 -0.0006162 0.0000379 -0.0006362 -0.0000193 -0.0002907 0.0000044 -0.0003576 0.0000018 -0.0001636 0.0000293 0.0000029
-0.0000265 -0.0001475 -0.0000211 0.0000647 -0.0000603 -0.0002756 0.0000384 0.0000695 0.0000299 -0.0000627 -0.0000159 -0.0003378 -0.0000311 -0.0005449 0.0000003 0.0000202 0.0000542 -0.0002433 -0.0000104 -0.0001443 -0.0000425 0.0001584 -0.0000075 -0.0003970 -0.0000354 -0.0001162 0.0000857 -0.0005218 0.0000006 -0.0003801 0.0000414 -0.0003471 -0.0000152 -0.0001459 0.0000369 -0.0000097 0.0000039 -0.0000246 0.0000318 0.0001684
-0.0000180 -0.0000280 -0.0000151 0.0002162 -0.0000591 -0.0002469 0.0000256 0.0000882 0.0000412 -0.0001016 -0.0000319 -0.0003498 0.0000247 -0.0005330 -0.0000063 -0.0000336 0.0001040 -0.0002765 -0.0000026 -0.0001004 -0.0000449 -0.0001202 -0.0000206 -0.0005141 -0.0000478 -0.0002373 0.0000948 -0.0006679 -0.0000001 -0.0004251 0.0000411 -0.0005115 -0.0000136 -0.0001870 -0.0000003 -0.0003176 0.0000081 -0.0002777 0.0000130 -0.0002163
-0.0000091 -0.0003320 -0.0000064 -0.0000661 -0.0000728 -0.0006922 0.0000133 -0.0005065 0.0000162 -0.0004305 -0.0000131 -0.0007837 0.0000372 -0.0008624 0.0000092 -0.0004388 0.0000374 -0.0005975 0.0000086 -0.0003767 -0.0000396 -0.0007126 -0.0000527 -0.0009091 -0.0000532 -0.0006277 0.0000402 -0.0010262 0.0000365 -0.0007985 0.0000433 -0.0010073 -0.0000102 -0.0004190 -0.0000721 -0.0010367 0.0000250 -0.0006553 0.0000007 -0.0006962
-0.0000056 -0.0007183 0.0000063 -0.0004561 -0.0000792 -0.0010661 0.0000201 -0.0009863 0.0000052 -0.0006306 0.0000368 -0.0011248 0.0000027 -0.0011491 0.0000228 -0.0006484 -0.0000310 -0.0008050 0.0000208 -0.0006266 -0.0000282 -0.0008463 -0.0000291 -0.0011594 -0.0000410 -0.0008014 0.0000362 -0.0011764 0.0000404 -0.0010004 0.0000575 -0.0011819 -0.0000014 -0.0005551 -0.0000744 -0.0012371 0.0000309 -0.0007020 0.0000068 -0.0007027
-0.0000048 -0.0007495 -0.0000095 -0.0004507 -0.0000676 -0.0010809 0.0000255 -0.0009840 0.0000394 -0.0006369 0.0000340 -0.0011126 -0.0000025 -0.0011660 0.0000469 -0.0006475 0.0000650 -0.0008573 0.0000730 -0.0006867 -0.0000267 -0.0007586 0.0000080 -0.0011518 -0.0000348 -0.0007918 0.0000905 -0.0012094 0.0000293 -0.0009591 0.0000834 -0.0011444 -0.0000082 -0.0005439 -0.0000520 -0.0011021 0.0000284 -0.0006097 0.0000177 -0.0005646
0.0000024 -0.0006574 0.0000121 -0.0003673 -0.0000573 -0.0009357 0.0000322 -0.0008129 0.0000748 -0.0005442 0.0000255 -0.0009820 0.0000234 -0.0010684 0.0000604 -0.0005279 0.0000345 -0.0007436 0.0000860 -0.0006258 -0.0000384 -0.0005704 -0.0000063 -0.0010002 -0.0000298 -0.0006608 0.0000892 -0.0010446 0.0000351 -0.0008492 0.0000805 -0.0009685 -0.0000116 -0.0004631 -0.0000209 -0.0008114 0.0000295 -0.0004319 0.0000194 -0.0003132
0.0000061 -0.0004744 0.0000129 -0.0001861 -0.0000454 -0.0006754 0.0000314 -0.0004887 0.0000418 -0.0003102 0.0000543 -0.0007942 0.0000861 -0.0009499 0.0000399 -0.0002624 -0.0000050 -0.0005188 0.0000368 -0.0003892 -0.0000476 -0.0003044 -0.0000213 -0.0007967 -0.0000341 -0.0004438 0.0000719 -0.0007779 0.0000451 -0.0006777 0.0000791 -0.0007202 -0.0000049 -0.0003433 0.0000181 -0.0004466 0.0000250 -0.0002159 0.0000250 -0.0000598
0.0000034 -0.0002536 -0.0000127 0.0000284 -0.0000275 -0.0003928 0.0000310 -0.0001280 0.0000097 -0.0000704 0.0000503 -0.0005305 0.0001383 -0.0007690 0.0000139 0.0000129 0.0000170 -0.0002787 0.0000214 -0.0000993 -0.0000537 -0.0000220 -0.0000296 -0.0005327 -0.0000461 -0.0002001 0.0000623 -0.0004974 0.0000499 -0.0004387 0.0000899 -0.0004366 -0.0000105 -0.0001705 0.0000504 -0.0000569 0.0000242 0.0000222 0.0000349 0.0002184
0.0000026 -0.0000111 -0.0000073 0.0002385 -0.0000153 -0.0000772 0.0000383 0.0002256 0.0000360 0.0001173 0.0000190 -0.0002666 0.0000728 -0.0004540 0.0000023 0.0001907 0.0001391 -0.0002494 -0.0000028 0.0001529 -0.0000581 -0.0000288 -0.0000365 -0.0004419 -0.0000548 -0.0001667 0.0000795 -0.0004984 0.0000539 -0.0003197 0.0000977 -0.0004203 -0.0000040 -0.0001065 0.0000330 -0.0000866 0.0000196 -0.0001290 0.0000245 -0.0000380
0.0000110 -0.0002328 -0.0000001 0.0000381 -0.0000249 -0.0003980 0.0000335 -0.0002457 0.0000347 -0.0001316 0.0000428 -0.0005985 0.0000088 -0.0006303 -0.0000103 -0.0000792 0.0000817 -0.0004013 -0.0000304 -0.0000628 -0.0000597 -0.0004861 -0.0000272 -0.0007740 -0.0000551 -0.0004728 0.0000873 -0.0008200 0.0000732 -0.0005711 0.0000876 -0.0007898 0.0000073 -0.0002866 -0.0000347 -0.0007029 0.0000210 -0.0005247 0.0000008 -0.0005706
0.0000208 -0.0006778 0.0000002 -0.0003793 -0.0000363 -0.0009812 0.0000351 -0.0010113 0.0000495 -0.0005511 0.0000803 -0.0011053 0.0000309 -0.0010645 0.0000207 -0.0005347 0.0000196 -0.0006894 0.0000071 -0.0004848 -0.0000302 -0.0008447 -0.0000107 -0.0010829 -0.0000388 -0.0007436 0.0000955 -0.0010578 0.0000763 -0.0008400 0.0001110 -0.0010726 0.0000021 -0.0004647 -0.0000590 -0.0011018 0.0000303 -0.0006203 0.0000013 -0.0006464
0.0000226 -0.0007462 -0.0000198 -0.0004368 -0.0000294 -0.0010490 0.0000461 -0.0010773 0.0000496 -0.0005752 0.0001032 -0.0011677 0.0000989 -0.0011884 0.0000589 -0.0006051 -0.0000528 -0.0007065 0.0000591 -0.0006027 -0.0000019 -0.0008622 -0.0000047 -0.0011190 -0.0000310 -0.0007818 0.0000657 -0.0010244 0.0000676 -0.0008766 0.0001372 -0.0010745 0.0000014 -0.0004850 -0.0000423 -0.0010341 0.0000349 -0.0005641 0.0000111 -0.0005295
0.0000218 -0.0006652 -0.0000243 -0.0003721 -0.0000168 -0.0009404 0.0000461 -0.0009178 0.0000319 -0.0004667 0.0001006 -0.0010722 0.0000765 -0.0010826 0.0000322 -0.0004710 -0.0001374 -0.0006199 0.0000565 -0.0005314 -0.0000236 -0.0006934 -0.0000118 -0.0010022 -0.0000256 -0.0006900 0.0000445 -0.0008945 0.0000841 -0.0007954 0.0001183 -0.0009185 0.0000083 -0.0004306 -0.0000196 -0.0007859 0.0000301 -0.0004190 0.0000213 -0.0003183
0.0000237 -0.0005015 -0.0000120 -0.0002261 0.0000023 -0.0007243 0.0000431 -0.0006205 0.0000430 -0.0002988 0.0001198 -0.0008845 0.0000785 -0.0009137 -0.0000087 -0.0002191 -0.0001834 -0.0004457 0.0000525 -0.0003425 -0.0000414 -0.0004336 -0.0000392 -0.0007637 -0.0000203 -0.0005017 0.0000914 -0.0007159 0.0000731 -0.0005796 0.0001260 -0.0007103 0.0000112 -0.0003129 0.0000147 -0.0004320 0.0000291 -0.0002207 0.0000295 -0.0000695
0.0000244 -0.0002889 -0.0000269 -0.0000277 0.0000157 -0.0004558 0.0000465 -0.0002847 0.0000499 -0.0000780 0.0001312 -0.0006519 0.0001392 -0.0007508 -0.0000055 0.0000188 0.0000082 -0.0003095 0.0000475 -0.0001147 -0.0000305 -0.0001924 0.0000181 -0.0005951 -0.0000264 -0.0002725 0.0001029 -0.0004760 0.0000727 -0.0003662 0.0001258 -0.0004335 0.0000059 -0.0001597 0.0000479 -0.0000736 0.0000288 -0.0000033 0.0000330 0.0001850
0.0000270 -0.0000682 -0.0000177 0.0001618 0.0000267 -0.0001508 0.0000560 0.0000733 0.0000218 0.0001809 0.0000857 -0.0003394 0.0000815 -0.0004192 0.0000276 0.0002271 0.0001227 -0.0000832 -0.0000019 0.0001579 -0.0000386 0.0001213 0.0000504 -0.0003487 -0.0000315 -0.0000196 0.0000618 -0.0001589 0.0000659 -0.0001219 0.0001191 -0.0001058 -0.0000096 0.0000174 0.0000757 0.0002665 0.0000143 0.0001268 0.0000336 0.0002700
0.0000382 -0.0000360 -0.0000078 0.0002636 0.0000310 -0.0002224 0.0000565 -0.0000387 0.0000015 0.0000996 0.0000943 -0.0004499 0.0000314 -0.0003601 0.0000178 0.0001591 -0.0000222 0.0000256 0.0000524 0.0001216 -0.0000453 -0.0001173 0.0000340 -0.0004204 -0.0000387 -0.0001431 0.0000796 -0.0003151 0.0000676 -0.0001810 0.0001318 -0.0002867 -0.0000188 -0.0000240 0.0000332 -0.0000681 0.0000114 -0.0001007 0.0000217 -0.0000767
0.0000426 -0.0003199 0.0000034 -0.0000291 0.0000185 -0.0006250 0.0000490 -0.0005972 0.0000276 -0.0002398 0.0001038 -0.0008292 0.0000605 -0.0006792 -0.0000033 -0.0001749 0.0000295 -0.0002813 0.0001023 -0.0002095 -0.0000220 -0.0006125 0.0000425 -0.0007372 -0.0000358 -0.0004729 0.0001153 -0.0006842 0.0000789 -0.0004559 0.0001426 -0.0006862 -0.0000123 -0.0002138 -0.0000246 -0.0006591 0.0000239 -0.0003346 0.0000148 -0.0003476
0.0000444 -0.0005215 0.0000015 -0.0002893 0.0000179 -0.0007856 0.0000559 -0.0008215 0.0000366 -0.0003132 0.0000836 -0.0008767 0.0000128 -0.0007579 -0.0000282 -0.0002635 0.0000061 -0.0004309 0.0000431 -0.0003180 -0.0000095 -0.0006116 -0.0000007 -0.0007398 -0.0000238 -0.0005300 0.0000842 -0.0006385 0.0000697 -0.0004975 0.0001441 -0.0007156 0.0000057 -0.0002725 -0.0000197 -0.0007015 0.0000252 -0.0002986 0.0000166 -0.0002698
0.0000487 -0.0004813 -0.0000102 -0.0002379 0.0000315 -0.0007218 0.0000676 -0.0007131 0.0000241 -0.0002309 0.0001019 -0.0007903 0.0000494 -0.0006822 0.0000133 -0.0002253 -0.0001393 -0.0003229 0.0000354 -0.0002104 -0.0000070 -0.0004785 0.0000007 -0.0006440 -0.0000179 -0.0004578 0.0000906 -0.0005381 0.0000652 -0.0004198 0.0001407 -0.0006215 0.0000125 -0.0002375 0.0000031 -0.0005209 0.0000242 -0.0001677 0.0000271 -0.0001205
0.0000485 -0.0003600 -0.0000080 -0.0001086 0.0000509 -0.0005615 0.0000782 -0.0004704 0.0000160 -0.0000595 0.0001166 -0.0006041 0.0001660 -0.0006320 0.0000175 -0.0000501 0.0000970 -0.0003670 0.0000734 -0.0000830 -0.0000012 -0.0002556 0.0000242 -0.0004583 -0.0000189 -0.0002724 0.0000774 -0.0003273 0.0000683 -0.0002589 0.0001612 -0.0004414 0.0000135 -0.0001204 0.0000345 -0.0001836 0.0000245 0.0000350 0.0000416 0.0001279
0.0000462 -0.0001513 -0.0000120 0.0000856 0.0000666 -0.0002859 0.0000831 -0.0001071 0.0000210 0.0001709 0.0000967 -0.0003037 0.0001000 -0.0003748 -0.0000153 0.0002380 0.0001662 -0.0001214 0.0000550 0.0001332 -0.0000092 0.0000461 0.0000143 -0.0001745 -0.0000255 -0.0000443 0.0000467 -0.0000280 0.0000880 -0.0000610 0.0001730 -0.0001698 0.0000193 0.0000261 0.0000627 0.0001901 0.0000170 0.0002515 0.0000455 0.0003924
0.0000456 0.0000852 -0.0000070 0.0002920 0.0000780 0.0000611 0.0000931 0.0002791 0.0000483 0.0003863 0.0000960 -0.0000431 0.0000214 -0.0000302 0.0000345 0.0004544 -0.0000157 0.0003364 0.0000234 0.0003748 -0.0000195 0.0003867 0.0000099 0.0001336 -0.0000315 0.0002009 0.0000770 0.0002274 0.0000920 0.0001901 0.0001409 0.0001716 0.0000258 0.0001715 0.0000848 0.0005761 0.0000133 0.0005085 0.0000475 0.0006941
0.0000485 0.0003388 -0.0000048 0.0005453 0.0000951 0.0004659 0.0001041 0.0006953 0.0000392 0.0006625 0.0001097 0.0002216 0.0000045 0.0003074 0.0000378 0.0007150 -0.0000766 0.0006003 -0.0000291 0.0006748 -0.0000178 0.0006575 -0.0000083 0.0003944 -0.0000318 0.0003847 0.0000775 0.0004368 0.0000857 0.0003976 0.0001157 0.0003868 0.0000231 0.0003132 0.0000895 0.0007832 0.0000111 0.0004507 0.0000357 0.0005391
0.0000575 0.0001695 0.0000120 0.0004117 0.0000766 0.0001735 0.0000832 0.0003109 -0.0000085 0.0004638 0.0001416 -0.0000362 0.0000586 0.0001425 -0.0000083 0.0005198 0.0000277 0.0003625 0.0000009 0.0005600 -0.0000198 0.0002669 0.0000099 0.0001354 -0.0000296 0.0001350 0.0000671 0.0002121 0.0000852 0.0002435 0.0001376 0.0000173 0.0000205 0.0002005 0.0000300 0.0002213 0.0000077 0.0000852 0.0000214 0.0000025
0.0000687 -0.0002681 -0.0000338 0.0000310 0.0000545 -0.0005066 0.0000754 -0.0005031 -0.0000267 0.0000138 0.0001653 -0.0005729 0.0000888 -0.0002939 0.0000097 0.0000100 0.0002125 -0.0001306 0.0000419 0.0001103 -0.0000041 -0.0002976 0.0000421 -0.0002713 -0.0000231 -0.0002379 0.0000666 -0.0001292 0.0000943 -0.0000424 0.0001483 -0.0004306 0.0000280 -0.0000370 -0.0000231 -0.0004431 0.0000091 -0.0000832 0.0000206 -0.0001732
0.0000655 -0.0003744 -0.0000355 -0.0001217 0.0000651 -0.0006370 0.0000938 -0.0006472 0.0000203 -0.0000891 0.0001550 -0.0006441 0.0000852 -0.0003905 0.0000151 -0.0000956 0.0000829 -0.0001096 -0.0000118 -0.0000305 0.0000182 -0.0003234 0.0000402 -0.0002931 -0.0000172 -0.0003132 0.0000426 -0.0001232 0.0001069 -0.0001259 0.0001413 -0.0004762 0.0000206 -0.0000778 -0.0000169 -0.0004777 0.0000030 -0.0000579 0.0000230 -0.0000863
0.0000619 -0.0003092 0.0000121 -0.0001358 0.0000778 -0.0005518 0.0001035 -0.0005168 0.0000206 -0.0000080 0.0001383 -0.0005174 0.0000948 -0.0003217 0.0000015 -0.0000004 0.0000304 0.0000487 -0.0000132 0.0000333 0.0000173 -0.0001694 0.0000600 -0.0002078 -0.0000201 -0.0002523 0.0000442 0.0000008 0.0001101 -0.0000814 0.0001548 -0.0004052 0.0000199 -0.0000379 0.0000042 -0.0002856 -0.0000022 0.0000385 0.0000275 0.0000920
0.0000659 -0.0001672 -0.0000029 -0.0000020 0.0000852 -0.0003402 0.0001050 -0.0002403 -0.0000117 0.0001861 0.0001390 -0.0003236 0.0000626 -0.0001563 -0.0000182 0.0002278 0.0000462 0.0002224 -0.0000236 0.0002237 0.0000152 0.0000960 0.0000683 0.0000060 -0.0000256 -0.0000949 0.0000369 0.0002341 0.0000981 0.0000988 0.0001568 -0.0001933 0.0000303 0.0000529 0.0000378 0.0000555 -0.0000085 0.0002143 0.0000377 0.0003252
0.0000669 0.0000417 -0.0000105 0.0002220 0.0000953 -0.0000674 0.0001045 0.0001288 0.0000245 0.0003650 0.0001439 -0.0000647 0.0000775 0.0000789 -0.0000067 0.0004740 -0.0000528 0.0004726 -0.0000161 0.0004412 0.0000186 0.0003848 0.0000483 0.0002637 -0.0000306 0.0000962 0.0000365 0.0004803 0.0000909 0.0003192 0.0001445 0.0000861 0.0000304 0.0001844 0.0000686 0.0004296 -0.0000211 0.0004429 0.0000454 0.0005770
0.0000686 0.0002702 -0.0000208 0.0004496 0.0001077 0.0002526 0.0001071 0.0005211 0.0000328 0.0005989 0.0001326 0.0002127 0.0000763 0.0003576 0.0000375 0.0007083 -0.0002017 0.0009324 -0.0000164 0.0006445 0.0000041 0.0006850 0.0000438 0.0005380 -0.0000406 0.0003337 0.0000370 0.0007408 0.0000767 0.0005583 0.0001295 0.0004008 0.0000348 0.0003390 0.0000937 0.0008251 -0.0000247 0.0007012 0.0000512 0.0008859
0.0000681 0.0005511 -0.0000062 0.0007022 0.0001193 0.0006394 0.0001175 0.0009297 -0.0000110 0.0009002 0.0001285 0.0004684 0.0000214 0.0006910 0.0000185 0.0009722 -0.0001421 0.0011263 -0.0000087 0.0008126 -0.0000225 0.0008183 0.0000183 0.0007256 -0.0000496 0.0004216 0.0000422 0.0008186 0.0000720 0.0007071 0.0001163 0.0004621 0.0000288 0.0004504 0.0000865 0.0008903 -0.0000320 0.0005535 0.0000362 0.0006222
0.0000700 0.0003120 0.0000256 0.0004677 0.0001022 0.0002406 0.0001039 0.0004149 -0.0000253 0.0006371 0.0001313 0.0001475 0.0000371 0.0004981 -0.0000126 0.0006492 0.0001246 0.0006723 0.0000371 0.0005871 -0.0000129 0.0003488 0.0000433 0.0003966 -0.0000487 0.0001130 0.0000534 0.0004995 0.0000868 0.0004741 0.0001163 0.0000377 0.0000154 0.0002890 0.0000268 0.0002312 -0.0000323 0.0001015 0.0000162 0.0000000
0.0000792 -0.0002140 -0.0000021 -0.0000181 0.0000776 -0.0005160 0.0000905 -0.0004818 -0.0000092 0.0001040 0.0001371 -0.0003907 0.0000411 0.0000630 -0.0000125 0.0001227 -0.0000175 0.0004297 0.0000805 0.0001666 0.0000215 -0.0001360 0.0000889 0.0000338 -0.0000399 -0.0002210 0.0000627 0.0002084 0.0000936 0.0001606 0.0001306 -0.0003511 0.0000344 0.0000380 -0.0000074 -0.0003637 -0.0000187 -0.0000827 0.0000196 -0.0001533
0.0000813 -0.0002964 -0.0000507 -0.0000943 0.0000790 -0.0006403 0.0000995 -0.0005910 0.0000034 0.0000153 0.0001423 -0.0004525 0.0000555 -0.0000154 0.0000051 0.0000372 -0.0000921 0.0004329 0.0000706 0.0000552 0.0000350 -0.0001496 0.0000379 0.0000756 -0.0000236 -0.0003235 0.0000444 0.0002468 0.0001105 0.0000865 0.0001297 -0.0003935 0.0000449 -0.0000226 -0.0000014 -0.0003685 -0.0000149 -0.0000756 0.0000201 -0.0000707
0.0000746 -0.0002033 -0.0000253 -0.0000644 0.0000884 -0.0005466 0.0001060 -0.0004410 0.0000208 0.0000871 0.0001346 -0.0003556 0.0000927 0.0000177 0.0000311 0.0001198 -0.0001099 0.0005436 0.0000524 0.0001178 0.0000283 0.0000037 -0.0000082 0.0001812 -0.0000276 -0.0002565 0.0000139 0.0004185 0.0000930 0.0001699 0.0001290 -0.0003045 0.0000396 0.0000194 0.0000208 -0.0001490 -0.0000265 0.0000409 0.0000219 0.0001126
0.0000743 -0.0000380 -0.0000067 0.0000768 0.0001021 -0.0003338 0.0001091 -0.0001469 -0.0000028 0.0002907 0.0001253 -0.0001414 0.0000493 0.0002402 0.0000431 0.0003160 0.0000959 0.0004569 0.0000296 0.0003050 0.0000173 0.0002682 -0.0000008 0.0003623 -0.0000335 -0.0000705 0.0000289 0.0005700 0.0000709 0.0003608 0.0001229 -0.0001008 0.0000337 0.0001399 0.0000567 0.0002019 -0.0000366 0.0002151 0.0000326 0.0003501
0.0000807 0.0001728 -0.0000285 0.0003209 0.0001170 -0.0000660 0.0001150 0.0002122 -0.0000029 0.0005215 0.0001155 0.0001160 -0.0000169 0.0005260 0.0000183 0.0005878 0.0000618 0.0007421 -0.0000071 0.0005240 0.0000027 0.0005431 0.0000234 0.0005593 -0.0000349 0.0001186 0.0000427 0.0007500 0.0001019 0.0005354 0.0001145 0.0001885 0.0000429 0.0002602 0.0000825 0.0005851 -0.0000427 0.0004133 0.0000426 0.0005869
0.0000777 0.0004120 0.0000006 0.0005160 0.0001314 0.0002694 0.0001239 0.0006007 0.0000036 0.0007449 0.0000976 0.0003973 -0.0000168 0.0007469 0.0000179 0.0008668 -0.0001072 0.0010789 -0.0000078 0.0007312 -0.0000103 0.0008336 -0.0000001 0.0008221 -0.0000473 0.0003445 0.0000308 0.0010391 0.0000943 0.0007461 0.0001146 0.0005157 0.0000465 0.0004038 0.0001098 0.0009795 -0.0000435 0.0006427 0.0000512 0.0008705
0.0000729 0.0006877 -0.0000001 0.0007728 0.0001360 0.0005917 0.0001261 0.0009480 -0.0000334 0.0009317 0.0001024 0.0005945 -0.0000165 0.0009489 0.0000109 0.0010167 0.0002783 0.0007903 0.0000004 0.0008894 -0.0000133 0.0007614 -0.0000035 0.0008656 -0.0000519 0.0003084 0.0000042 0.0010538 0.0000674 0.0008340 0.0001198 0.0004436 0.0000330 0.0004699 0.0000922 0.0009143 -0.0000555 0.0004393 0.0000300 0.0005640
0.0000769 0.0004153 -0.0000253 0.0005364 0.0001134 0.0001508 0.0001096 0.0003936 -0.0000472 0.0006253 0.0001292 0.0002296 -0.0000710 0.0008008 0.0000111 0.0006756 0.0001004 0.0007030 0.0000124 0.0006450 0.0000023 0.0002297 0.0000444 0.0005204 -0.0000499 -0.0000446 0.0000174 0.0007104 0.0000719 0.0005773 0.0001079 -0.0000145 0.0000439 0.0002869 0.0000267 0.0002571 -0.0000630 0.0000018 0.0000048 -0.0000186
0.0000802 -0.0000616 -0.0000240 0.0000500 0.0000934 -0.0004921 0.0000995 -0.0003809 -0.0000366 0.0002147 0.0001143 -0.0001847 -0.0000229 0.0004370 0.0000006 0.0002865 -0.0000346 0.0005934 0.0000038 0.0002908 0.0000200 -0.0000775 0.0000512 0.0003004 -0.0000435 -0.0002697 0.0000365 0.0004965 0.0000804 0.0003381 0.0001025 -0.0002571 0.0000466 0.0001105 -0.0000051 -0.0001648 -0.0000553 -0.0001229 0.0000034 -0.0001085
0.0000793 -0.0000980 -0.0000211 -0.0000261 0.0000990 -0.0005598 0.0001059 -0.0004340 -0.0000279 0.0001685 0.0001137 -0.0002087 0.0000170 0.0003691 -0.0000239 0.0002244 0.0000223 0.0005417 -0.0000361 0.0002363 0.0000281 -0.0000529 0.0000274 0.0003208 -0.0000449 -0.0003139 0.0000147 0.0005106 0.0000896 0.0003002 0.0001170 -0.0002681 0.0000385 0.0000899 0.0000059 -0.0001508 -0.0000529 -0.0001106 0.0000086 -0.0000391
0.0000789 -0.0000261 -0.0000259 0.0000457 0.0001048 -0.0004801 0.0001150 -0.0003093 -0.0000305 0.0002370 0.0001699 -0.0001758 0.0000025 0.0004135 -0.0000283 0.0002664 -0.0001320 0.0007081 -0.0000340 0.0002671 0.0000225 0.0000944 0.0000446 0.0003810 -0.0000459 -0.0002576 0.0000220 0.0006198 0.0001027 0.0003331 0.0001004 -0.0001559 0.0000458 0.0001305 0.0000351 0.0000356 -0.0000509 -0.0000035 0.0000214 0.0001266
0.0000770 0.0001380 -0.0000152 0.0001920 0.0001137 -0.0002608 0.0001183 -0.0000079 -0.0000335 0.0003912 0.0001581 0.0000503 0.0000297 0.0005514 -0.0000222 0.0004584 -0.0000342 0.0007116 -0.0000141 0.0003960 0.0000139 0.0003464 0.0000331 0.0005664 -0.0000517 -0.0000870 0.0000327 0.0008063 0.0000932 0.0004749 0.0000860 0.0000615 0.0000562 0.0002234 0.0000591 0.0003598 -0.0000548 0.0001679 0.0000206 0.0003492
0.0000744 0.0003429 -0.0000175 0.0003763 0.0001305 -0.0000082 0.0001184 0.0003315 -0.0000297 0.0005873 0.0001203 0.0003177 0.0000518 0.0007624 -0.0000224 0.0006884 0.0000595 0.0007422 -0.0000102 0.0005707 0.0000096 0.0006150 -0.0000024 0.0008046 -0.0000592 0.0001095 0.0000112 0.0010163 0.0000578 0.0007057 0.0000959 0.0003277 0.0000596 0.0003485 0.0000796 0.0007051 -0.0000665 0.0003780 0.0000234 0.0005882
0.0000747 0.0005525 -0.0000370 0.0006034 0.0001383 0.0002481 0.0001273 0.0006098 -0.0000366 0.0007563 0.0000906 0.0005073 0.0000201 0.0009223 -0.0000171 0.0008249 -0.0000562 0.0010166 0.0000071 0.0007119 -0.0000032 0.0005609 0.0000350 0.0007887 -0.0000633 0.0000761 0.0000109 0.0010025 0.0000635 0.0007433 0.0001020 0.0002614 0.0000393 0.0003940 0.0000619 0.0006106 -0.0000717 0.0001934 0.0000132 0.0003006
0.0000774 0.0003069 -0.0000476 0.0003974 0.0001203 -0.0001016 0.0001113 0.0001241 -0.0000522 0.0004911 0.0000947 0.0001933 -0.0000228 0.0007480 -0.0000405 0.0005304 -0.0000775 0.0008780 -0.0000001 0.0005057 0.0000039 0.0000896 0.0000504 0.0005228 -0.0000647 -0.0002346 0.0000016 0.0007384 0.0000976 0.0004536 0.0001017 -0.0001557 0.0000244 0.0002398 0.0000070 0.0000177 -0.0000546 -0.0002152 -0.0000087 -0.0001925
0.0000777 -0.0000858 -0.0000252 -0.0000245 0.0001054 -0.0006338 0.0000983 -0.0005342 -0.0000381 0.0001287 0.0001353 -0.0002166 -0.0000020 0.0004559 -0.0000758 0.0001855 -0.0001329 0.0006719 0.0000387 0.0001129 0.0000262 -0.0001794 -0.0000271 0.0004120 -0.0000558 -0.0004422 0.0000122 0.0005271 0.0000824 0.0002628 0.0000998 -0.0003474 0.0000385 0.0000706 -0.0000101 -0.0003190 -0.0000469 -0.0003119 -0.0000107 -0.0002527
0.0000773 -0.0001017 -0.0000265 -0.0000730 0.0001055 -0.0006551 0.0001063 -0.0005510 -0.0000140 0.0001008 0.0001667 -0.0002320 -0.0000152 0.0004357 -0.0000142 0.0001129 -0.0002175 0.0007330 0.0000707 0.0000378 0.0000383 -0.0001666 -0.0000472 0.0004059 -0.0000490 -0.0004631 0.0000499 0.0004897 0.0000743 0.0002390 0.0001043 -0.0003041 0.0000498 0.0000432 0.0000078 -0.0002613 -0.0000539 -0.0002533 0.0000048 -0.0001654
0.0000762 -0.0000075 -0.0000529 0.0000291 0.0001121 -0.0005277 0.0001134 -0.0003872 -0.0000398 0.0002203 0.0001641 -0.0001083 -0.0000382 0.0005132 0.0000143 0.0001822 -0.0001289 0.0007160 0.0000257 0.0001392 0.0000261 -0.0000078 -0.0000205 0.0004381 -0.0000473 -0.0003552 0.0000304 0.0006299 0.0000829 0.0002856 0.0001137 -0.0001825 0.0000438 0.0001071 0.0000361 -0.0000251 -0.0000505 -0.0001133 0.0000158 0.0000407
0.0000720 0.0001767 -0.0000193 0.0001687 0.0001285 -0.0002824 0.0001247 -0.0000664 -0.0000357 0.0003841 0.0001474 0.0001320 -0.0000013 0.0006453 0.0000067 0.0003696 -0.0000700 0.0007170 0.0000185 0.0002858 0.0000161 0.0002614 -0.0000218 0.0006372 -0.0000503 -0.0001530 -0.0000065 0.0008519 0.0000855 0.0004506 0.0001067 0.0000429 0.0000326 0.0002308 0.0000637 0.0003236 -0.0000458 0.0000770 0.0000184 0.0002871
0.0000679 0.0003929 -0.0000022 0.0003643 0.0001420 -0.0000025 0.0001394 0.0002748 -0.0000165 0.0005938 0.0001289 0.0003908 0.0000158 0.0008179 -0.0000062 0.0006310 -0.0000525 0.0008679 -0.0000132 0.0004925 0.0000113 0.0005446 0.0000231 0.0008117 -0.0000523 0.0000636 -0.0000167 0.0010524 0.0000775 0.0006470 0.0000986 0.0003220 0.0000563 0.0003445 0.0000899 0.0006723 -0.0000478 0.0002526 0.0000225 0.0004781
0.0000708 0.0005355 0.0000143 0.0005249 0.0001429 0.0000821 0.0001314 0.0003562 -0.0000425 0.0006216 0.0001144 0.0004267 0.0000615 0.0008398 -0.0000166 0.0006443 -0.0000434 0.0009092 -0.0000420 0.0005616 -0.0000106 0.0003446 0.0000637 0.0006565 -0.0000599 -0.0000547 0.0000039 0.0009267 0.0000592 0.0006313 0.0001041 0.0001658 0.0000659 0.0002889 0.0000565 0.0003864 -0.0000463 -0.0000081 -0.0000045 0.0001180
0.0000722 0.0002293 0.0000337 0.0002190 0.0001298 -0.0003495 0.0001179 -0.0002287 -0.0000541 0.0002781 0.0001334 0.0000229 0.0000822 0.0005534 0.0000001 0.0002092 -0.0000121 0.0005623 0.0000082 0.0002177 0.0000072 -0.0002579 0.0000396 0.0003123 -0.0000576 -0.0004546 0.0000445 0.0004898 0.0000898 0.0002870 0.0000967 -0.0003009 0.0000476 0.0000806 -0.0000098 -0.0003328 -0.0000358 -0.0004120 -0.0000251 -0.0003858
0.0000685 -0.0001549 0.0000165 -0.0001811 0.0001168 -0.0007550 0.0001222 -0.0007648 -0.0000682 0.0000633 0.0001490 -0.0002904 0.0000498 0.0003317 -0.0000048 -0.0000927 0.0000351 0.0002680 0.0000276 -0.0001312 0.0000426 -0.0004819 0.0000377 0.0001118 -0.0000406 -0.0006345 0.0000204 0.0003243 0.0000977 0.0000637 0.0001028 -0.0004745 0.0000455 -0.0000441 -0.0000167 -0.0005816 -0.0000265 -0.0004881 -0.0000182 -0.0004154
0.0000667 -0.0001766 -0.0000095 -0.0002004 0.0001177 -0.0007538 0.0001270 -0.0007593 -0.0000600 0.0000603 0.0001494 -0.0002832 0.0000636 0.0002971 -0.0000300 -0.0001043 -0.0000818 0.0003559 0.0000229 -0.0001969 0.0000430 -0.0004111 0.0000592 0.0000789 -0.0000231 -0.0006511 0.0000222 0.0003523 0.0000827 0.0000614 0.0001134 -0.0004266 0.0000460 -0.0000576 0.0000057 -0.0004840 -0.0000206 -0.0004464 -0.0000186 -0.0002834
0.0000648 -0.0000796 -0.0000026 -0.0001194 0.0001277 -0.0006019 0.0001346 -0.0005751 -0.0000384 0.0001327 0.0001423 -0.0001301 0.0000542 0.0003506 -0.0000036 -0.0000190 -0.0000619 0.0003709 0.0000510 -0.0001393 0.0000317 -0.0002079 0.0000343 0.0002007 -0.0000147 -0.0005568 0.0000405 0.0004488 0.0000815 0.0001446 0.0001211 -0.0002967 0.0000469 -0.0000017 0.0000273 -0.0002092 -0.0000177 -0.0002908 -0.0000117 -0.0000564
0.0000593 0.0001078 0.0000014 0.0000496 0.0001403 -0.0003361 0.0001420 -0.0002421 -0.0000386 0.0003194 0.0001515 0.0000928 0.0000696 0.0005024 0.0000235 0.0001748 0.0001554 0.0002600 0.0000226 0.0000529 0.0000330 0.0000548 0.0000172 0.0003738 -0.0000322 -0.0003430 0.0000404 0.0006426 0.0000718 0.0003104 0.0001163 -0.0000847 0.0000430 0.0001197 0.0000561 0.0001411 -0.0000173 -0.0000870 0.0000072 0.0001749
0.0000545 0.0003173 -0.0000103 0.0002579 0.0001489 -0.0000428 0.0001492 0.0001140 -0.0000283 0.0005193 0.0001417 0.0003445 0.0000997 0.0006459 -0.0000035 0.0004190 0.0004078 0.0002043 0.0000210 0.0002331 0.0000320 0.0003120 0.0000439 0.0005626 -0.0000400 -0.0001142 0.0000273 0.0008456 0.0000742 0.0004941 0.0001082 0.0002036 0.0000389 0.0002622 0.0000824 0.0005034 -0.0000178 0.0001392 0.0000143 0.0004295
0.0000518 0.0005255 -0.0000232 0.0004730 0.0001530 0.0002206 0.0001548 0.0003974 -0.0000413 0.0006376 0.0001331 0.0004977 0.0000443 0.0007833 -0.0000116 0.0005240 0.0001129 0.0006235 0.0000429 0.0003754 0.0000154 0.0002258 0.0000635 0.0005275 -0.0000414 -0.0001526 0.0000150 0.0008036 0.0000695 0.0005307 0.0001165 0.0001423 0.0000428 0.0002598 0.0000527 0.0003602 -0.0000169 -0.0000523 -0.0000043 0.0001374
0.0000529 0.0002680 -0.0000323 0.0002450 0.0001366 -0.0001203 0.0001413 -0.0001006 -0.0000547 0.0003377 0.0001465 0.0001426 0.0000046 0.0006028 -0.0000200 0.0002061 -0.0003161 0.0007546 -0.0000065 0.0001389 0.0000135 -0.0002724 0.0000256 0.0002383 -0.0000378 -0.0005012 0.0000071 0.0004659 0.0000424 0.0002827 0.0001188 -0.0002785 0.0000482 0.0000496 -0.0000112 -0.0003237 0.0000010 -0.0004914 -0.0000200 -0.0004133
0.0000561 -0.0001643 -0.0000333 -0.0001966 0.0001232 -0.0006409 0.0001353 -0.0007904 -0.0000501 -0.0000151 0.0001576 -0.0002563 0.0000127 0.0002818 -0.0000174 -0.0001804 -0.0002164 0.0002978 -0.0000188 -0.0002394 0.0000304 -0.0005589 0.0000091 0.0000320 -0.0000159 -0.0007403 0.0000087 0.0002348 0.0000545 0.0000175 0.0001203 -0.0004917 0.0000462 -0.0001135 -0.0000281 -0.0006805 0.0000093 -0.0005879 -0.0000195 -0.0004789
0.0000545 -0.0002086 -0.0000236 -0.0002756 0.0001316 -0.0006650 0.0001477 -0.0008157 -0.0000479 -0.0000405 0.0001718 -0.0002791 0.0000111 0.0002144 -0.0000183 -0.0002825 -0.0001187 0.0001619 0.0000118 -0.0003415 0.0000392 -0.0005385 0.0000086 -0.0000169 -0.0000055 -0.0007613 0.0000311 0.0002019 0.0000928 -0.0000787 0.0001338 -0.0004698 0.0000420 -0.0001387 -0.0000156 -0.0006142 0.0000124 -0.0005223 -0.0000109 -0.0003590
0.0000520 -0.0001248 -0.0000180 -0.0002021 0.0001366 -0.0005259 0.0001512 -0.0006358 -0.0000313 0.0000130 0.0001599 -0.0001547 -0.0000144 0.0002766 -0.0000424 -0.0002248 -0.0000698 0.0000392 -0.0000017 -0.0003005 0.0000436 -0.0003931 0.0000539 -0.0000145 -0.0000057 -0.0006549 0.0000163 0.0003342 0.0000818 0.0000043 0.0001373 -0.0003382 0.0000448 -0.0000983 0.0000103 -0.0003842 0.0000190 -0.0003779 -0.0000064 -0.0001418
0.0000456 0.0000361 -0.0000329 -0.0000230 0.0001385 -0.0002954 0.0001610 -0.0003368 -0.0000202 0.0001699 0.0001484 0.0000452 0.0000372 0.0003345 -0.0000215 -0.0000312 -0.0000496 0.0001008 0.0000114 -0.0001672 0.0000359 -0.0001565 0.0000533 0.0001161 -0.0000084 -0.0004617 0.0000257 0.0004746 0.0000558 0.0001653 0.0001252 -0.0001228 0.0000444 0.0000090 0.0000403 -0.0000588 0.0000218 -0.0001774 -0.0000089 0.0001223
0.0000398 0.0002335 -0.0000320 0.0001780 0.0001455 -0.0000237 0.0001632 0.0000129 -0.0000274 0.0003838 0.0001552 0.0002673 0.0001012 0.0004405 0.0000104 0.0001802 0.0000518 0.0002169 0.0000723 -0.0000389 0.0000382 0.0000970 -0.0000001 0.0003203 -0.0000059 -0.0002489 0.0000713 0.0005809 0.0000354 0.0003503 0.0001261 0.0001255 0.0000457 0.0001364 0.0000643 0.0002780 0.0000220 0.0000600 0.0000081 0.0003645
0.0000351 0.0004400 -0.0000034 0.0003456 0.0001526 0.0002695 0.0001615 0.0003509 -0.0000344 0.0005613 0.0001317 0.0004984 0.0000909 0.0006188 -0.0000034 0.0003481 0.0000659 0.0003452 0.0000662 0.0001219 0.0000389 0.0001228 0.0000263 0.0003723 -0.0000028 -0.0002222 0.0000439 0.0006158 0.0000352 0.0004309 0.0001234 0.0001530 0.0000459 0.0001673 0.0000492 0.0002229 0.0000207 -0.0000631 0.0000044 0.0001291
0.0000312 0.0002417 -0.0000032 0.0001556 0.0001385 0.0000157 0.0001531 -0.0000412 -0.0000207 0.0003318 0.0001351 0.0002271 0.0000340 0.0004671 0.0000185 0.0000713 -0.0000562 0.0003144 0.0000625 -0.0000566 0.0000359 -0.0002648 0.0000380 0.0001399 -0.0000010 -0.0004628 0.0000364 0.0003515 0.0000471 0.0001918 0.0001212 -0.0001618 0.0000462 0.0000204 -0.0000024 -0.0003065 0.0000384 -0.0003760 -0.0000146 -0.0002765
0.0000317 -0.0000972 -0.0000190 -0.0001878 0.0001194 -0.0004121 0.0001529 -0.0006059 -0.0000267 0.0000218 0.0001546 -0.0001345 0.0000511 0.0001486 0.0000575 -0.0003294 0.0000021 -0.0000365 0.0000232 -0.0003288 0.0000485 -0.0005127 0.0000114 -0.0000445 0.0000120 -0.0006371 0.0000537 0.0001503 0.0000715 -0.0000392 0.0001221 -0.0003269 0.0000532 -0.0001171 -0.0000157 -0.0006050 0.0000506 -0.0004106 -0.0000137 -0.0002900
0.0000352 -0.0001098 -0.0000243 -0.0002176 0.0001182 -0.0004046 0.0001673 -0.0005890 -0.0000358 0.0000043 0.0001615 -0.0001070 0.0000809 0.0001318 0.0000526 -0.0003856 0.0001293 -0.0002182 0.0000139 -0.0003813 0.0000655 -0.0004494 0.0000434 -0.0000576 0.0000257 -0.0006320 0.0000478 0.0001770 0.0000761 -0.0000534 0.0001372 -0.0002841 0.0000557 -0.0001370 -0.0000058 -0.0005199 0.0000505 -0.0003348 -0.0000054 -0.0001726
0.0000331 -0.0000217 -0.0000020 -0.0001390 0.0001247 -0.0002702 0.0001629 -0.0004055 -0.0000296 0.0000774 0.0001568 0.0000183 -0.0000362 0.0003274 -0.0000391 -0.0002056 0.0002334 -0.0002446 0.0000562 -0.0003568 0.0000783 -0.0002823 0.0000802 -0.0000007 0.0000290 -0.0005015 0.0000943 0.0002319 0.0000534 0.0000559 0.0001589 -0.0001949 0.0000431 -0.0000701 0.0000174 -0.0002859 0.0000465 -0.0001686 0.0000082 0.0000450
0.0000267 0.0001458 -0.0000071 0.0000281 0.0001315 -0.0000242 0.0001681 -0.0000787 -0.0000282 0.0002495 0.0001437 0.0002432 -0.0000557 0.0004695 -0.0000645 0.0000445 0.0001380 0.0000541 0.0000453 -0.0001829 0.0000653 -0.0000031 0.0000846 0.0001902 0.0000156 -0.0002718 0.0000881 0.0004398 0.0000617 0.0002121 0.0001342 0.0000536 0.0000302 0.0000653 0.0000499 0.0000518 0.0000421 0.0000453 0.0000154 0.0003011
0.0000265 0.0003434 -0.0000098 0.0002226 0.0001383 0.0002495 0.0001747 0.0002616 -0.0000415 0.0004839 0.0001344 0.0004953 0.0000237 0.0005543 -0.0000098 0.0002244 -0.0001811 0.0005119 0.0000356 0.0000166 0.0000478 0.0002865 0.0000500 0.0004440 0.0000180 -0.0000550 0.0000460 0.0007116 0.0000654 0.0003814 0.0000863 0.0003486 0.0000370 0.0001946 0.0000701 0.0003655 0.0000414 0.0001278 0.0000152 0.0003610
0.0000277 0.0003578 0.0000224 0.0002649 0.0001208 0.0001829 0.0001581 0.0001449 -0.0000495 0.0003868 0.0001253 0.0003807 0.0000879 0.0004404 0.0000317 0.0000550 -0.0002039 0.0003991 0.0000400 -0.0000271 0.0000547 0.0000084 0.0000220 0.0003047 0.0000291 -0.0002267 0.0000337 0.0005220 0.0000396 0.0003068 0.0000940 0.0001498 0.0000387 0.0001056 0.0000257 -0.0000039 0.0000479 -0.0001449 -0.0000012 -0.0000196
0.0000245 0.0000625 -0.0000128 0.0000124 0.0000926 -0.0002205 0.0001498 -0.0004157 -0.0000555 0.0000456 0.0001564 -0.0000438 0.0001108 0.0001230 0.0000331 -0.0003412 -0.0000509 -0.0001053 0.0000189 -0.0003439 0.0000770 -0.0005456 0.0000403 -0.0001178 0.0000268 -0.0005935 0.0000671 0.0000870 0.0000287 0.0000019 0.0001052 -0.0002608 0.0000367 -0.0001222 -0.0000301 -0.0006522 0.0000545 -0.0004009 -0.0000126 -0.0003309
0.0000203 -0.0001561 -0.0000161 -0.0002529 0.0000903 -0.0004291 0.0001521 -0.0006462 -0.0000400 -0.0000682 0.0001772 -0.0001921 0.0000394 0.0000164 -0.0000017 -0.0004760 -0.0000842 -0.0002234 -0.0000017 -0.0005230 0.0000766 -0.0006059 0.0000361 -0.0002136 0.0000305 -0.0006829 0.0000998 -0.0000440 0.0000307 -0.0001259 0.0001080 -0.0003547 0.0000325 -0.0001989 -0.0000256 -0.0007533 0.0000528 -0.0003895 -0.0000102 -0.0002935
0.0000175 -0.0001378 -0.0000207 -0.0002345 0.0000922 -0.0003939 0.0001539 -0.0005467 -0.0000256 -0.0000332 0.0001565 -0.0001048 -0.0000258 0.0000694 0.0000077 -0.0004439 0.0000316 -0.0002238 0.0000269 -0.0005488 0.0000774 -0.0004751 0.0000062 -0.0001228 0.0000311 -0.0006212 0.0000635 0.0000752 0.0000461 -0.0001256 0.0001044 -0.0002799 0.0000197 -0.0001803 -0.0000018 -0.0006006 0.0000456 -0.0002888 -0.0000062 -0.0001488
0.0000139 -0.0000262 -0.0000371 -0.0001110 0.0000971 -0.0002507 0.0001605 -0.0003265 -0.0000227 0.0000612 0.0001299 0.0000892 0.0000293 0.0001215 0.0000301 -0.0003046 0.0002574 -0.0003139 0.0000771 -0.0004906 0.0000778 -0.0002569 0.0000214 -0.0000199 0.0000403 -0.0004790 0.0000653 0.0001970 0.0000306 -0.0000031 0.0000927 -0.0001016 0.0000220 -0.0001066 0.0000267 -0.0002970 0.0000482 -0.0001141 0.0000054 0.0000914
0.0000131 0.0001533 -0.0000090 0.0000438 0.0001003 -0.0000186 0.0001546 0.0000139 0.0000063 0.0002097 0.0001302 0.0002966 0.0000688 0.0002282 0.0000073 -0.0000605 0.0002115 -0.0000928 0.0000835 -0.0002736 0.0000718 0.0000091 0.0000407 0.0001518 0.0000451 -0.0002798 0.0000514 0.0003243 0.0000126 0.0001764 0.0000895 0.0001242 0.0000294 0.0000113 0.0000542 0.0000580 0.0000639 0.0000854 0.0000103 0.0003344
0.0000081 0.0003468 0.0000185 0.0002449 0.0000913 0.0002382 0.0001581 0.0003616 0.0000094 0.0004348 0.0001224 0.0005284 0.0000029 0.0004562 -0.0000354 0.0002264 -0.0000493 0.0002710 0.0000384 0.0000000 0.0000711 0.0002615 0.0000166 0.0003913 0.0000372 -0.0000537 0.0000287 0.0005320 0.0000365 0.0003385 0.0000744 0.0003461 0.0000276 0.0001456 0.0000730 0.0003083 0.0000629 0.0000950 -0.0000017 0.0002651
0.0000086 0.0002577 0.0000108 0.0002200 0.0000744 0.0000471 0.0001453 0.0000963 -0.0000100 0.0002828 0.0001564 0.0002824 -0.0000241 0.0003733 -0.0000175 0.0000282 0.0000100 0.0000212 0.0000135 -0.0000829 0.0000880 -0.0000840 0.0000015 0.0002334 0.0000346 -0.0002565 0.0000445 0.0003140 0.0000435 0.0001853 0.0000739 0.0000836 0.0000384 0.0000196 0.0000198 -0.0001687 0.0000559 -0.0002074 -0.0000174 -0.0001957
0.0000088 -0.0001013 -0.0000207 -0.0001083 0.0000557 -0.0004616 0.0001279 -0.0005705 -0.0000298 -0.0001243 0.0001861 -0.0002415 0.0000499 -0.0000603 -0.0000158 -0.0004351 0.0001641 -0.0004825 0.0000724 -0.0005496 0.0001120 -0.0006481 0.0000078 -0.0001864 0.0000386 -0.0006672 0.0000287 -0.0000871 0.0000523 -0.0001977 0.0000730 -0.0003456 0.0000356 -0.0002437 -0.0000346 -0.0008540 0.0000639 -0.0004393 -0.0000248 -0.0004547
-0.0000008 -0.0002778 -0.0000212 -0.0003140 0.0000497 -0.0006523 0.0001339 -0.0007542 -0.0000466 -0.0002070 0.0001443 -0.0003231 0.0000896 -0.0002601 0.0000021 -0.0006035 0.0000397 -0.0005201 0.0000957 -0.0007784 0.0001088 -0.0007042 0.0000493 -0.0003812 0.0000421 -0.0007628 0.0000724 -0.0002736 0.0000638 -0.0003405 0.0000786 -0.0004280 0.0000270 -0.0003281 -0.0000255 -0.0009388 0.0000613 -0.0004409 -0.0000161 -0.0004162
-0.0000053 -0.0002570 -0.0000084 -0.0002990 0.0000552 -0.0006251 0.0001387 -0.0006395 -0.0000316 -0.0001322 0.0001435 -0.0002413 0.0000465 -0.0002548 0.0000149 -0.0005595 -0.0001271 -0.0004044 0.0000699 -0.0007077 0.0000973 -0.0005701 0.0000773 -0.0003827 0.0000456 -0.0007028 0.0000664 -0.0002267 0.0000514 -0.0002949 0.0000799 -0.0003574 0.0000186 -0.0002992 -0.0000069 -0.0007602 0.0000611 -0.0003353 -0.0000047 -0.0002568
-0.0000083 -0.0001403 0.0000077 -0.0001923 0.0000576 -0.0004777 0.0001441 -0.0004072 -0.0000136 0.0000064 0.0001243 -0.0000818 0.0000329 -0.0001554 0.0000152 -0.0003791 -0.0001126 -0.0003057 0.0000230 -0.0005077 0.0000893 -0.0003395 0.0000709 -0.0002427 0.0000573 -0.0005463 0.0000588 -0.0000428 0.0000547 -0.0001756 0.0000633 -0.0001644 0.0000198 -0.0002128 0.0000265 -0.0004381 0.0000645 -0.0001540 0.0000001 -0.0000027
-0.0000114 0.0000510 0.0000200 -0.0000074 0.0000587 -0.0002330 0.0001454 -0.0000723 0.0000010 0.0001735 0.0000842 0.0001463 0.0000218 0.0000673 -0.0000268 -0.0000921 0.0001519 -0.0003560 0.0000066 -0.0002939 0.0000877 -0.0000782 0.0000998 -0.0000925 0.0000558 -0.0003302 0.0000955 0.0001194 0.0000656 -0.0000167 0.0000514 0.0000896 0.0000234 -0.0000867 0.0000605 -0.0000769 0.0000604 0.0000584 0.0000099 0.0002369
-0.0000127 0.0002579 -0.0000093 0.0002330 0.0000669 0.0000474 0.0001472 0.0002941 0.0000084 0.0003478 0.0000773 0.0004014 0.0000653 0.0002247 -0.0000463 0.0001539 0.0001765 -0.0002063 0.0000446 -0.0001069 0.0000796 0.0002239 0.0000732 0.0001648 0.0000465 -0.0000836 0.0000843 0.0003453 0.0000341 0.0002149 0.0000339 0.0003791 0.0000177 0.0000686 0.0000836 0.0002465 0.0000523 0.0001416 0.0000093 0.0002610
-0.0000057 0.0002591 -0.0000206 0.0002890 0.0000560 -0.0000555 0.0001288 0.0001378 -0.0000166 0.0002609 0.0000660 0.0002601 0.0000245 0.0001813 0.0000389 -0.0000494 -0.0000626 0.0000054 0.0000599 -0.0001610 0.0000613 -0.0000553 0.0000322 0.0000681 0.0000354 -0.0002350 0.0000740 0.0001599 0.0000228 0.0001113 0.0000361 0.0001596 0.0000252 -0.0000156 0.0000331 -0.0001415 0.0000543 -0.0001224 -0.0000123 -0.0001337
-0.0000093 -0.0000417 -0.0000180 -0.0000234 0.0000299 -0.0005259 0.0001092 -0.0004733 -0.0000237 -0.0000750 0.0000751 -0.0001826 -0.0000921 -0.0000328 0.0001074 -0.0004852 -0.0002173 -0.0002131 0.0000611 -0.0004719 0.0000572 -0.0006119 0.0000247 -0.0002941 0.0000352 -0.0006150 0.0000632 -0.0002371 0.0000396 -0.0002318 0.0000538 -0.0002970 0.0000263 -0.0002396 -0.0000273 -0.0008093 0.0000662 -0.0003788 -0.0000277 -0.0004375
-0.0000185 -0.0002491 -0.0000048 -0.0002810 0.0000214 -0.0007412 0.0001112 -0.0007026 0.0000049 -0.0002192 0.0000863 -0.0003415 -0.0000157 -0.0002406 0.0000930 -0.0006218 0.0000421 -0.0006107 0.0000288 -0.0006043 0.0000773 -0.0006923 0.0000281 -0.0003930 0.0000450 -0.0007165 0.0000656 -0.0003458 0.0000207 -0.0003300 0.0000509 -0.0003632 0.0000230 -0.0003223 -0.0000208 -0.0009114 0.0000650 -0.0003838 -0.0000238 -0.0004160
-0.0000168 -0.0002380 0.0000158 -0.0002717 0.0000265 -0.0007099 0.0001129 -0.0006161 0.0000120 -0.0001584 0.0000797 -0.0002803 0.0000533 -0.0002977 0.0000650 -0.0005352 0.0001894 -0.0007193 0.0000466 -0.0006044 0.0000913 -0.0005683 0.0000507 -0.0003918 0.0000404 -0.0006444 0.0000569 -0.0002822 0.0000061 -0.0002994 0.0000214 -0.0002714 0.0000020 -0.0002930 -0.0000021 -0.0007571 0.0000673 -0.0003039 -0.0000101 -0.0002822
-0.0000230 -0.0001294 0.0000198 -0.0001823 0.0000272 -0.0005615 0.0001037 -0.0003896 -0.0000156 0.0000012 0.0000980 -0.0001563 0.0000461 -0.0002241 0.0000705 -0.0003767 0.0001200 -0.0005479 0.0000732 -0.0005212 0.0000865 -0.0003287 0.0000168 -0.0002322 0.0000397 -0.0004779 0.0000926 -0.0001748 0.0000173 -0.0001908 0.0000107 -0.0001134 0.0000009 -0.0002008 0.0000259 -0.0004565 0.0000682 -0.0001334 -0.0000009 -0.0000442
-0.0000291 0.0000540 0.0000241 0.0000003 0.0000364 -0.0003298 0.0001032 -0.0000718 -0.0000208 0.0001913 0.0000940 0.0000279 0.0000614 -0.0000902 0.0000642 -0.0001577 0.0002773 -0.0004564 0.0000963 -0.0003162 0.0000679 -0.0000436 0.0000144 -0.0000412 0.0000399 -0.0002831 0.0001130 -0.0000412 0.0000079 -0.0000133 0.0000268 0.0000898 0.0000232 -0.0000929 0.0000553 -0.0001237 0.0000574 0.0000769 0.0000032 0.0001901
-0.0000330 0.0002499 0.0000000 0.0002058 0.0000543 -0.0000766 0.0001115 0.0002497 -0.0000143 0.0004099 0.0000744 0.0002875 0.0000134 0.0001723 0.0000312 0.0001117 0.0001337 -0.0002034 0.0000716 -0.0000563 0.0000601 0.0002094 0.0000310 0.0001639 0.0000395 -0.0000963 0.0000761 0.0001512 -0.0000076 0.0001846 0.0000260 0.0002887 0.0000111 0.0000475 0.0000703 0.0001027 0.0000556 0.0000669 0.0000007 0.0000998
-0.0000262 0.0001642 -0.0000258 0.0001669 0.0000394 -0.0002277 0.0000914 -0.0000008 -0.0000294 0.0002657 0.0000812 0.0001158 -0.0000423 0.0001434 -0.0000067 -0.0000010 -0.0000154 -0.0001653 0.0000162 -0.0000624 0.0000875 -0.0001050 0.0000033 0.0000655 0.0000357 -0.0002537 0.0000720 -0.0000028 -0.0000081 0.0000712 0.0000163 0.0000859 -0.0000046 -0.0000226 0.0000233 -0.0002697 0.0000664 -0.0001955 -0.0000154 -0.0002635
-0.0000213 -0.0001171 -0.0000223 -0.0000719 0.0000194 -0.0006216 0.0000765 -0.0005422 -0.0000223 -0.0000610 0.0000604 -0.0002298 0.0000098 -0.0001819 -0.0000244 -0.0003373 0.0000444 -0.0003660 0.0000540 -0.0003635 0.0000993 -0.0005282 0.0000062 -0.0002383 0.0000291 -0.0005132 0.0000585 -0.0002352 0.0000123 -0.0001987 0.0000068 -0.0002164 -0.0000054 -0.0001952 -0.0000229 -0.0007232 0.0000748 -0.0003227 -0.0000267 -0.0003800
-0.0000274 -0.0001848 -0.0000055 -0.0001741 0.0000230 -0.0006909 0.0000841 -0.0005977 0.0000050 -0.0000909 0.0000415 -0.0002545 0.0000093 -0.0002298 -0.0000082 -0.0004095 -0.0000431 -0.0003699 0.0000706 -0.0004852 0.0000855 -0.0004831 0.0000327 -0.0002704 0.0000338 -0.0005314 0.0000665 -0.0002742 0.0000208 -0.0002407 0.0000118 -0.0002230 0.0000132 -0.0002378 -0.0000075 -0.0006989 0.0000706 -0.0002644 -0.0000225 -0.0002909
-0.0000290 -0.0001144 0.0000183 -0.0001128 0.0000217 -0.0005747 0.0000868 -0.0004345 0.0000103 0.0000143 0.0000700 -0.0002031 -0.0000548 -0.0001077 -0.0000060 -0.0002739 0.0000074 -0.0003267 0.0000781 -0.0004093 0.0000815 -0.0003596 0.0000250 -0.0001628 0.0000289 -0.0004368 0.0000786 -0.0002079 0.0000125 -0.0001663 0.0000057 -0.0001304 0.0000179 -0.0001879 0.0000212 -0.0005056 0.0000692 -0.0001223 -0.0000070 -0.0001197
-0.0000309 0.0000236 0.0000455 0.0000149 0.0000306 -0.0003662 0.0000894 -0.0001452 0.0000078 0.0001911 0.0000796 -0.0000016 -0.0000083 0.0000335 -0.0000071 -0.0000016 0.0000924 -0.0001725 0.0001136 -0.0002401 0.0000891 -0.0000988 0.0000241 0.0000095 0.0000215 -0.0002240 0.0000266 0.0000401 -0.0000083 0.0000259 -0.0000134 0.0001009 0.0000152 -0.0000583 0.0000569 -0.0001563 0.0000642 0.0000887 0.0000045 0.0001313
-0.0000340 0.0002191 0.0000624 0.0001763 0.0000490 -0.0000991 0.0000933 0.0002138 0.0000042 0.0004121 0.0000580 0.0002823 -0.0000366 0.0002697 -0.0000021 0.0002313 0.0000545 -0.0000481 0.0000928 0.0000021 0.0000807 0.0002419 0.0000152 0.0002623 0.0000299 -0.0000081 0.0000286 0.0002620 -0.0000277 0.0002592 -0.0000117 0.0003770 0.0000158 0.0000898 0.0000875 0.0002233 0.0000534 0.0003087 0.0000118 0.0003877
-0.0000387 0.0004333 0.0000572 0.0003969 0.0000601 0.0001787 0.0000875 0.0005387 0.0000128 0.0005934 0.0000289 0.0004814 -0.0000593 0.0004388 -0.0000024 0.0003735 0.0002561 -0.0000508 0.0000543 0.0002181 0.0000758 0.0002399 0.0000295 0.0003074 0.0000248 -0.0000021 0.0000467 0.0002797 -0.0000195 0.0003181 -0.0000205 0.0003600 0.0000116 0.0001350 0.0000658 0.0001560 0.0000539 0.0001387 -0.0000055 0.0001178
-0.0000369 0.0002258 -0.0000226 0.0002798 0.0000391 -0.0001141 0.0000649 0.0000828 -0.0000056 0.0003459 0.0000259 0.0001649 -0.0000622 0.0002644 -0.0000167 0.0001335 0.0002354 -0.0001258 0.0000637 -0.0000039 0.0000921 -0.0002057 0.0000322 0.0000458 0.0000096 -0.0002795 0.0000147 -0.0000012 -0.0000071 0.0000641 -0.0000132 -0.0000274 0.0000068 -0.0000252 -0.0000010 -0.0004448 0.0000648 -0.0002527 -0.0000253 -0.0004032
-0.0000317 -0.0001661 -0.0000405 -0.0000892 0.0000139 -0.0006115 0.0000562 -0.0005869 -0.0000027 -0.0000199 0.0000505 -0.0002693 -0.0000720 -0.0000354 -0.0000169 -0.0002310 -0.0000723 -0.0002026 0.0000724 -0.0003555 0.0001079 -0.0005021 0.0000265 -0.0001640 0.0000137 -0.0004938 0.0000512 -0.0002445 0.0000022 -0.0001789 0.0000052 -0.0002863 -0.0000059 -0.0001703 -0.0000262 -0.0007824 0.0000705 -0.0003421 -0.0000149 -0.0004913
-0.0000288 -0.0002147 0.0000032 -0.0001766 0.0000189 -0.0006495 0.0000633 -0.0006055 0.0000049 -0.0000217 0.0000767 -0.0002955 0.0000100 -0.0001687 0.0000400 -0.0003207 -0.0000641 -0.0002246 0.0000951 -0.0003692 0.0001043 -0.0004716 0.0000476 -0.0002182 0.0000247 -0.0005176 0.0000912 -0.0002624 0.0000113 -0.0002028 -0.0000088 -0.0002467 0.0000019 -0.0001928 0.0000014 -0.0007049 0.0000589 -0.0002631 -0.0000064 -0.0003729
-0.0000287 -0.0001247 0.0000165 -0.0001188 0.0000365 -0.0005273 0.0000716 -0.0004318 -0.0000174 0.0001187 0.0000722 -0.0001550 0.0000226 -0.0000794 0.0000263 -0.0001739 -0.0000289 -0.0001676 0.0001379 -0.0003018 0.0000859 -0.0002801 0.0000189 -0.0001048 0.0000226 -0.0004005 0.0000759 -0.0001295 0.0000008 -0.0000899 -0.0000289 -0.0001055 0.0000078 -0.0001349 0.0000344 -0.0004431 0.0000554 -0.0001129 -0.0000013 -0.0001455
-0.0000290 0.0000442 0.0000251 0.0000278 0.0000535 -0.0002874 0.0000735 -0.0001031 -0.0000105 0.0002944 0.0000423 0.0001010 -0.0000230 0.0001273 0.0000000 0.0001059 0.0000662 -0.0000624 0.0000957 -0.0001162 0.0000743 0.0000244 0.0000297 0.0001159 0.0000207 -0.0001956 0.0000367 0.0001085 0.0000009 0.0000992 -0.0000303 0.0001115 0.0000109 -0.0000034 0.0000657 -0.0000644 0.0000542 0.0000818 0.0000154 0.0001089
-0.0000299 0.0002510 0.0000405 0.0002459 0.0000577 0.0000096 0.0000715 0.0002682 -0.0000080 0.0004978 0.0000438 0.0003355 0.0000172 0.0002805 0.0000188 0.0003353 0.0001120 0.0001685 0.0000681 0.0001267 0.0000710 0.0003281 0.0000336 0.0003459 0.0000094 0.0000354 0.0000382 0.0003258 0.0000052 0.0003210 -0.0000132 0.0003707 0.0000175 0.0001502 0.0000944 0.0003347 0.0000445 0.0003146 0.0000184 0.0003802
-0.0000331 0.0004869 0.0000308 0.0004985 0.0000662 0.0003767 0.0000733 0.0006689 -0.0000234 0.0007612 0.0000237 0.0006321 0.0000118 0.0005291 -0.0000103 0.0006428 0.0000299 0.0004391 0.0000483 0.0004120 0.0000523 0.0005328 -0.0000317 0.0005907 -0.0000027 0.0001835 0.0000585 0.0004370 -0.0000336 0.0005234 -0.0000091 0.0004935 0.0000123 0.0002691 0.0000963 0.0004942 0.0000391 0.0002201 -0.0000052 0.0001897
-0.0000300 0.0003134 -0.0000090 0.0004101 0.0000504 0.0000988 0.0000514 0.0002583 -0.0000410 0.0005428 0.0000274 0.0003589 -0.0000517 0.0004084 -0.0000038 0.0004127 0.0000295 0.0001845 0.0000311 0.0003221 0.0000595 0.0001000 -0.0000211 0.0003603 -0.0000111 -0.0000802 0.0000583 0.0001746 -0.0000620 0.0003348 -0.0000251 0.0001473 0.0000018 0.0001353 0.0000293 -0.0000769 0.0000451 -0.0001696 -0.0000243 -0.0003405
-0.0000227 -0.0001188 -0.0000264 0.0000219 0.0000202 -0.0005245 0.0000315 -0.0005392 -0.0000320 0.0000637 0.0000426 -0.0001823 -0.0000487 0.0000144 0.0000477 -0.0001467 -0.0001279 -0.0000968 0.0000502 -0.0000853 0.0000912 -0.0004530 0.0000231 -0.0000485 -0.0000124 -0.0004339 0.0000500 -0.0001754 -0.0000313 -0.0000190 -0.0000277 -0.0002533 0.0000063 -0.0001104 -0.0000244 -0.0006695 0.0000554 -0.0003482 -0.0000292 -0.0005075
-0.0000209 -0.0002342 -0.0000116 -0.0001430 0.0000151 -0.0006213 0.0000434 -0.0006567 -0.0000194 -0.0000032 0.0000229 -0.0002295 -0.0000698 -0.0000368 0.0000199 -0.0001946 -0.0000290 -0.0001666 0.0000501 -0.0002103 0.0001019 -0.0004882 0.0000429 -0.0001609 -0.0000019 -0.0005095 0.0000124 -0.0001853 -0.0000030 -0.0001186 -0.0000284 -0.0002907 0.0000156 -0.0001785 -0.0000064 -0.0006874 0.0000571 -0.0003294 -0.0000227 -0.0004311
-0.0000207 -0.0001788 0.0000000 -0.0000987 0.0000284 -0.0005308 0.0000552 -0.0005072 -0.0000122 0.0000993 0.0000366 -0.0001400 -0.0000349 -0.0000188 -0.0000071 -0.0000463 0.0002256 -0.0002742 0.0000162 -0.0001256 0.0000911 -0.0003205 0.0000450 -0.0001073 -0.0000025 -0.0004293 0.0000044 -0.0000571 0.0000059 -0.0000758 -0.0000403 -0.0001877 0.0000187 -0.0001355 0.0000262 -0.0004766 0.0000521 -0.0002023 -0.0000111 -0.0002504
-0.0000222 -0.0000394 -0.0000181 0.0000534 0.0000419 -0.0003367 0.0000570 -0.0002134 -0.0000110 0.0002738 0.0000491 0.0000205 -0.0000018 0.0000990 0.0000229 0.0001306 -0.0000866 0.0000864 -0.0000132 0.0000972 0.0000672 -0.0000468 0.0000154 0.0001130 -0.0000105 -0.0002352 0.0000207 0.0000913 0.0000172 0.0000672 -0.0000353 0.0000132 0.0000172 -0.0000187 0.0000573 -0.0001016 0.0000483 0.0000150 0.0000045 0.0000063
-0.0000260 0.0001688 0.0000013 0.0002441 0.0000487 -0.0000460 0.0000627 0.0001518 0.0000042 0.0004836 0.0000230 0.0002650 0.0000261 0.0002887 0.0000210 0.0003989 -0.0001626 0.0003558 -0.0000127 0.0003528 0.0000572 0.0002542 -0.0000193 0.0003853 -0.0000084 -0.0000192 0.0000408 0.0003042 -0.0000153 0.0003099 -0.0000365 0.0002785 0.0000143 0.0001338 0.0000924 0.0002959 0.0000501 0.0002415 0.0000141 0.0002802
-0.0000247 0.0003957 0.0000307 0.0004477 0.0000595 0.0003022 0.0000614 0.0005563 0.0000109 0.0006969 -0.0000159 0.0005989 0.0000349 0.0005193 0.0000065 0.0006764 -0.0000375 0.0004908 0.0000273 0.0005253 0.0000567 0.0006057 -0.0000414 0.0006689 -0.0000124 0.0002317 0.0000298 0.0006176 -0.0000290 0.0005700 -0.0000451 0.0006117 0.0000130 0.0003031 0.0001252 0.0007106 0.0000431 0.0004736 0.0000121 0.0005615
-0.0000208 0.0006118 0.0000004 0.0007159 0.0000641 0.0005191 0.0000530 0.0008041 -0.0000422 0.0008307 -0.0000189 0.0007204 -0.0000203 0.0007009 0.0000250 0.0007178 0.0000100 0.0005549 0.0000523 0.0006250 0.0000577 0.0004632 -0.0000303 0.0006236 -0.0000275 0.0001718 0.0000332 0.0005367 -0.0000231 0.0005843 -0.0000481 0.0005165 0.0000171 0.0003136 0.0000925 0.0005430 0.0000349 0.0002541 -0.0000075 0.0002417
-0.0000154 0.0003417 -0.0000223 0.0004685 0.0000377 0.0001124 0.0000377 0.0002459 -0.0000431 0.0005042 0.0000126 0.0003083 -0.0000128 0.0004210 0.0000575 0.0003401 0.0002605 0.0001526 0.0000562 0.0003589 0.0000657 -0.0000560 -0.0000084 0.0002850 -0.0000322 -0.0001667 0.0000192 0.0001964 -0.0000132 0.0003033 -0.0000340 0.0000512 0.0000200 0.0001119 0.0000257 -0.0001435 0.0000393 -0.0001505 -0.0000208 -0.0002768
-0.0000124 -0.0000708 -0.0000152 0.0000143 0.0000160 -0.0003629 0.0000296 -0.0003701 -0.0000163 0.0001613 0.0000382 -0.0000590 0.0000413 0.0000809 0.0000695 0.0000308 0.0002336 -0.0000426 0.0000865 0.0000418 0.0000760 -0.0002316 -0.0000097 0.0001222 -0.0000253 -0.0003215 0.0000014 0.0000561 -0.0000105 0.0001129 -0.0000273 -0.0001208 0.0000149 -0.0000073 0.0000075 -0.0004273 0.0000364 -0.0001891 -0.0000228 -0.0003046
-0.0000109 -0.0001000 -0.0000069 -0.0000232 0.0000171 -0.0003845 0.0000352 -0.0003488 -0.0000219 0.0001731 0.0000290 -0.0000297 -0.0000006 0.0001095 0.0000070 0.0000985 0.0000754 0.0000576 0.0000690 0.0000667 0.0000799 -0.0001607 -0.0000019 0.0001498 -0.0000191 -0.0003152 0.0000166 0.0000675 -0.0000288 0.0001226 -0.0000363 -0.0000653 0.0000097 0.0000069 0.0000244 -0.0003277 0.0000377 -0.0001290 -0.0000196 -0.0002038
-0.0000098 -0.0000190 -0.0000133 0.0000538 0.0000213 -0.0002678 0.0000351 -0.0001609 -0.0000416 0.0002952 0.0000126 0.0001105 -0.0000405 0.0002228 -0.0000277 0.0002297 0.0000197 0.0001429 0.0000681 0.0001458 0.0000716 0.0000287 0.0000223 0.0002285 -0.0000220 -0.0001928 0.0000121 0.0002133 -0.0000147 0.0002059 -0.0000442 0.0000806 0.0000173 0.0000661 0.0000461 -0.0000636 0.0000336 0.0000278 -0.0000040 0.0000027
-0.0000090 0.0001537 -0.0000043 0.0002087 0.0000334 -0.0000336 0.0000388 0.0001590 -0.0000580 0.0004981 0.0000055 0.0003239 -0.0000186 0.0003685 -0.0000298 0.0004410 -0.0000676 0.0003547 0.0000775 0.0003160 0.0000672 0.0003030 0.0000046 0.0004342 -0.0000245 -0.0000074 0.0000310 0.0003874 0.0000038 0.0003591 -0.0000417 0.0002858 0.0000273 0.0001714 0.0000714 0.0002873 0.0000183 0.0002416 0.0000023 0.0002486
-0.0000081 0.0003563 0.0000212 0.0003891 0.0000411 0.0002257 0.0000499 0.0004900 -0.0000348 0.0006887 0.0000025 0.0005327 -0.0000196 0.0005961 -0.0000034 0.0006657 -0.0001808 0.0006546 0.0000572 0.0005236 0.0000714 0.0005899 0.0000066 0.0006355 -0.0000284 0.0002051 0.0000305 0.0006297 -0.0000155 0.0005678 -0.0000336 0.0005282 0.0000198 0.0003144 0.0000975 0.0006555 0.0000129 0.0004591 0.0000099 0.0004920
-0.0000139 0.0005630 0.0000085 0.0006208 0.0000376 0.0004507 0.0000481 0.0007405 0.0000012 0.0007695 -0.0000037 0.0006461 -0.0000406 0.0007450 0.0000520 0.0006977 -0.0001557 0.0007455 0.0000331 0.0006940 0.0000538 0.0005134 0.0000046 0.0006196 -0.0000355 0.0001745 -0.0000084 0.0006279 -0.0000353 0.0006228 -0.0000409 0.0004686 0.0000066 0.0003545 0.0000743 0.0005316 0.0000115 0.0002815 -0.0000011 0.0002181
-0.0000106 0.0003260 -0.0000157 0.0004277 0.0000120 0.0001227 0.0000267 0.0002832 -0.0000122 0.0004978 0.0000019 0.0003454 -0.0000145 0.0005199 0.0000244 0.0004356 -0.0001647 0.0005569 0.0000005 0.0005116 0.0000487 0.0000974 -0.0000201 0.0004114 -0.0000380 -0.0000971 -0.0000046 0.0003240 -0.0000011 0.0003523 -0.0000430 0.0001231 0.0000031 0.0002054 0.0000209 -0.0000218 0.0000090 -0.0000339 -0.0000176 -0.0001950
-0.0000008 -0.0000310 -0.0000238 0.0000700 -0.0000002 -0.0003221 0.0000188 -0.0002495 -0.0000496 0.0002545 0.0000058 0.0000465 -0.0000161 0.0002920 -0.0000004 0.0001684 -0.0000710 0.0002701 0.0000075 0.0002281 0.0000680 -0.0000599 0.0000060 0.0002535 -0.0000301 -0.0002129 0.0000349 0.0001791 0.0000125 0.0001931 -0.0000356 -0.0000063 0.0000015 0.0001108 0.0000067 -0.0002308 0.0000136 -0.0000462 -0.0000141 -0.0001850
0.0000045 -0.0000297 -0.0000163 0.0000552 0.0000042 -0.0003178 0.0000250 -0.0001928 -0.0000564 0.0002956 -0.0000099 0.0000836 -0.0000016 0.0002674 0.0000207 0.0001662 -0.0000241 0.0002451 0.0000568 0.0002159 0.0000751 0.0000244 -0.0000060 0.0003233 -0.0000243 -0.0001737 0.0000378 0.0002412 -0.0000052 0.0002421 -0.0000292 0.0000571 0.0000057 0.0001148 0.0000299 -0.0001136 0.0000113 0.0000412 -0.0000065 -0.0000679
0.0000086 0.0000652 -0.0000034 0.0001345 0.0000051 -0.0001669 0.0000262 0.0000087 -0.0000374 0.0003924 -0.0000135 0.0002113 0.0000984 0.0002618 0.0000208 0.0003365 -0.0000314 0.0004093 0.0000745 0.0002902 0.0000751 0.0002367 -0.0000125 0.0004689 -0.0000343 -0.0000087 0.0000177 0.0004002 -0.0000241 0.0003651 -0.0000283 0.0002125 0.0000188 0.0001708 0.0000605 0.0001639 0.0000055 0.0002280 0.0000008 0.0001670
0.0000039 0.0002593 -0.0000091 0.0003368 0.0000173 0.0000949 0.0000300 0.0003697 -0.0000251 0.0005888 -0.0000140 0.0004588 0.0000682 0.0005038 0.0000083 0.0006031 0.0000863 0.0005352 0.0000400 0.0004887 0.0000584 0.0005460 -0.0000181 0.0006771 -0.0000384 0.0002207 -0.0000083 0.0006650 -0.0000366 0.0005704 -0.0000304 0.0004750 0.0000194 0.0003034 0.0000907 0.0005427 0.0000073 0.0004357 0.0000093 0.0004231
0.0000026 0.0004816 -0.0000148 0.0005591 0.0000258 0.0003828 0.0000372 0.0007459 -0.0000459 0.0008278 -0.0000341 0.0007351 0.0000062 0.0007861 0.0000207 0.0008429 -0.0000470 0.0007881 0.0000171 0.0007061 0.0000370 0.0008616 -0.0000267 0.0009296 -0.0000328 0.0004443 -0.0000101 0.0009083 -0.0000282 0.0007563 -0.0000381 0.0007746 0.0000183 0.0004494 0.0001106 0.0008877 0.0000008 0.0005129 0.0000111 0.0004485
0.0000134 0.0004701 -0.0000163 0.0006194 0.0000082 0.0002618 0.0000231 0.0005781 -0.0000613 0.0006993 -0.0000389 0.0005997 -0.0000231 0.0007175 0.0000122 0.0007181 0.0000338 0.0006414 0.0000235 0.0006607 0.0000435 0.0005436 -0.0000247 0.0007883 -0.0000385 0.0002731 -0.0000025 0.0006870 -0.0000331 0.0006500 -0.0000403 0.0005238 0.0000271 0.0003676 0.0000602 0.0005041 -0.0000051 0.0002301 -0.0000102 0.0000451
0.0000149 0.0001301 -0.0000096 0.0002870 -0.0000204 -0.0002403 0.0000041 -0.0000826 -0.0001001 0.0003324 0.0000117 0.0001013 -0.0000174 0.0003915 -0.0000073 0.0003022 0.0001128 0.0003005 0.0000180 0.0003382 0.0000612 -0.0000424 -0.0000385 0.0004245 -0.0000398 -0.0001201 -0.0000088 0.0002983 -0.0000293 0.0003149 -0.0000385 0.0000247 0.0000202 0.0001569 -0.0000048 -0.0001831 -0.0000034 -0.0000459 -0.0000246 -0.0002618
0.0000130 -0.0001078 0.0000030 -0.0000222 -0.0000289 -0.0004729 0.0000063 -0.0003647 -0.0000953 0.0001815 0.0000223 -0.0000683 0.0000030 0.0002150 0.0000207 0.0000977 -0.0000545 0.0002949 0.0000387 0.0001368 0.0000757 -0.0001078 -0.0000371 0.0002995 -0.0000338 -0.0002177 -0.0000007 0.0001960 0.0000016 0.0001676 -0.0000445 -0.0000640 0.0000172 0.0000741 0.0000003 -0.0003073 -0.0000000 -0.0000526 -0.0000152 -0.0002395
0.0000166 -0.0001007 0.0000219 -0.0000480 -0.0000236 -0.0004481 0.0000072 -0.0002725 -0.0000707 0.0002117 -0.0000101 0.0000277 0.0000033 0.0002314 0.0000026 0.0001619 0.0000840 0.0001818 0.0000311 0.0001641 0.0000748 0.0000151 -0.0000127 0.0002931 -0.0000358 -0.0001597 0.0000529 0.0002035 0.0000123 0.0001748 -0.0000508 0.0000086 0.0000342 0.0000609 0.0000267 -0.0001541 -0.0000009 0.0000364 -0.0000040 -0.0000937
0.0000113 0.0000182 0.0000360 0.0000463 -0.0000079 -0.0002895 0.0000134 -0.0000405 -0.0000469 0.0003286 -0.0000255 0.0001863 0.0000322 0.0003265 -0.0000170 0.0003297 0.0001935 0.0002021 0.0000257 0.0002763 0.0000654 0.0002412 -0.0000001 0.0004012 -0.0000319 0.0000234 0.0000434 0.0003800 -0.0000112 0.0003037 -0.0000449 0.0001802 0.0000339 0.0001558 0.0000569 0.0001692 0.0000024 0.0002423 0.0000074 0.0001563
0.0000069 0.0002161 0.0000256 0.0002621 0.0000023 -0.0000316 0.0000185 0.0003167 -0.0000099 0.0004997 -0.0000222 0.0003952 -0.0000169 0.0005389 0.0000027 0.0005653 0.0000270 0.0005629 0.0000452 0.0004580 0.0000552 0.0005386 -0.0000323 0.0006434 -0.0000334 0.0002661 0.0000238 0.0006198 -0.0000210 0.0004959 -0.0000352 0.0004297 0.0000299 0.0003012 0.0000900 0.0005429 0.0000046 0.0004772 0.0000226 0.0004044
0.0000093 0.0004301 0.0000534 0.0004667 0.0000075 0.0002648 0.0000180 0.0006969 -0.0000111 0.0007313 -0.0000183 0.0006374 -0.0000175 0.0007595 0.0000513 0.0008013 -0.0001290 0.0008523 0.0000226 0.0006929 0.0000352 0.0008769 -0.0000425 0.0009014 -0.0000440 0.0005073 0.0000179 0.0008791 -0.0000317 0.0007074 -0.0000555 0.0007685 0.0000286 0.0004511 0.0001167 0.0009347 -0.0000022 0.0006708 0.0000319 0.0006188
0.0000176 0.0005874 0.0000503 0.0006950 0.0000077 0.0003506 0.0000120 0.0007844 -0.0000460 0.0007600 -0.0000384 0.0006518 -0.0000301 0.0008353 0.0000462 0.0007725 -0.0000771 0.0007716 0.0000020 0.0008080 0.0000421 0.0006333 -0.0000226 0.0007993 -0.0000506 0.0003759 -0.0000014 0.0007440 -0.0000342 0.0006614 -0.0000691 0.0006123 0.0000282 0.0004252 0.0000781 0.0006590 -0.0000050 0.0003953 0.0000064 0.0002407
0.0000192 0.0002657 0.0000177 0.0004170 -0.0000170 -0.0001253 -0.0000103 0.0001571 -0.0000739 0.0003973 -0.0000472 0.0002041 -0.0000947 0.0005384 -0.0000246 0.0004002 -0.0000798 0.0004944 0.0000072 0.0005144 0.0000583 0.0000278 -0.0000277 0.0004194 -0.0000542 -0.0000343 0.0000033 0.0003070 -0.0000174 0.0003098 -0.0000393 0.0000522 0.0000275 0.0001898 0.0000024 -0.0000914 -0.0000046 -0.0000265 -0.0000142 -0.0002780
0.0000172 -0.0001584 0.0000079 -0.0000584 -0.0000284 -0.0005800 -0.0000112 -0.0004224 -0.0000425 0.0000871 -0.0000549 -0.0001095 -0.0000544 0.0001729 -0.0000234 0.0001205 -0.0000894 0.0002402 0.0000515 0.0001228 0.0000675 -0.0001549 -0.0000178 0.0002009 -0.0000479 -0.0002136 0.0000369 0.0001054 -0.0000165 0.0000920 -0.0000300 -0.0001435 0.0000250 0.0000388 -0.0000120 -0.0003513 0.0000029 -0.0000984 -0.0000008 -0.0003081
0.0000200 -0.0001917 -0.0000030 -0.0001008 -0.0000227 -0.0006135 -0.0000053 -0.0004207 -0.0000341 0.0000835 -0.0000176 -0.0001346 -0.0000419 0.0001181 0.0000022 0.0000942 0.0000256 0.0000864 0.0000733 0.0000335 0.0000655 -0.0000782 -0.0000118 0.0001609 -0.0000448 -0.0002137 0.0000239 0.0001223 -0.0000178 0.0000582 -0.0000526 -0.0000770 0.0000209 0.0000383 0.0000097 -0.0002406 0.0000055 -0.0000460 0.0000120 -0.0001862
0.0000189 -0.0000933 0.0000223 -0.0000242 -0.0000174 -0.0004738 -0.0000075 -0.0002255 -0.0000400 0.0002015 -0.0000192 -0.0000505 -0.0000501 0.0001937 0.0000231 0.0001855 0.0000201 0.0001472 0.0000565 0.0001331 0.0000541 0.0001154 -0.0000509 0.0003004 -0.0000411 -0.0001039 -0.0000032 0.0002709 -0.0000219 0.0001303 -0.0000609 0.0000669 0.0000180 0.0001066 0.0000401 0.0000354 -0.0000021 0.0001245 0.0000123 0.0000608
0.0000164 0.0000915 0.0000481 0.0001198 -0.0000069 -0.0002153 -0.0000011 0.0001027 -0.0000458 0.0003797 -0.0000673 0.0001992 -0.0000105 0.0003109 0.0000038 0.0004240 0.0000026 0.0003097 0.0000573 0.0003144 0.0000569 0.0003500 -0.0000590 0.0004983 -0.0000473 0.0000856 0.0000176 0.0004575 -0.0000138 0.0002918 -0.0000475 0.0002554 0.0000217 0.0002135 0.0000740 0.0003885 -0.0000054 0.0003220 0.0000189 0.0003148
0.0000126 0.0003056 0.0000310 0.0003360 0.0000001 0.0000711 0.0000035 0.0004614 -0.0000551 0.0005596 -0.0000516 0.0004303 0.0000168 0.0005049 -0.0000009 0.0006800 -0.0000824 0.0005658 0.0000465 0.0005180 0.0000519 0.0006268 -0.0000126 0.0006410 -0.0000562 0.0003038 0.0000086 0.0006849 -0.0000271 0.0004979 -0.0000419 0.0005119 0.0000352 0.0003394 0.0000999 0.0007628 -0.0000077 0.0005309 0.0000362 0.0005652
0.0000133 0.0005298 0.0000299 0.0005700 0.0000173 0.0003967 0.0000086 0.0008456 -0.0000537 0.0007857 -0.0000586 0.0006891 -0.0000434 0.0007759 0.0000264 0.0009076 -0.0000274 0.0007228 0.0000438 0.0007386 0.0000235 0.0009643 -0.0000172 0.0008702 -0.0000533 0.0005446 0.0000064 0.0009042 -0.0000399 0.0007178 -0.0000722 0.0008544 0.0000203 0.0005077 0.0001160 0.0011205 -0.0000111 0.0006214 0.0000360 0.0006174
0.0000201 0.0005329 0.0000497 0.0006366 0.0000151 0.0002730 -0.0000080 0.0007035 -0.0000638 0.0006770 -0.0000537 0.0005591 -0.0001028 0.0007447 0.0000316 0.0007611 0.0000511 0.0006573 0.0000445 0.0007338 0.0000141 0.0006628 -0.0000568 0.0007347 -0.0000643 0.0003841 -0.0000173 0.0007210 -0.0000330 0.0006388 -0.0001040 0.0006614 -0.0000002 0.0004646 0.0000686 0.0007570 -0.0000195 0.0003310 0.0000167 0.0002161
0.0000226 0.0001941 0.0000316 0.0003318 -0.0000134 -0.0002406 -0.0000269 0.0000355 -0.0000647 0.0002845 -0.0000519 0.0001033 -0.0000592 0.0003882 0.0000200 0.0003522 -0.0001333 0.0005133 0.0000697 0.0003816 0.0000362 0.0000864 -0.0000406 0.0003350 -0.0000659 0.0000081 -0.0000413 0.0003546 -0.0000454 0.0003341 -0.0000887 0.0001583 0.0000138 0.0002389 0.0000066 0.0000691 -0.0000226 0.0000570 0.0000053 -0.0000972
0.0000220 -0.0000438 0.0000044 0.0000429 -0.0000216 -0.0004601 -0.0000207 -0.0002768 -0.0000582 0.0001401 -0.0000683 -0.0000671 -0.0000051 0.0001708 0.0000096 0.0001915 -0.0000769 0.0002681 0.0000547 0.0001615 0.0000499 -0.0000087 -0.0000705 0.0002806 -0.0000543 -0.0000690 -0.0000159 0.0002444 -0.0000222 0.0001526 -0.0000655 0.0000282 0.0000306 0.0001359 0.0000054 -0.0000915 -0.0000180 0.0000741 0.0000119 -0.0000731
0.0000196 -0.0000370 0.0000044 0.0000192 -0.0000232 -0.0004322 -0.0000118 -0.0002227 -0.0000474 0.0001726 -0.0000538 -0.0000344 -0.0000083 0.0001768 0.0000145 0.0002245 -0.0000903 0.0002901 0.0000017 0.0002130 0.0000526 0.0000827 -0.0000783 0.0003183 -0.0000511 0.0000020 -0.0000123 0.0002688 -0.0000172 0.0001350 -0.0000519 0.0000769 0.0000375 0.0001391 0.0000240 0.0000038 -0.0000139 0.0001636 0.0000193 0.0000495
0.0000178 0.0000667 0.0000276 0.0000993 -0.0000179 -0.0002701 -0.0000099 -0.0000128 -0.0000283 0.0002839 -0.0000454 0.0000940 -0.0000102 0.0002735 0.0000135 0.0003712 -0.0000990 0.0003882 0.0000084 0.0003257 0.0000470 0.0003287 -0.0000449 0.0004246 -0.0000493 0.0001713 -0.0000463 0.0004535 -0.0000400 0.0002515 -0.0000402 0.0002369 0.0000322 0.0002262 0.0000522 0.0002882 -0.0000148 0.0003394 0.0000273 0.0002842
0.0000165 0.0002563 0.0000306 0.0002922 0.0000018 -0.0000082 -0.0000107 0.0003327 -0.0000268 0.0004703 -0.0000613 0.0003258 -0.0000313 0.0004631 0.0000162 0.0006001 0.0000784 0.0003682 0.0000537 0.0004760 0.0000341 0.0006296 -0.0000389 0.0006222 -0.0000480 0.0003687 -0.0000595 0.0006865 -0.0000311 0.0003906 -0.0000267 0.0004348 0.0000300 0.0003475 0.0000749 0.0006411 -0.0000121 0.0005344 0.0000354 0.0005303
0.0000140 0.0004669 0.0000075 0.0005298 0.0000152 0.0002857 -0.0000045 0.0006964 -0.0000526 0.0007232 -0.0000884 0.0005836 -0.0000781 0.0006973 0.0000089 0.0008479 0.0000123 0.0006500 0.0000672 0.0006791 0.0000314 0.0009039 -0.0000537 0.0008660 -0.0000480 0.0005628 -0.0000564 0.0008597 -0.0000311 0.0005684 -0.0000353 0.0006554 0.0000326 0.0004750 0.0000925 0.0009136 -0.0000147 0.0005385 0.0000343 0.0004708
0.0000153 0.0003912 0.0000175 0.0005031 -0.0000033 0.0001066 -0.0000203 0.0004407 -0.0000605 0.0005477 -0.0000661 0.0003607 -0.0000752 0.0005866 0.0000068 0.0006691 -0.0001604 0.0007161 0.0000595 0.0006378 0.0000349 0.0005680 -0.0000654 0.0006632 -0.0000550 0.0003772 -0.0000225 0.0005852 -0.0000333 0.0004360 -0.0000414 0.0004131 0.0000218 0.0004018 0.0000533 0.0005063 -0.0000167 0.0002512 0.0000218 0.0000669
0.0000188 0.0000533 0.0000238 0.0001658 -0.0000305 -0.0003823 -0.0000348 -0.0002151 -0.0000362 0.0001389 -0.0000260 -0.0000975 -0.0000187 0.0002230 0.0000188 0.0002444 -0.0003016 0.0004762 0.0000914 0.0002879 0.0000337 0.0000737 -0.0000477 0.0002632 -0.0000598 0.0000345 -0.0000150 0.0002331 -0.0000218 0.0000963 -0.0000317 -0.0000060 0.0000164 0.0001972 0.0000022 -0.0000718 -0.0000087 0.0000491 0.0000241 -0.0001339
0.0000216 -0.0000862 0.0000274 -0.0000299 -0.0000289 -0.0005147 -0.0000290 -0.0003748 -0.0000143 0.0000399 -0.0000356 -0.0001718 0.0000359 0.0000465 0.0000212 0.0001426 -0.0002911 0.0003532 0.0000792 0.0001175 0.0000430 0.0000269 -0.0000242 0.0001693 -0.0000516 -0.0000252 0.0000046 0.0001702 -0.0000333 0.0000026 -0.0000407 -0.0000426 0.0000305 0.0001068 0.0000073 -0.0001229 -0.0000040 0.0000559 0.0000282 -0.0000582
0.0000188 -0.0000368 0.0000572 -0.0000269 -0.0000148 -0.0004370 -0.0000243 -0.0002473 -0.0000152 0.0001107 -0.0000308 -0.0001013 0.0000485 0.0000835 0.0000237 0.0002228 -0.0000390 0.0001095 0.0000712 0.0001452 0.0000521 0.0001194 -0.0000292 0.0002056 -0.0000492 0.0000324 0.0000014 0.0002261 -0.0000463 0.0000359 -0.0000453 0.0000279 0.0000439 0.0001153 0.0000335 0.0000268 -0.0000035 0.0001447 0.0000281 0.0001189
0.0000172 0.0000978 0.0000499 0.0001067 -0.0000033 -0.0002311 -0.0000153 0.0000098 -0.0000361 0.0003033 -0.0000307 0.0000854 -0.0000132 0.0002656 0.0000433 0.0003815 0.0000477 0.0001596 0.0000703 0.0002896 0.0000481 0.0003687 -0.0000504 0.0003813 -0.0000512 0.0001974 -0.0000313 0.0004272 -0.0000434 0.0001742 -0.0000583 0.0002181 0.0000488 0.0002097 0.0000657 0.0003550 -0.0000051 0.0003440 0.0000344 0.0003759
0.0000175 0.0003028 0.0000218 0.0003583 0.0000085 0.0000476 -0.0000059 0.0003674 -0.0000431 0.0005040 -0.0000492 0.0003556 0.0000083 0.0003966 0.0000217 0.0006599 -0.0000550 0.0005471 0.0000773 0.0005062 0.0000205 0.0006875 -0.0000641 0.0006001 -0.0000472 0.0004103 -0.0000367 0.0006464 -0.0000285 0.0003593 -0.0000524 0.0004725 0.0000395 0.0003532 0.0000927 0.0007361 -0.0000021 0.0005681 0.0000414 0.0006329
0.0000143 0.0005333 0.0000324 0.0005783 0.0000211 0.0003803 -0.0000063 0.0007638 -0.0000401 0.0007436 -0.0000589 0.0006066 0.0000035 0.0006287 -0.0000009 0.0009491 0.0000210 0.0006461 0.0000749 0.0007238 0.0000052 0.0009504 -0.0000579 0.0007830 -0.0000496 0.0005842 -0.0000465 0.0007922 -0.0000124 0.0004916 -0.0000465 0.0006551 0.0000322 0.0004908 0.0001029 0.0009562 -0.0000058 0.0004951 0.0000355 0.0004713
0.0000193 0.0003796 0.0000566 0.0004415 -0.0000026 0.0001194 -0.0000257 0.0003908 -0.0000610 0.0005276 -0.0000644 0.0003363 -0.0000836 0.0005678 0.0000248 0.0006803 0.0000942 0.0003305 0.0000223 0.0006333 0.0000203 0.0005269 -0.0000466 0.0005361 -0.0000576 0.0003320 -0.0000697 0.0005284 -0.0000180 0.0003046 -0.0000439 0.0003196 0.0000342 0.0003581 0.0000507 0.0004425 -0.0000098 0.0001141 0.0000144 -0.0000212
0.0000221 -0.0000463 0.0000228 0.0000845 -0.0000327 -0.0005127 -0.0000373 -0.0004204 -0.0000439 0.0000109 -0.0000336 -0.0002262 -0.0000598 0.0001200 0.0000382 0.0001539 0.0002420 -0.0001617 0.0000231 0.0002442 0.0000290 -0.0000591 -0.0000761 0.0001382 -0.0000526 -0.0000777 -0.0000633 0.0001475 -0.0000121 -0.0000694 -0.0000280 -0.0001747 0.0000334 0.0001041 -0.0000031 -0.0002103 0.0000058 -0.0001031 0.0000076 -0.0002206
0.0000192 -0.0001993 0.0000039 -0.0000712 -0.0000328 -0.0006949 -0.0000284 -0.0006135 -0.0000027 -0.0001106 -0.0000380 -0.0003576 -0.0000053 -0.0000807 0.0000494 0.0000200 0.0002484 -0.0002659 0.0000467 0.0000718 0.0000250 -0.0001256 -0.0000512 -0.0000289 -0.0000395 -0.0001912 -0.0000154 0.0000153 -0.0000158 -0.0002340 -0.0000225 -0.0002825 0.0000395 0.0000233 -0.0000034 -0.0002882 0.0000217 -0.0001191 0.0000114 -0.0001677
0.0000205 -0.0001686 0.0000213 -0.0000771 -0.0000268 -0.0006277 -0.0000184 -0.0005118 0.0000038 -0.0000218 -0.0000273 -0.0003237 0.0000081 -0.0000869 0.0000410 0.0001174 0.0002282 -0.0001977 0.0000499 0.0000769 0.0000349 -0.0000244 -0.0000499 0.0000127 -0.0000380 -0.0001607 0.0000070 0.0000116 -0.0000101 -0.0002259 -0.0000417 -0.0001976 0.0000430 0.0000287 0.0000238 -0.0001397 0.0000173 -0.0000305 0.0000154 0.0000073
0.0000177 -0.0000344 0.0000231 0.0000285 -0.0000141 -0.0004193 -0.0000160 -0.0002586 0.0000082 0.0001191 0.0000046 -0.0001947 -0.0000300 0.0000505 0.0000341 0.0002960 0.0003170 -0.0001293 0.0000299 0.0001950 0.0000363 0.0002161 -0.0000570 0.0001784 -0.0000488 -0.0000078 -0.0000100 0.0001641 -0.0000004 -0.0000929 -0.0000591 -0.0000026 0.0000388 0.0000997 0.0000554 0.0001763 0.0000036 0.0001571 0.0000254 0.0002548
0.0000143 0.0001642 0.0000475 0.0001994 -0.0000023 -0.0001539 -0.0000153 0.0000905 0.0000061 0.0003007 -0.0000233 0.0000508 -0.0000309 0.0001960 0.0000407 0.0004873 0.0001894 0.0001724 0.0000369 0.0003798 0.0000089 0.0005015 -0.0000439 0.0003468 -0.0000479 0.0001808 -0.0000260 0.0003929 -0.0000285 0.0001104 -0.0000545 0.0002067 0.0000315 0.0002221 0.0000862 0.0005346 0.0000008 0.0003544 0.0000359 0.0004981
0.0000136 0.0003777 0.0000638 0.0004163 0.0000032 0.0001506 -0.0000074 0.0004611 -0.0000043 0.0005311 -0.0000461 0.0003125 -0.0000266 0.0003770 0.0000411 0.0007371 0.0001159 0.0004051 0.0000651 0.0005697 0.0000011 0.0007991 -0.0000943 0.0006172 -0.0000451 0.0003918 -0.0000349 0.0006185 -0.0000364 0.0003158 -0.0000531 0.0004882 0.0000246 0.0003762 0.0001139 0.0008809 -0.0000011 0.0004341 0.0000346 0.0005556
0.0000168 0.0003927 0.0000560 0.0005180 -0.0000060 0.0000524 -0.0000178 0.0003312 -0.0000172 0.0004146 -0.0000346 0.0001734 -0.0000250 0.0003279 0.0000109 0.0006589 -0.0000019 0.0005360 0.0000579 0.0005661 0.0000060 0.0004780 -0.0001289 0.0004685 -0.0000693 0.0002251 -0.0000817 0.0004553 -0.0000198 0.0001942 -0.0000434 0.0002450 0.0000271 0.0002985 0.0000663 0.0005123 -0.0000046 0.0001099 0.0000185 0.0001199
0.0000159 0.0000277 0.0000360 0.0001876 -0.0000204 -0.0004881 -0.0000370 -0.0003673 -0.0000220 -0.0000093 -0.0000162 -0.0003266 0.0000428 -0.0001042 -0.0000032 0.0002203 -0.0000965 0.0002619 0.0000257 0.0002529 0.0000058 -0.0001469 -0.0001271 0.0000075 -0.0000767 -0.0002130 -0.0000455 -0.0000497 -0.0000114 -0.0001842 -0.0000286 -0.0003201 0.0000315 0.0000299 -0.0000038 -0.0002226 0.0000006 -0.0002530 0.0000091 -0.0002744
0.0000132 -0.0002661 0.0000400 -0.0001789 -0.0000241 -0.0007787 -0.0000363 -0.0007449 -0.0000046 -0.0001873 -0.0000191 -0.0005630 0.0000068 -0.0002934 0.0000103 0.0000014 0.0001835 -0.0003271 0.0000234 -0.0000018 0.0000233 -0.0002981 -0.0001131 -0.0001905 -0.0000700 -0.0003752 0.0000264 -0.0002923 -0.0000007 -0.0003826 -0.0000236 -0.0004646 0.0000444 -0.0001047 -0.0000101 -0.0004065 0.0000184 -0.0003301 0.0000111 -0.0002687
0.0000229 -0.0002948 0.0000586 -0.0002298 -0.0000224 -0.0007721 -0.0000280 -0.0007131 -0.0000011 -0.0001443 -0.0000243 -0.0005710 -0.0000101 -0.0003029 0.0000075 0.0000222 0.0001524 -0.0003073 0.0000737 -0.0000804 0.0000204 -0.0002234 -0.0001177 -0.0002212 -0.0000680 -0.0003749 -0.0000245 -0.0002294 0.0000111 -0.0004207 -0.0000257 -0.0004043 0.0000408 -0.0001166 0.0000099 -0.0002932 0.0000219 -0.0002678 0.0000197 -0.0001434
0.0000246 -0.0002050 0.0000630 -0.0001531 -0.0000109 -0.0006360 -0.0000165 -0.0005387 0.0000192 -0.0000488 -0.0000221 -0.0004427 0.0000190 -0.0002535 0.0000283 0.0001401 -0.0002669 0.0001272 0.0001157 -0.0000340 0.0000027 -0.0000327 -0.0000959 -0.0001558 -0.0000617 -0.0002672 -0.0000145 -0.0001226 0.0000169 -0.0003472 -0.0000225 -0.0002679 0.0000236 -0.0000456 0.0000399 -0.0000161 0.0000129 -0.0001006 0.0000311 0.0000803
0.0000186 -0.0000124 0.0000405 0.0000307 0.0000029 -0.0003901 -0.0000078 -0.0002214 0.0000372 0.0001171 -0.0000440 -0.0002029 -0.0000179 -0.0000999 0.0000183 0.0003410 -0.0001640 0.0001479 0.0000816 0.0001459 -0.0000062 0.0002052 -0.0000748 0.0000038 -0.0000656 -0.0000843 0.0000411 0.0000058 0.0000099 -0.0001796 -0.0000125 -0.0000720 0.0000232 0.0000709 0.0000707 0.0003097 0.0000101 0.0000854 0.0000384 0.0003205
0.0000165 0.0001912 0.0000644 0.0001845 0.0000134 -0.0001173 -0.0000058 0.0001296 0.0000132 0.0003282 -0.0000617 0.0000259 -0.0000041 0.0000600 0.0000207 0.0005395 0.0001007 0.0000322 0.0000540 0.0003461 -0.0000169 0.0004775 -0.0000863 0.0002518 -0.0000689 0.0001056 0.0000054 0.0002540 0.0000119 -0.0000011 -0.0000066 0.0001852 0.0000273 0.0001962 0.0000956 0.0006558 -0.0000031 0.0003035 0.0000431 0.0005577
0.0000144 0.0003881 0.0001004 0.0003608 0.0000109 0.0000904 -0.0000085 0.0003729 -0.0000037 0.0004248 -0.0000562 0.0001264 -0.0000074 0.0001974 0.0000507 0.0005964 0.0001205 0.0001100 0.0001259 0.0004022 -0.0000174 0.0003509 -0.0000486 0.0001876 -0.0000836 0.0000180 -0.0000041 0.0001994 0.0000036 0.0000202 -0.0000227 0.0001066 0.0000249 0.0002078 0.0000690 0.0005226 -0.0000107 0.0001013 0.0000260 0.0002702
0.0000195 0.0001311 0.0000568 0.0001860 -0.0000123 -0.0002561 -0.0000201 -0.0001128 0.0000098 0.0001263 -0.0000242 -0.0002061 -0.0000230 -0.0000339 0.0000307 0.0003309 0.0000661 -0.0000727 0.0001263 0.0001752 -0.0000131 -0.0000974 -0.0000325 -0.0001587 -0.0000924 -0.0003099 0.0000021 -0.0001634 -0.0000127 -0.0002016 -0.0000217 -0.0002867 0.0000173 0.0000487 0.0000156 -0.0000385 0.0000005 -0.0002671 0.0000137 -0.0001539
0.0000253 -0.0002356 0.0000250 -0.0001450 -0.0000193 -0.0006926 -0.0000218 -0.0006750 0.0000172 -0.0001498 -0.0000116 -0.0005182 0.0000388 -0.0003800 0.0000211 0.0000823 0.0002330 -0.0004730 0.0000891 -0.0000671 -0.0000133 -0.0002532 -0.0000541 -0.0003044 -0.0000801 -0.0004568 -0.0000029 -0.0003167 0.0000056 -0.0004128 -0.0000098 -0.0004464 0.0000242 -0.0000840 0.0000072 -0.0002747 0.0000152 -0.0003129 0.0000194 -0.0001627
0.0000246 -0.0002450 0.0000316 -0.0001700 -0.0000124 -0.0006990 -0.0000095 -0.0006527 0.0000118 -0.0000909 -0.0000188 -0.0005262 0.0000382 -0.0004478 -0.0000070 0.0000972 0.0002317 -0.0003865 0.0000866 -0.0000827 0.0000087 -0.0002001 -0.0000601 -0.0002731 -0.0000704 -0.0004018 0.0000219 -0.0002859 0.0000191 -0.0004474 -0.0000068 -0.0003869 0.0000301 -0.0000977 0.0000245 -0.0001827 0.0000177 -0.0002337 0.0000227 -0.0000561
0.0000268 -0.0001638 0.0000547 -0.0001191 -0.0000095 -0.0005658 -0.0000042 -0.0004753 0.0000296 0.0000122 0.0000016 -0.0004510 0.0000385 -0.0003253 -0.0000203 0.0002074 0.0000941 -0.0001635 0.0001056 -0.0000228 0.0000089 -0.0000060 -0.0000710 -0.0001664 -0.0000658 -0.0002470 0.0000373 -0.0001549 0.0000322 -0.0003706 -0.0000066 -0.0002242 0.0000260 -0.0000267 0.0000542 0.0000684 0.0000176 -0.0000619 0.0000268 0.0001784
0.0000272 0.0000233 0.0000764 0.0000318 -0.0000018 -0.0003057 -0.0000013 -0.0001372 0.0000282 0.0001919 -0.0000031 -0.0002173 0.0000334 -0.0000965 0.0000093 0.0004151 0.0002545 -0.0001785 0.0000841 0.0001631 -0.0000130 0.0002896 -0.0000486 -0.0000172 -0.0000690 -0.0000542 0.0000238 0.0000543 0.0000304 -0.0001987 -0.0000137 -0.0000062 0.0000346 0.0000877 0.0000848 0.0004100 0.0000197 0.0001480 0.0000315 0.0004269
0.0000205 0.0002367 0.0000797 0.0002544 0.0000113 -0.0000372 0.0000076 0.0002252 0.0000160 0.0004155 -0.0000114 0.0000325 -0.0000742 0.0001885 0.0000346 0.0006525 0.0001734 0.0000750 0.0000608 0.0004005 -0.0000117 0.0004864 -0.0000452 0.0001820 -0.0000723 0.0000882 0.0000309 0.0001460 0.0000003 -0.0000142 -0.0000118 0.0001586 0.0000327 0.0002004 0.0000879 0.0005970 0.0000171 0.0000839 0.0000226 0.0002806
0.0000224 0.0000831 0.0000787 0.0001679 -0.0000008 -0.0002846 -0.0000006 -0.0001141 0.0000014 0.0002105 -0.0000090 -0.0001973 -0.0000559 0.0000150 0.0000505 0.0004373 0.0000579 0.0000589 0.0000408 0.0003101 -0.0000118 0.0001323 -0.0000557 -0.0000370 -0.0000808 -0.0001227 0.0000233 -0.0000959 0.0000020 -0.0001785 -0.0000148 -0.0001114 0.0000196 0.0000953 0.0000354 0.0001560 0.0000168 -0.0002452 0.0000164 -0.0001472
0.0000304 -0.0002915 0.0000680 -0.0001853 -0.0000192 -0.0007812 -0.0000135 -0.0007821 0.0000034 -0.0001849 -0.0000053 -0.0006402 0.0000049 -0.0004383 0.0000243 0.0000194 0.0000906 -0.0002553 0.0000322 0.0000045 0.0000074 -0.0003324 -0.0000307 -0.0004135 -0.0000733 -0.0004405 -0.0000267 -0.0003534 0.0000257 -0.0004957 -0.0000161 -0.0004719 0.0000253 -0.0001273 0.0000019 -0.0003612 0.0000285 -0.0004018 0.0000190 -0.0002718
0.0000318 -0.0003888 0.0000772 -0.0003121 -0.0000169 -0.0008782 -0.0000071 -0.0008843 0.0000386 -0.0002324 0.0000042 -0.0007425 0.0000127 -0.0005167 -0.0000026 -0.0000458 0.0000389 -0.0003736 0.0000486 -0.0001342 0.0000164 -0.0003575 -0.0000075 -0.0004979 -0.0000588 -0.0005130 -0.0000145 -0.0004301 0.0000492 -0.0005923 -0.0000041 -0.0005129 0.0000344 -0.0001968 0.0000153 -0.0003801 0.0000373 -0.0003810 0.0000189 -0.0001778
0.0000295 -0.0003280 0.0001085 -0.0002803 -0.0000154 -0.0007729 0.0000063 -0.0007451 0.0000652 -0.0001524 0.0000045 -0.0006606 0.0000499 -0.0004156 -0.0000108 0.0000287 0.0001135 -0.0003701 0.0000082 -0.0000961 0.0000153 -0.0002433 -0.0000047 -0.0004389 -0.0000587 -0.0004492 -0.0000035 -0.0003496 0.0000403 -0.0005441 0.0000155 -0.0004382 0.0000189 -0.0001543 0.0000298 -0.0001873 0.0000334 -0.0002545 0.0000289 0.0000023
0.0000278 -0.0001732 0.0001140 -0.0001600 0.0000013 -0.0005528 0.0000172 -0.0004556 0.0000784 -0.0000072 -0.0000213 -0.0004238 0.0000462 -0.0003081 0.0000133 0.0001994 0.0000900 -0.0001400 0.0000649 -0.0000080 0.0000067 0.0000090 -0.0000271 -0.0002226 -0.0000579 -0.0002770 -0.0000008 -0.0001496 0.0000364 -0.0004013 0.0000134 -0.0002316 0.0000166 -0.0000459 0.0000646 0.0001476 0.0000332 -0.0000627 0.0000345 0.0002568
0.0000223 0.0000496 0.0001019 0.0000489 0.0000165 -0.0002737 0.0000263 -0.0000877 0.0000924 0.0001938 -0.0000347 -0.0001516 -0.0000123 -0.0001156 0.0000676 0.0003932 -0.0000248 0.0001268 0.0001050 0.0001701 -0.0000192 0.0003148 -0.0000490 0.0000020 -0.0000592 -0.0000641 0.0000105 0.0000338 0.0000441 -0.0002083 -0.0000095 0.0000561 0.0000227 0.0000853 0.0000932 0.0005179 0.0000256 0.0001562 0.0000405 0.0004971
0.0000209 0.0002579 0.0000944 0.0002707 0.0000163 -0.0000378 0.0000312 0.0001773 0.0000611 0.0003228 -0.0000272 -0.0000338 0.0000309 0.0000088 0.0000426 0.0005023 -0.0000118 0.0001658 0.0000609 0.0003433 -0.0000186 0.0001736 -0.0000360 -0.0000633 -0.0000631 -0.0001254 0.0000232 -0.0000299 0.0000547 -0.0001971 -0.0000072 -0.0000306 0.0000193 0.0000930 0.0000667 0.0003724 0.0000232 -0.0000463 0.0000293 0.0001703
0.0000283 -0.0000273 0.0000786 0.0000454 -0.0000025 -0.0004393 0.0000176 -0.0003597 0.0000356 0.0000169 -0.0000136 -0.0004256 0.0000504 -0.0002843 0.0000093 0.0001944 0.0000140 -0.0001963 0.0000435 0.0001112 -0.0000161 -0.0003685 -0.0000391 -0.0004252 -0.0000632 -0.0004928 0.0000076 -0.0003916 0.0000733 -0.0005042 0.0000120 -0.0004879 0.0000153 -0.0001079 0.0000113 -0.0003021 0.0000434 -0.0004980 0.0000091 -0.0003621
0.0000293 -0.0004800 0.0000701 -0.0003905 -0.0000181 -0.0009934 0.0000139 -0.0010645 0.0000910 -0.0003530 0.0000356 -0.0008977 0.0000625 -0.0006894 0.0000193 -0.0001858 0.0001478 -0.0006362 0.0000490 -0.0002316 0.0000009 -0.0006379 -0.0000574 -0.0006472 -0.0000599 -0.0007110 -0.0000100 -0.0006391 0.0000711 -0.0007729 0.0000240 -0.0007215 0.0000085 -0.0002682 -0.0000102 -0.0006398 0.0000513 -0.0006073 0.0000140 -0.0004324
0.0000361 -0.0005421 0.0000853 -0.0005028 -0.0000116 -0.0010358 0.0000287 -0.0011160 0.0001242 -0.0003563 0.0000704 -0.0009678 0.0001154 -0.0007489 -0.0000191 -0.0001672 0.0002470 -0.0008305 0.0000704 -0.0003484 0.0000219 -0.0006085 -0.0000658 -0.0006715 -0.0000521 -0.0007522 0.0000229 -0.0006946 0.0000782 -0.0008454 0.0000331 -0.0007263 0.0000182 -0.0002981 0.0000057 -0.0005649 0.0000443 -0.0005370 0.0000227 -0.0003144
0.0000374 -0.0004559 0.0000907 -0.0004338 -0.0000019 -0.0009037 0.0000338 -0.0009388 0.0001212 -0.0002553 0.0000619 -0.0008394 0.0001267 -0.0006254 -0.0000418 -0.0000557 0.0002578 -0.0008018 0.0000883 -0.0003185 0.0000121 -0.0004321 -0.0000476 -0.0006095 -0.0000477 -0.0006747 0.0000436 -0.0006071 0.0000849 -0.0007731 0.0000183 -0.0005890 0.0000247 -0.0002593 0.0000360 -0.0003212 0.0000412 -0.0003918 0.0000316 -0.0000919
0.0000296 -0.0002660 0.0000696 -0.0002163 0.0000047 -0.0006433 0.0000368 -0.0006038 0.0001045 -0.0000737 0.0000380 -0.0005833 0.0000903 -0.0004554 -0.0000158 0.0001018 0.0001373 -0.0005551 0.0000953 -0.0001518 -0.0000046 -0.0001535 -0.0000313 -0.0004347 -0.0000551 -0.0004945 0.0000331 -0.0004096 0.0000914 -0.0006041 -0.0000017 -0.0003507 0.0000189 -0.0001468 0.0000675 0.0000284 0.0000361 -0.0001965 0.0000334 0.0001705
0.0000297 -0.0000432 0.0000736 0.0000062 0.0000178 -0.0003466 0.0000446 -0.0002227 0.0001161 0.0001159 0.0000391 -0.0003356 0.0000581 -0.0002380 0.0000405 0.0003027 -0.0000600 -0.0000814 0.0000953 0.0000513 -0.0000160 0.0001509 -0.0000451 -0.0001976 -0.0000560 -0.0002801 -0.0000107 -0.0001260 0.0000972 -0.0004051 0.0000056 -0.0000527 0.0000200 -0.0000074 0.0000958 0.0004078 0.0000317 0.0000327 0.0000455 0.0004300
0.0000268 0.0001871 0.0000970 0.0002090 0.0000298 -0.0000669 0.0000494 0.0001010 0.0001300 0.0002291 0.0000142 -0.0001433 0.0000906 -0.0000966 0.0000189 0.0004439 -0.0000894 0.0000881 0.0001123 0.0001662 -0.0000205 0.0000841 -0.0000355 -0.0002110 -0.0000557 -0.0003130 -0.0000101 -0.0001395 0.0000948 -0.0003516 0.0000141 -0.0001181 0.0000245 0.0000156 0.0000726 0.0003071 0.0000272 -0.0001657 0.0000316 0.0001266
0.0000295 -0.0000734 0.0001103 -0.0000483 0.0000130 -0.0004135 0.0000373 -0.0004144 0.0000857 -0.0000329 -0.0000140 -0.0004336 0.0000547 -0.0003489 -0.0000253 0.0001496 0.0000012 -0.0003499 0.0001076 -0.0000915 -0.0000160 -0.0004180 -0.0000291 -0.0005436 -0.0000557 -0.0006737 0.0000159 -0.0005435 0.0001054 -0.0006476 0.0000253 -0.0005783 0.0000336 -0.0001803 0.0000118 -0.0003438 0.0000330 -0.0005998 0.0000072 -0.0004123
0.0000373 -0.0005217 0.0001140 -0.0005004 -0.0000018 -0.0009550 0.0000281 -0.0011226 0.0000658 -0.0003577 0.0000216 -0.0008900 0.0000283 -0.0006749 0.0000140 -0.0002926 0.0000531 -0.0007236 0.0000336 -0.0003721 0.0000067 -0.0007214 -0.0000164 -0.0008065 -0.0000514 -0.0008963 0.0000474 -0.0008052 0.0001169 -0.0009248 0.0000282 -0.0008034 0.0000397 -0.0003599 -0.0000101 -0.0007044 0.0000500 -0.0007088 0.0000131 -0.0004821
0.0000428 -0.0005766 0.0001084 -0.0005622 0.0000037 -0.0009903 0.0000393 -0.0011518 0.0000892 -0.0003605 0.0000565 -0.0009639 0.0000496 -0.0007193 0.0000488 -0.0003623 -0.0000236 -0.0007479 0.0000192 -0.0004281 0.0000197 -0.0007051 -0.0000168 -0.0008455 -0.0000422 -0.0009113 0.0000595 -0.0008468 0.0001041 -0.0009274 0.0000254 -0.0007709 0.0000359 -0.0003908 0.0000012 -0.0006374 0.0000544 -0.0006494 0.0000162 -0.0003613
0.0000418 -0.0004824 0.0001107 -0.0004900 0.0000112 -0.0008535 0.0000510 -0.0009840 0.0001233 -0.0002808 0.0000438 -0.0008221 0.0001047 -0.0006947 0.0000305 -0.0002471 -0.0000345 -0.0006074 0.0001223 -0.0004663 0.0000077 -0.0005439 -0.0000122 -0.0007627 -0.0000441 -0.0008065 0.0000617 -0.0007396 0.0001026 -0.0008527 0.0000208 -0.0006383 0.0000350 -0.0003388 0.0000255 -0.0003966 0.0000480 -0.0004891 0.0000217 -0.0001432
0.0000380 -0.0003006 0.0001155 -0.0003279 0.0000238 -0.0006008 0.0000569 -0.0006586 0.0001473 -0.0001250 0.0000210 -0.0005460 0.0001838 -0.0006052 0.0000252 -0.0000696 0.0001616 -0.0005957 0.0001603 -0.0003629 0.0000007 -0.0002870 0.0000152 -0.0006105 -0.0000464 -0.0006059 0.0000979 -0.0005542 0.0001169 -0.0007002 0.0000175 -0.0004102 0.0000383 -0.0002280 0.0000563 -0.0000596 0.0000382 -0.0002772 0.0000263 0.0001085
0.0000379 -0.0000907 0.0001139 -0.0001274 0.0000429 -0.0003179 0.0000595 -0.0002944 0.0001127 0.0000942 0.0000207 -0.0002868 0.0001097 -0.0003705 0.0000350 0.0001617 0.0000896 -0.0004588 0.0001401 -0.0001396 -0.0000124 -0.0000001 0.0000012 -0.0003833 -0.0000438 -0.0003870 0.0000774 -0.0003277 0.0001143 -0.0004940 0.0000183 -0.0001316 0.0000457 -0.0000937 0.0000846 0.0002831 0.0000279 -0.0000961 0.0000255 0.0002987
0.0000430 0.0000570 0.0000781 0.0000750 0.0000418 -0.0002208 0.0000590 -0.0002127 0.0000782 0.0001008 0.0000017 -0.0002486 0.0000510 -0.0002746 0.0000328 0.0001652 0.0000139 -0.0003409 0.0001621 -0.0000649 -0.0000190 -0.0001896 -0.0000054 -0.0004284 -0.0000492 -0.0004796 0.0000522 -0.0004152 0.0001178 -0.0005320 0.0000265 -0.0002633 0.0000357 -0.0000975 0.0000558 0.0000571 0.0000278 -0.0003040 0.0000123 -0.0000011
0.0000474 -0.0001849 0.0000698 -0.0001592 0.0000224 -0.0005279 0.0000525 -0.0006868 0.0001043 -0.0001866 0.0000144 -0.0005591 0.0000650 -0.0005170 0.0000336 -0.0001365 0.0002370 -0.0007484 0.0001156 -0.0002687 0.0000077 -0.0006414 0.0000107 -0.0007430 -0.0000496 -0.0007851 0.0000555 -0.0007138 0.0001435 -0.0007921 0.0000337 -0.0006434 0.0000290 -0.0002591 0.0000066 -0.0004837 0.0000399 -0.0005898 0.0000050 -0.0003553
0.0000477 -0.0004649 0.0001028 -0.0004862 0.0000182 -0.0007924 0.0000501 -0.0010190 0.0001370 -0.0003315 0.0000501 -0.0007858 0.0000197 -0.0006205 0.0000409 -0.0003412 0.0001567 -0.0008996 0.0000424 -0.0004117 0.0000215 -0.0007406 -0.0000003 -0.0008585 -0.0000389 -0.0008810 0.0000533 -0.0007955 0.0001633 -0.0009276 0.0000227 -0.0006910 0.0000431 -0.0003435 0.0000052 -0.0005999 0.0000505 -0.0005717 0.0000092 -0.0003056
0.0000527 -0.0004474 0.0001136 -0.0004654 0.0000274 -0.0007488 0.0000600 -0.0009221 0.0001286 -0.0002438 0.0000608 -0.0007225 0.0000527 -0.0005835 0.0000487 -0.0003011 0.0000525 -0.0008201 0.0000781 -0.0004022 0.0000168 -0.0006034 0.0000250 -0.0008055 -0.0000285 -0.0008275 0.0000560 -0.0007586 0.0001648 -0.0009050 0.0000250 -0.0005890 0.0000456 -0.0003201 0.0000197 -0.0004670 0.0000502 -0.0004693 0.0000168 -0.0001720
0.0000513 -0.0003378 0.0001246 -0.0003766 0.0000354 -0.0005547 0.0000717 -0.0006955 0.0001077 -0.0000903 0.0000391 -0.0005061 0.0001059 -0.0005112 0.0000585 -0.0001360 0.0002058 -0.0008341 0.0001432 -0.0003347 0.0000143 -0.0003057 -0.0000085 -0.0005619 -0.0000331 -0.0006397 0.0000777 -0.0005987 0.0001612 -0.0007628 0.0000496 -0.0004619 0.0000432 -0.0002229 0.0000443 -0.0001722 0.0000462 -0.0002737 0.0000307 0.0000647
0.0000450 -0.0001405 0.0001178 -0.0001644 0.0000511 -0.0002642 0.0000756 -0.0003217 0.0001094 0.0001030 0.0000118 -0.0002100 0.0000887 -0.0002833 0.0000194 0.0001106 0.0002030 -0.0005940 0.0001337 -0.0001553 0.0000141 0.0000127 -0.0000089 -0.0003331 -0.0000344 -0.0004096 0.0000967 -0.0003493 0.0001422 -0.0005208 0.0000426 -0.0002011 0.0000376 -0.0000713 0.0000745 0.0001895 0.0000417 -0.0000378 0.0000369 0.0003238
0.0000416 0.0000755 0.0000858 0.0001096 0.0000639 0.0000311 0.0000853 0.0000481 0.0001204 0.0002841 0.0000337 -0.0000198 0.0001218 -0.0000878 0.0000101 0.0003346 0.0001513 -0.0003266 0.0001071 0.0000457 0.0000108 0.0000860 0.0000493 -0.0003108 -0.0000321 -0.0003838 0.0000614 -0.0002933 0.0001290 -0.0004037 0.0000273 -0.0001441 0.0000346 -0.0000081 0.0000634 0.0001819 0.0000371 -0.0001846 0.0000176 0.0001033
0.0000439 -0.0001313 0.0000766 -0.0000559 0.0000456 -0.0002416 0.0000730 -0.0003685 0.0001217 0.0000475 0.0000530 -0.0003316 0.0001358 -0.0003025 0.0000709 0.0000538 0.0000003 -0.0003482 0.0001156 -0.0001374 0.0000134 -0.0003116 0.0000184 -0.0005509 -0.0000367 -0.0006559 0.0000433 -0.0005886 0.0001453 -0.0006389 0.0000328 -0.0004983 0.0000431 -0.0001714 0.0000107 -0.0003660 0.0000456 -0.0005573 0.0000080 -0.0003653
0.0000520 -0.0005097 0.0000930 -0.0004686 0.0000230 -0.0007105 0.0000578 -0.0010078 0.0001250 -0.0002951 0.0000520 -0.0007247 0.0000625 -0.0005930 0.0000477 -0.0003235 0.0000795 -0.0008010 0.0001109 -0.0004708 0.0000333 -0.0006568 -0.0000059 -0.0007826 -0.0000309 -0.0008809 0.0000876 -0.0008155 0.0001492 -0.0008875 0.0000350 -0.0007388 0.0000507 -0.0003411 -0.0000089 -0.0007264 0.0000509 -0.0006336 0.0000202 -0.0004392
0.0000530 -0.0005336 0.0001047 -0.0005367 0.0000256 -0.0007257 0.0000699 -0.0010032 0.0001523 -0.0003083 0.0000619 -0.0007190 0.0000539 -0.0005844 0.0000100 -0.0003455 0.0001291 -0.0008215 0.0000637 -0.0004813 0.0000265 -0.0006095 0.0000198 -0.0007802 -0.0000189 -0.0008933 0.0001210 -0.0008204 0.0001538 -0.0009102 0.0000454 -0.0007244 0.0000333 -0.0003250 0.0000107 -0.0006539 0.0000468 -0.0005540 0.0000209 -0.0003063
0.0000532 -0.0004335 0.0000965 -0.0004159 0.0000347 -0.0005958 0.0000800 -0.0008065 0.0001570 -0.0001866 0.0000677 -0.0005817 0.0000890 -0.0005101 0.0000532 -0.0002871 0.0001200 -0.0006860 0.0000403 -0.0003943 0.0000146 -0.0004201 0.0000421 -0.0006976 -0.0000192 -0.0007626 0.0001121 -0.0007052 0.0001483 -0.0008108 0.0000358 -0.0005665 0.0000269 -0.0002494 0.0000381 -0.0004048 0.0000485 -0.0003917 0.0000263 -0.0000798
0.0000483 -0.0002440 0.0001066 -0.0002380 0.0000435 -0.0003412 0.0000883 -0.0004543 0.0001314 0.0000332 0.0000563 -0.0003294 0.0001213 -0.0003753 0.0000372 -0.0000600 0.0002749 -0.0006856 0.0000482 -0.0002306 0.0000178 -0.0001426 0.0000284 -0.0004751 -0.0000190 -0.0005351 0.0000893 -0.0004743 0.0001565 -0.0006311 0.0000161 -0.0002938 0.0000466 -0.0001457 0.0000737 -0.0000479 0.0000450 -0.0001677 0.0000375 0.0001907
0.0000443 -0.0000153 0.0001381 -0.0000425 0.0000564 -0.0000490 0.0000974 -0.0000688 0.0001127 0.0002418 0.0000438 -0.0000352 0.0001269 -0.0001487 0.0000111 0.0002332 0.0002553 -0.0003883 0.0000604 -0.0000093 -0.0000020 0.0001962 0.0000378 -0.0002077 -0.0000192 -0.0002954 0.0000842 -0.0002145 0.0001530 -0.0003895 0.0000074 0.0000001 0.0000497 0.0000003 0.0001008 0.0002840 0.0000411 -0.0000902 0.0000371 0.0002249
0.0000588 -0.0000210 0.0001351 0.0000211 0.0000447 -0.0001528 0.0000864 -0.0002243 0.0001057 0.0000870 0.0000359 -0.0001670 0.0000913 -0.0001889 0.0000250 0.0001038 0.0002822 -0.0004480 0.0000669 -0.0000499 -0.0000122 -0.0001245 -0.0000044 -0.0003548 -0.0000337 -0.0004616 0.0001292 -0.0004367 0.0001383 -0.0004847 0.0000210 -0.0002802 0.0000417 -0.0000691 0.0000560 -0.0001096 0.0000501 -0.0004007 0.0000143 -0.0001956
0.0000658 -0.0003596 0.0001148 -0.0002640 0.0000255 -0.0006242 0.0000679 -0.0008677 0.0001121 -0.0002871 0.0000330 -0.0006196 0.0000639 -0.0005229 0.0000104 -0.0003194 0.0002458 -0.0008175 0.0000593 -0.0003683 0.0000198 -0.0007732 0.0000007 -0.0007988 -0.0000309 -0.0008886 0.0001275 -0.0008958 0.0001657 -0.0008713 0.0000446 -0.0008383 0.0000496 -0.0003124 -0.0000072 -0.0008141 0.0000608 -0.0006948 -0.0000009 -0.0005237
0.0000615 -0.0005926 0.0001056 -0.0005520 0.0000269 -0.0008374 0.0000710 -0.0011372 0.0001350 -0.0003761 0.0000093 -0.0007192 0.0000178 -0.0006360 0.0000365 -0.0005022 0.0000831 -0.0008784 0.0000404 -0.0005475 0.0000443 -0.0008609 0.0000429 -0.0009374 -0.0000132 -0.0010244 0.0001360 -0.0010209 0.0001783 -0.0010275 0.0000552 -0.0009417 0.0000534 -0.0004059 -0.0000043 -0.0009368 0.0000629 -0.0007092 0.0000147 -0.0005080
0.0000613 -0.0005678 0.0000832 -0.0005450 0.0000347 -0.0007891 0.0000793 -0.0010382 0.0001495 -0.0002867 0.0000061 -0.0006321 0.0000513 -0.0006175 0.0000827 -0.0005041 0.0001000 -0.0009067 0.0000171 -0.0005058 0.0000397 -0.0007162 0.0000192 -0.0008401 0.0000011 -0.0009699 0.0001465 -0.0009553 0.0001804 -0.0009981 0.0000499 -0.0008307 0.0000517 -0.0003779 0.0000209 -0.0007745 0.0000634 -0.0006133 0.0000301 -0.0003476
0.0000616 -0.0004387 0.0000764 -0.0004045 0.0000447 -0.0006176 0.0000863 -0.0007843 0.0001523 -0.0001483 0.0000345 -0.0004889 0.0001291 -0.0005294 0.0000731 -0.0003556 0.0001182 -0.0008193 0.0000568 -0.0004113 0.0000323 -0.0004679 0.0000129 -0.0006422 0.0000112 -0.0007987 0.0001317 -0.0007547 0.0001878 -0.0008398 0.0000515 -0.0006454 0.0000494 -0.0002839 0.0000595 -0.0004570 0.0000622 -0.0004202 0.0000332 -0.0000707
0.0000638 -0.0002365 0.0001048 -0.0002309 0.0000540 -0.0003477 0.0000872 -0.0004062 0.0001374 0.0000414 0.0000409 -0.0002292 0.0001433 -0.0003466 0.0000687 -0.0000966 0.0000045 -0.0004418 0.0000945 -0.0002476 0.0000147 -0.0001469 0.0000050 -0.0004002 -0.0000003 -0.0005640 0.0001636 -0.0005447 0.0001887 -0.0006278 0.0000666 -0.0003983 0.0000453 -0.0001392 0.0000927 -0.0000771 0.0000652 -0.0002108 0.0000401 0.0001905
0.0000633 -0.0000027 0.0001232 -0.0000091 0.0000646 -0.0000047 0.0000881 0.0000120 0.0001155 0.0002554 0.0000318 0.0000605 0.0001376 -0.0001606 0.0000595 0.0001978 0.0001428 -0.0002983 0.0001314 -0.0000612 -0.0000011 0.0001496 0.0000091 -0.0001398 -0.0000069 -0.0003505 0.0001427 -0.0002967 0.0001726 -0.0003884 0.0000445 -0.0001353 0.0000486 0.0000119 0.0001072 0.0002045 0.0000664 -0.0002286 0.0000302 0.0001098
0.0000688 -0.0000779 0.0001180 -0.0000549 0.0000574 -0.0001921 0.0000741 -0.0002714 0.0000738 0.0000893 0.0000239 -0.0001494 0.0001602 -0.0003144 0.0000495 0.0000157 0.0002238 -0.0005871 0.0001253 -0.0001174 -0.0000033 -0.0001947 0.0000148 -0.0003661 -0.0000029 -0.0005771 0.0000886 -0.0004654 0.0001710 -0.0005403 0.0000353 -0.0004249 0.0000435 -0.0000817 0.0000681 -0.0002523 0.0000670 -0.0005548 0.0000181 -0.0003444
0.0000743 -0.0004253 0.0000898 -0.0003947 0.0000400 -0.0007396 0.0000589 -0.0009731 0.0000608 -0.0002838 0.0000503 -0.0006653 0.0001275 -0.0006497 0.0000403 -0.0004405 0.0001428 -0.0008471 0.0001019 -0.0004452 -0.0000005 -0.0007417 0.0000316 -0.0008416 -0.0000039 -0.0009624 0.0000945 -0.0008839 0.0001782 -0.0008979 0.0000563 -0.0008945 0.0000419 -0.0003041 0.0000144 -0.0008736 0.0000765 -0.0007616 0.0000264 -0.0005766
0.0000719 -0.0005559 0.0000801 -0.0005560 0.0000408 -0.0008796 0.0000645 -0.0011096 0.0001245 -0.0003885 0.0000812 -0.0007823 0.0000481 -0.0006971 -0.0000213 -0.0004920 0.0001280 -0.0008440 0.0001193 -0.0006201 0.0000154 -0.0008001 0.0000589 -0.0009276 0.0000021 -0.0010442 0.0001337 -0.0009802 0.0001652 -0.0009630 0.0000613 -0.0009323 0.0000416 -0.0003628 0.0000103 -0.0009113 0.0000778 -0.0007502 0.0000228 -0.0005081
0.0000747 -0.0005042 0.0000727 -0.0004836 0.0000466 -0.0008005 0.0000749 -0.0009633 0.0001341 -0.0002979 0.0000678 -0.0006521 0.0000845 -0.0006471 0.0000336 -0.0004560 0.0000748 -0.0007437 0.0001566 -0.0005846 0.0000331 -0.0006860 0.0000645 -0.0008461 0.0000138 -0.0009815 0.0001319 -0.0008906 0.0001721 -0.0009055 0.0000594 -0.0008389 0.0000442 -0.0003328 0.0000382 -0.0007381 0.0000725 -0.0006396 0.0000217 -0.0003344
0.0000765 -0.0003665 0.0000788 -0.0003463 0.0000559 -0.0006051 0.0000817 -0.0006876 0.0001058 -0.0001093 0.0000403 -0.0004299 0.0000863 -0.0004714 0.0000888 -0.0003234 0.0001330 -0.0006560 0.0001385 -0.0004146 0.0000287 -0.0004310 0.0000193 -0.0006269 0.0000089 -0.0007832 0.0001501 -0.0007001 0.0001861 -0.0007495 0.0000598 -0.0006239 0.0000501 -0.0002332 0.0000754 -0.0004127 0.0000633 -0.0004282 0.0000357 -0.0000926
0.0000796 -0.0001658 0.0001154 -0.0001878 0.0000714 -0.0003417 0.0000832 -0.0003203 0.0001108 0.0000784 0.0000386 -0.0001839 0.0000918 -0.0002904 0.0000569 -0.0000646 0.0002986 -0.0006393 0.0000958 -0.0001838 0.0000114 -0.0001277 -0.0000146 -0.0003686 0.0000048 -0.0005561 0.0001994 -0.0005119 0.0001728 -0.0005168 0.0000652 -0.0003467 0.0000483 -0.0000941 0.0001007 -0.0000365 0.0000526 -0.0001945 0.0000395 0.0001516
0.0000777 0.0000580 0.0001311 0.0000050 0.0000803 -0.0000334 0.0000825 0.0000760 0.0001380 0.0002522 0.0000116 0.0001091 0.0001372 -0.0001277 0.0000752 0.0001901 0.0003810 -0.0004504 0.0000837 0.0000264 0.0000059 0.0001559 0.0000259 -0.0001511 0.0000021 -0.0003351 0.0001657 -0.0002909 0.0001640 -0.0003016 0.0000726 -0.0001432 0.0000551 0.0000402 0.0001210 0.0002370 0.0000536 -0.0001827 0.0000257 0.0000845
0.0000830 -0.0000089 0.0001241 0.0000048 0.0000672 -0.0002012 0.0000664 -0.0001812 0.0001123 0.0001081 -0.0000142 -0.0000454 0.0000614 -0.0001503 0.0001129 0.0000158 0.0002474 -0.0004093 0.0000562 0.0000051 0.0000227 -0.0001572 0.0000446 -0.0003290 -0.0000054 -0.0005053 0.0001233 -0.0004489 0.0001684 -0.0004215 0.0000846 -0.0004057 0.0000610 -0.0000341 0.0000806 -0.0001543 0.0000599 -0.0004556 0.0000142 -0.0002897
0.0000867 -0.0002911 0.0001131 -0.0002452 0.0000499 -0.0006391 0.0000587 -0.0007663 0.0000727 -0.0001835 0.0000068 -0.0004388 0.0000417 -0.0004190 0.0000459 -0.0003075 0.0001211 -0.0005718 0.0000694 -0.0002680 0.0000466 -0.0005967 0.0000444 -0.0006326 0.0000105 -0.0008186 0.0001279 -0.0007432 0.0001718 -0.0006764 0.0000577 -0.0007160 0.0000517 -0.0001933 0.0000342 -0.0006529 0.0000646 -0.0006018 0.0000148 -0.0004314
0.0000823 -0.0003565 0.0001016 -0.0003490 0.0000507 -0.0006985 0.0000640 -0.0008165 0.0000902 -0.0002084 0.0000304 -0.0004793 0.0001302 -0.0005301 0.0000462 -0.0003612 0.0002025 -0.0006853 0.0001149 -0.0003902 0.0000429 -0.0005614 0.0000855 -0.0006596 0.0000150 -0.0008395 0.0001301 -0.0007473 0.0001660 -0.0006957 0.0000452 -0.0006907 0.0000504 -0.0002110 0.0000430 -0.0006414 0.0000634 -0.0005407 0.0000230 -0.0003477
0.0000886 -0.0002821 0.0001028 -0.0002820 0.0000609 -0.0005977 0.0000678 -0.0006392 0.0001258 -0.0001388 0.0000146 -0.0003265 0.0001103 -0.0004018 0.0001030 -0.0002969 0.0003347 -0.0007612 0.0001005 -0.0002943 0.0000316 -0.0004080 0.0000723 -0.0005585 0.0000118 -0.0007452 0.0001553 -0.0006368 0.0001705 -0.0006056 0.0000804 -0.0006333 0.0000434 -0.0001487 0.0000684 -0.0004604 0.0000562 -0.0003977 0.0000276 -0.0001759
0.0000911 -0.0001311 0.0001067 -0.0001590 0.0000861 -0.0003518 0.0000748 -0.0003326 0.0001326 0.0000276 -0.0000120 -0.0000913 0.0000687 -0.0001945 0.0000695 -0.0000597 0.0001725 -0.0004343 0.0000736 -0.0001355 0.0000178 -0.0002011 0.0000489 -0.0003348 0.0000163 -0.0005507 0.0001408 -0.0003745 0.0001711 -0.0004008 0.0000811 -0.0004154 0.0000570 -0.0000481 0.0001098 -0.0001234 0.0000535 -0.0001769 0.0000239 0.0000704
0.0000915 0.0000790 0.0000984 0.0000561 0.0001012 -0.0000367 0.0000754 0.0000368 0.0000968 0.0002806 -0.0000009 0.0001211 0.0000695 -0.0000137 0.0000857 0.0002026 0.0000670 -0.0001695 0.0001146 0.0000699 -0.0000121 -0.0000559 0.0000647 -0.0000944 0.0000024 -0.0003253 0.0001310 -0.0001107 0.0001674 -0.0001668 0.0000623 -0.0000881 0.0000681 0.0000992 0.0001414 0.0002638 0.0000494 0.0000768 0.0000310 0.0003361
0.0000943 0.0003144 0.0001071 0.0003027 0.0000967 0.0002056 0.0000713 0.0003412 0.0000714 0.0004401 -0.0000147 0.0003076 0.0000531 0.0001665 0.0000580 0.0003971 0.0000844 -0.0000953 0.0000821 0.0003125 -0.0000095 -0.0001231 0.0000462 -0.0000155 -0.0000123 -0.0003296 0.0001368 -0.0001645 0.0001656 -0.0001078 0.0000597 -0.0001250 0.0000567 0.0001647 0.0001202 0.0001883 0.0000418 -0.0000917 0.0000175 0.0000709
0.0000968 0.0001169 0.0001069 0.0001179 0.0000770 -0.0001263 0.0000446 -0.0001034 0.0000678 0.0001588 -0.0000053 0.0000345 0.0000670 -0.0000082 0.0000218 0.0001279 0.0000887 -0.0002820 0.0000366 0.0001441 0.0000305 -0.0004557 0.0000876 -0.0002763 -0.0000151 -0.0006166 0.0001417 -0.0004942 0.0001640 -0.0003353 0.0000490 -0.0005092 0.0000640 -0.0000019 0.0000663 -0.0004009 0.0000415 -0.0004576 -0.0000070 -0.0003992
0.0001042 -0.0002519 0.0000927 -0.0002403 0.0000675 -0.0006143 0.0000370 -0.0007080 0.0000882 -0.0001545 0.0000128 -0.0002781 0.0000638 -0.0002666 0.0000784 -0.0002660 0.0002617 -0.0006107 0.0000907 -0.0001879 0.0000552 -0.0005987 0.0001208 -0.0004552 -0.0000039 -0.0007947 0.0001881 -0.0006589 0.0001620 -0.0005253 0.0000353 -0.0006717 0.0000636 -0.0001295 0.0000524 -0.0006965 0.0000441 -0.0004995 -0.0000015 -0.0004278
0.0001085 -0.0002646 0.0001023 -0.0002789 0.0000771 -0.0006387 0.0000548 -0.0006933 0.0001134 -0.0001183 -0.0000024 -0.0002228 0.0000814 -0.0002721 0.0000677 -0.0002449 0.0001408 -0.0004496 0.0001458 -0.0002649 0.0000547 -0.0004276 0.0000710 -0.0003500 0.0000109 -0.0007692 0.0001857 -0.0006056 0.0001461 -0.0004854 0.0000484 -0.0006297 0.0000579 -0.0001185 0.0000716 -0.0005930 0.0000420 -0.0004109 0.0000124 -0.0003025
0.0001014 -0.0001526 0.0001139 -0.0002202 0.0000870 -0.0004980 0.0000520 -0.0004738 0.0001151 0.0000196 0.0000026 -0.0000907 0.0000916 -0.0001683 -0.0000074 -0.0000421 -0.0000933 -0.0001732 0.0001063 -0.0001057 0.0000702 -0.0001681 0.0000783 -0.0002039 0.0000107 -0.0006060 0.0001634 -0.0004271 0.0001625 -0.0003670 0.0000607 -0.0004804 0.0000675 -0.0000474 0.0000986 -0.0003141 0.0000421 -0.0002313 0.0000305 -0.0000791
0.0001000 0.0000303 0.0001229 -0.0000388 0.0000996 -0.0002180 0.0000496 -0.0000943 0.0000876 0.0002494 -0.0000018 0.0001779 0.0000937 0.0000637 0.0000070 0.0001835 -0.0000273 -0.0000109 0.0000912 0.0001360 0.0000714 0.0001716 0.0001129 -0.0000231 0.0000096 -0.0003646 0.0001487 -0.0001409 0.0001689 -0.0001639 0.0000558 -0.0001839 0.0000669 0.0000916 0.0001304 0.0000745 0.0000345 0.0000123 0.0000471 0.0001717
0.0001002 0.0002425 0.0001355 0.0001865 0.0001146 0.0000968 0.0000560 0.0003002 0.0001007 0.0004414 0.0000040 0.0004302 0.0000697 0.0003288 0.0000098 0.0004595 -0.0000128 0.0002940 0.0001070 0.0003242 0.0000669 0.0005223 0.0000838 0.0002720 0.0000129 -0.0001066 0.0001329 0.0001820 0.0001371 0.0000978 0.0000439 0.0001696 0.0000578 0.0002502 0.0001567 0.0004819 0.0000269 0.0002390 0.0000561 0.0003945
0.0001000 0.0004279 0.0001256 0.0004101 0.0001182 0.0001977 0.0000534 0.0004265 0.0001014 0.0004374 0.0000265 0.0004125 -0.0000203 0.0004638 -0.0000062 0.0004906 -0.0000736 0.0004402 0.0001090 0.0004330 0.0000673 0.0002723 0.0000702 0.0001974 0.0000088 -0.0002101 0.0001442 0.0000573 0.0001499 0.0000564 0.0000475 -0.0000224 0.0000513 0.0002434 0.0001208 0.0002266 0.0000335 -0.0000134 0.0000399 0.0000274
0.0001021 0.0001476 0.0000989 0.0001872 0.0000970 -0.0002460 0.0000305 -0.0001775 0.0000792 0.0001075 0.0000314 -0.0000166 0.0000079 0.0001228 -0.0000246 0.0001113 0.0000976 -0.0000135 0.0001046 0.0001716 0.0000714 -0.0003103 0.0000805 -0.0001868 0.0000231 -0.0006070 0.0001633 -0.0003982 0.0001634 -0.0002775 0.0000495 -0.0005534 0.0000524 0.0000221 0.0000577 -0.0005034 0.0000413 -0.0004150 0.0000171 -0.0004686
0.0001003 -0.0002441 0.0000974 -0.0002355 0.0000863 -0.0006678 0.0000211 -0.0007285 0.0000747 -0.0001294 0.0000313 -0.0003182 0.0000728 -0.0002017 -0.0000275 -0.0001554 0.0002122 -0.0003661 0.0000649 -0.0000993 0.0000894 -0.0004291 0.0000626 -0.0002880 0.0000319 -0.0007443 0.0001380 -0.0005169 0.0001562 -0.0004363 0.0000415 -0.0006920 0.0000598 -0.0001145 0.0000476 -0.0007344 0.0000381 -0.0004471 0.0000231 -0.0004767
0.0001052 -0.0002571 0.0001017 -0.0002749 0.0000947 -0.0006725 0.0000244 -0.0006793 0.0000544 -0.0000684 0.0000094 -0.0002459 0.0001381 -0.0002316 0.0000351 -0.0001628 -0.0000367 -0.0002312 0.0000453 -0.0000717 0.0000921 -0.0003045 0.0000531 -0.0002441 0.0000332 -0.0006946 0.0001102 -0.0003673 0.0001741 -0.0004230 0.0000481 -0.0006110 0.0000708 -0.0001069 0.0000702 -0.0005964 0.0000352 -0.0003486 0.0000341 -0.0003511
