-0.0000000 -0.0000000 -0.0000000 -0.0000000 -0.0000000 -0.0000000 -0.0000000 -0.0000000 -0.0000000 -0.0000000 -0.0000000 -0.0000000 -0.0000000 -0.0000000 -0.0000000 -0.0000000 -0.0000000 -0.0000000 -0.0000000 -0.0000000 -0.0000000 -0.0000000 -0.0000000 -0.0000000 -0.0000000 -0.0000000 -0.0000000 -0.0000000 -0.0000000 -0.0000000 -0.0000000 -0.0000000 -0.0000000 -0.0000000 -0.0000000 -0.0000000 -0.0000000 -0.0000000 -0.0000000 -0.0000000 -0.0000000 -0.0000000 -0.0000000 -0.0000000 -0.0000000 -0.0000000 -0.0000000 -0.0000000 -0.0000000 -0.0000000 -0.0000000 -0.0000000 -0.0000000 -0.0000000 -0.0000000 -0.0000000 -0.0000000 -0.0000000 -0.0000000 -0.0000000 -0.0000000 -0.0000000 -0.0000000 -0.0000000 -0.0000000 -0.0000000 -0.0000000 -0.0000000 -0.0000000 -0.0000000 -0.0000000 -0.0000000 -0.0000000 -0.0000000 -0.0000000 -0.0000000 -0.0000000 -0.0000000 -0.0000000 -0.0000000 -0.0000000 -0.0000000 -0.0000000 -0.0000000 -0.0000000 -0.0000000 -0.0000000 -0.0000000 -0.0000000 -0.0000000 -0.0000000 -0.0000000 -0.0000000 -0.0000000 -0.0000000 -0.0000000 -0.0000000 -0.0000000 -0.0000000 -0.0000000 -0.0000000 -0.0000000 -0.0000000 -0.0000000 -0.0000000 -0.0000000 -0.0000000 -0.0000000 -0.0000000 -0.0000000 -0.0000000 -0.0000000 -0.0000000 -0.0000000 -0.0000000 -0.0000000 -0.0000000 -0.0000000 -0.0000000 -0.0000000 -0.0000000 -0.0000000 -0.0000000 -0.0000000 -0.0000000 -0.0000000 -0.0000000 -0.0000000 -0.0000000 -0.0000000 -0.0000000 -0.0000000 -0.0000000 -0.0000000 -0.0000000 -0.0000000 -0.0000000 -0.0000000 -0.0000000 -0.0000000
-0.0000000 -0.0000000 -0.0000000 -0.0000000 -0.0000000 -0.0000000 -0.0000000 -0.0000000 -0.0000000 -0.0000000 -0.0000000 -0.0000000 -0.0000000 -0.0000000 -0.0000000 -0.0000000 -0.0000000 -0.0000000 -0.0000000 -0.0000000 -0.0000000 -0.0000000 -0.0000000 -0.0000000 -0.0000000 -0.0000000 -0.0000000 -0.0000000 -0.0000000 -0.0000000 -0.0000000 -0.0000000 -0.0000000 -0.0000000 -0.0000000 -0.0000000 -0.0000000 -0.0000000 -0.0000000 -0.0000000 -0.0000000 -0.0000000 -0.0000000 -0.0000000 -0.0000000 -0.0000000 -0.0000000 -0.0000000 -0.0000000 -0.0000000 -0.0000000 -0.0000000 -0.0000000 -0.0000000 -0.0000000 -0.0000000 -0.0000000 -0.0000000 -0.0000000 -0.0000000 -0.0000000 -0.0000000 -0.0000000 -0.0000000 -0.0000000 -0.0000000 -0.0000000 -0.0000000 -0.0000000 -0.0000000 -0.0000000 -0.0000000 -0.0000000 -0.0000000 -0.0000000 -0.0000000 -0.0000000 -0.0000000 -0.0000000 -0.0000000 -0.0000000 -0.0000000 -0.0000000 -0.0000000 -0.0000000 -0.0000000 -0.0000000 -0.0000000 -0.0000000 -0.0000000 -0.0000000 -0.0000000 -0.0000000 -0.0000000 -0.0000000 -0.0000000 -0.0000000 -0.0000000 -0.0000000 -0.0000000 -0.0000000 -0.0000000 -0.0000000 -0.0000000 -0.0000000 -0.0000000 -0.0000000 -0.0000000 -0.0000000 -0.0000000 -0.0000000 -0.0000000 -0.0000000 -0.0000000 -0.0000000 -0.0000000 -0.0000000 -0.0000000 -0.0000000 -0.0000000 -0.0000000 -0.0000000 -0.0000000 -0.0000000 -0.0000000 -0.0000000 -0.0000000 -0.0000000 -0.0000000 -0.0000000 -0.0000000 -0.0000000 -0.0000000 -0.0000000 -0.0000000 -0.0000000 -0.0000000 -0.0000000 -0.0000000 -0.0000000
0.0000020 -0.0000960 -0.0000028 -0.0000322 0.0000036 -0.0001031 0.0000135 -0.0000570 0.0000058 -0.0001137 -0.0000014 -0.0000188 0.0000369 -0.0000322 -0.0000263 -0.0000163 -0.0000044 -0.0001142 0.0000105 -0.0001629 -0.0000011 -0.0001230 0.0000004 -0.0001029 0.0000067 -0.0000347 0.0000024 -0.0000377 0.0000215 -0.0000273 0.0000008 -0.0000303 0.0000090 -0.0000859 0.0000290 -0.0000660 -0.0000058 -0.0000654 0.0000037 -0.0000676 0.0000189 -0.0001284 0.0000057 0.0000078 -0.0000178 -0.0000276 -0.0000594 0.0000444 0.0000381 -0.0000786 0.0000562 0.0000064 -0.0000502 0.0001497 0.0000498 -0.0000023 -0.0000097 0.0001406 0.0001963 -0.0001252 0.0009221 -0.0069375 -0.0003557 0.0003631 0.0000085 0.0001312 -0.0006737 0.0003030 -0.0000383 0.0001235 0.0000036 -0.0000137 0.0000037 -0.0000056 0.0000007 -0.0000195 -0.0000029 -0.0000071 -0.0000077 -0.0000435 -0.0000016 -0.0000393 -0.0000024 -0.0000091 -0.0000021 -0.0000538 0.0000064 -0.0000542 -0.0000045 -0.0000667 0.0000022 -0.0000617 -0.0000163 -0.0000341 0.0000000 0.0000063 0.0000052 -0.0000246 -0.0000016 -0.0000177 -0.0000043 -0.0000781 -0.0000035 -0.0000399 -0.0000008 -0.0000244 -0.0000163 -0.0000486 0.0000076 -0.0000596 -0.0000070 -0.0000361 -0.0000054 -0.0000388 0.0000028 -0.0000478 0.0000330 -0.0000760 -0.0002372 0.0005377 0.0000173 -0.0001350 -0.0000606 -0.0000346 0.0000102 -0.0000663 0.0000598 -0.0001299 0.0000222 -0.0001102 -0.0002997 0.0002055 0.0000281 -0.0000734 0.0000086 -0.0000705 0.0000249 -0.0000378 -0.0000018 -0.0000171
-0.0000073 0.0000238 -0.0000059 0.0000099 0.0000019 0.0000388 -0.0000062 0.0001294 -0.0000278 0.0001378 0.0000007 0.0000829 -0.0000030 0.0001294 -0.0000631 0.0001773 -0.0000268 0.0001109 -0.0000174 0.0000934 -0.0000295 0.0001172 -0.0000452 0.0000874 0.0000081 0.0001033 -0.0000123 0.0001383 0.0000138 0.0001515 -0.0000210 0.0000995 -0.0000033 0.0000672 -0.0000036 0.0001167 -0.0000397 0.0000729 -0.0000136 0.0000808 -0.0000052 0.0000740 -0.0000093 0.0001013 -0.0000222 0.0000666 0.0000002 0.0000888 -0.0000050 -0.0001821 0.0000967 0.0000040 -0.0000441 0.0002173 -0.0000738 0.0001548 -0.0000027 0.0002118 0.0003104 -0.0001892 -0.0016369 -0.0008455 -0.0006057 0.0007357 -0.0000276 0.0001652 0.0027844 -0.0029165 -0.0000453 0.0001589 0.0000026 0.0000164 0.0000295 -0.0000316 -0.0000023 0.0000465 0.0000012 0.0000617 -0.0000074 0.0000390 0.0000019 -0.0000041 -0.0000067 0.0000492 0.0000113 0.0000036 0.0000109 -0.0000007 0.0000073 0.0000080 -0.0000103 -0.0000005 -0.0000075 0.0000186 -0.0000049 0.0000155 -0.0000015 0.0000603 -0.0000010 -0.0000149 0.0000045 0.0000308 -0.0000021 0.0000245 -0.0000070 0.0000195 -0.0000154 -0.0000114 -0.0000003 0.0000010 -0.0000016 -0.0000036 -0.0000203 -0.0000037 -0.0000045 0.0000239 -0.0000213 0.0000634 0.0010548 -0.0008247 -0.0000216 0.0000060 -0.0000066 -0.0000205 -0.0000121 0.0000337 -0.0000102 -0.0000227 0.0000153 -0.0000786 0.0014401 -0.0012491 -0.0000040 -0.0000470 -0.0000064 -0.0000511 -0.0000150 0.0000380 -0.0000147 0.0000007
-0.0000095 0.0000133 -0.0000112 -0.0000072 0.0000106 0.0000131 0.0000111 0.0001093 -0.0000601 0.0001322 -0.0000160 0.0000776 -0.0000188 0.0001414 -0.0000241 0.0001755 -0.0000329 0.0000857 -0.0000433 0.0000863 -0.0000213 0.0000879 -0.0000656 0.0000485 0.0000263 0.0000539 -0.0000097 0.0001421 0.0000386 0.0001916 -0.0000136 0.0000788 0.0000053 -0.0000060 -0.0000123 0.0000883 -0.0000589 0.0000358 -0.0000182 0.0000555 -0.0000144 0.0000217 -0.0000086 0.0000159 -0.0000109 -0.0000169 0.0001110 0.0000405 -0.0001569 -0.0003951 -0.0003086 0.0002812 -0.0000069 0.0000655 -0.0000903 0.0001190 -0.0000098 0.0000525 0.0000833 -0.0001839 -0.0081114 0.0086929 -0.0001759 -0.0000656 -0.0000398 -0.0000144 -0.0010248 -0.0006929 -0.0000102 -0.0000461 0.0000012 0.0000326 -0.0000211 0.0000074 -0.0000013 0.0000651 0.0000017 0.0000838 -0.0000182 0.0000588 -0.0000022 0.0000012 -0.0000089 0.0000740 -0.0000140 0.0000191 0.0000068 0.0000153 0.0000088 -0.0000045 0.0000079 -0.0000162 0.0000285 -0.0000195 0.0000000 0.0000461 -0.0000041 0.0000939 -0.0000005 0.0000022 0.0000045 0.0000399 -0.0000077 0.0000305 -0.0000111 0.0000339 0.0000101 -0.0000416 -0.0000036 0.0000129 -0.0000103 -0.0000155 -0.0000241 0.0000076 -0.0000140 0.0000337 -0.0000065 0.0000135 0.0004217 -0.0005414 -0.0000608 -0.0000521 -0.0000321 -0.0000488 0.0000316 -0.0000181 0.0000315 -0.0000069 -0.0000316 -0.0000576 0.0034814 -0.0022315 0.0000068 -0.0001077 -0.0000286 -0.0000775 -0.0000189 -0.0000422 -0.0000157 -0.0000508
-0.0000059 -0.0001211 -0.0000150 -0.0001022 0.0000113 -0.0001175 0.0000149 -0.0000312 -0.0000571 -0.0000291 -0.0000081 -0.0000415 -0.0000171 0.0000412 -0.0000140 0.0000845 -0.0000298 -0.0000633 -0.0000155 -0.0000665 -0.0000210 -0.0000399 -0.0000944 -0.0000574 0.0000253 -0.0000010 -0.0000231 0.0000404 0.0000567 0.0001588 -0.0000046 0.0000325 0.0000021 -0.0000321 -0.0000253 0.0000614 -0.0000686 -0.0000201 -0.0000121 0.0000412 -0.0000232 -0.0000299 -0.0000057 0.0000963 -0.0000346 0.0000165 -0.0000300 0.0003137 -0.0002206 -0.0002135 -0.0003313 0.0005256 -0.0000261 0.0002237 -0.0001751 0.0002951 -0.0000361 0.0003063 -0.0000304 0.0002419 -0.0008418 -0.0027406 0.0001499 0.0000087 -0.0000617 0.0002790 -0.0008649 0.0009837 -0.0000299 0.0001782 -0.0000004 -0.0000200 -0.0000221 -0.0000538 0.0000049 -0.0000003 -0.0000086 0.0000179 -0.0000310 -0.0000470 0.0000051 -0.0000803 -0.0000007 0.0000137 -0.0000237 -0.0001120 -0.0000040 -0.0000571 0.0000042 -0.0001367 0.0000028 -0.0000879 0.0000053 -0.0000956 0.0000193 0.0001025 0.0000095 0.0000358 -0.0000016 0.0000435 -0.0000020 -0.0000585 0.0000084 -0.0000620 -0.0000094 0.0000094 -0.0000042 -0.0001058 0.0000160 -0.0000671 -0.0000133 -0.0000763 -0.0000160 -0.0000036 -0.0000114 -0.0000257 -0.0000328 -0.0000531 -0.0010616 0.0009698 -0.0000176 -0.0000468 -0.0000132 0.0000100 0.0000277 0.0000395 -0.0000923 0.0001511 -0.0000089 -0.0000034 0.0017039 -0.0013476 0.0000416 -0.0000496 -0.0000382 0.0000272 -0.0000178 0.0000764 -0.0000207 0.0000671
-0.0000186 0.0000730 -0.0000215 -0.0000319 0.0000031 0.0000791 -0.0000041 0.0001415 -0.0000558 0.0002391 -0.0000170 0.0000542 -0.0000399 0.0001542 -0.0000234 0.0002155 -0.0000495 0.0002006 -0.0000255 0.0002113 -0.0000653 0.0002924 -0.0001408 0.0002444 -0.0000134 0.0001735 -0.0000319 0.0002187 0.0000528 0.0003205 -0.0000348 0.0001569 -0.0000348 0.0001742 -0.0000432 0.0002240 -0.0001099 0.0001439 -0.0000321 0.0002204 -0.0000617 0.0002167 -0.0000267 0.0001731 -0.0000464 0.0001206 -0.0002710 0.0006071 -0.0000840 -0.0002293 -0.0001034 0.0003289 -0.0000354 0.0002969 0.0000182 0.0001694 -0.0000185 0.0003379 0.0001668 -0.0002718 0.0049568 -0.0150689 0.0002546 -0.0003951 -0.0000489 0.0002551 0.0028443 -0.0013660 -0.0000287 0.0001626 -0.0000066 0.0000712 0.0000092 -0.0000374 -0.0000090 0.0001350 -0.0000121 0.0001289 -0.0000606 0.0001123 -0.0000040 0.0000245 -0.0000143 0.0001629 -0.0000241 0.0000274 -0.0000217 0.0000350 -0.0000299 0.0000296 -0.0000090 0.0000290 0.0000175 0.0000134 0.0000197 0.0001506 0.0000062 0.0001635 -0.0000054 0.0000747 -0.0000197 0.0000805 0.0000144 0.0000217 -0.0000163 0.0000672 -0.0000528 0.0000010 0.0000070 0.0000024 -0.0000168 -0.0000151 -0.0000238 0.0000077 -0.0000115 -0.0000031 -0.0000085 -0.0000730 -0.0006948 0.0008636 -0.0000338 -0.0000384 0.0000226 -0.0000303 0.0000035 0.0001035 -0.0000315 0.0001000 -0.0000286 0.0000516 -0.0014800 0.0015710 0.0000259 -0.0000298 -0.0000356 0.0000398 -0.0000843 0.0001746 -0.0000169 0.0000718
-0.0000134 0.0000696 -0.0000261 -0.0000275 -0.0000018 0.0000511 0.0000126 0.0000996 -0.0000473 0.0002179 -0.0000506 0.0000567 -0.0000226 0.0000985 -0.0000237 0.0001622 -0.0000442 0.0001330 -0.0000338 0.0001563 -0.0000509 0.0002167 -0.0001558 0.0002293 -0.0000410 0.0001566 -0.0000250 0.0002059 0.0000586 0.0003073 -0.0000400 0.0001259 -0.0000309 0.0000886 -0.0000500 0.0001402 -0.0001226 0.0001039 -0.0000362 0.0001754 -0.0000666 0.0001455 -0.0000350 0.0000551 -0.0000421 0.0000581 -0.0002602 0.0005027 0.0000664 -0.0005239 -0.0001470 0.0001580 0.0000137 0.0001324 0.0003042 -0.0001014 -0.0000147 0.0001340 -0.0000546 -0.0003308 -0.0071895 0.0067213 0.0002690 -0.0007130 -0.0000244 0.0000468 -0.0022553 0.0017863 -0.0000291 -0.0000071 0.0000051 0.0000402 0.0000030 -0.0000253 -0.0000151 0.0001313 -0.0000124 0.0001216 -0.0000767 0.0000863 0.0000038 -0.0000099 -0.0000074 0.0001381 -0.0000197 -0.0000226 -0.0000205 0.0000107 -0.0000379 -0.0000054 -0.0000010 0.0000009 0.0000155 0.0000044 0.0000135 0.0001374 0.0000052 0.0001579 -0.0000056 0.0000534 -0.0000103 0.0000054 0.0000173 -0.0000041 -0.0000110 0.0000327 -0.0000213 -0.0000385 -0.0000090 -0.0000138 -0.0000082 -0.0000293 -0.0000248 -0.0000316 -0.0000060 -0.0000553 0.0000624 -0.0001779 0.0019302 -0.0013130 -0.0000470 -0.0001439 -0.0000319 -0.0001235 0.0000467 -0.0000443 0.0000322 -0.0000336 -0.0001198 0.0000935 -0.0027514 0.0031227 -0.0000507 -0.0001145 -0.0000024 -0.0000628 -0.0000817 0.0000438 0.0000006 -0.0000478
-0.0000151 -0.0000375 -0.0000279 -0.0000767 0.0000094 -0.0001094 0.0000454 -0.0000571 -0.0000732 0.0000634 -0.0000432 -0.0000426 -0.0000251 0.0000153 -0.0000209 0.0000310 -0.0000435 -0.0000210 -0.0000234 0.0000040 -0.0000194 0.0000221 -0.0001033 0.0000016 -0.0000248 0.0000958 -0.0000278 0.0000701 0.0000705 0.0002862 -0.0000364 0.0000401 -0.0000310 0.0000462 -0.0000560 0.0000582 -0.0001037 0.0000491 -0.0000255 0.0001319 -0.0000494 0.0000658 -0.0000312 0.0001252 -0.0000627 0.0001194 -0.0002592 0.0005049 0.0000848 -0.0002804 -0.0000847 0.0002491 -0.0000440 0.0003723 0.0004121 0.0000016 -0.0000469 0.0004171 -0.0002106 0.0006313 -0.0047868 0.0105386 -0.0002644 -0.0001455 -0.0000461 0.0003663 0.0005394 0.0004561 -0.0000559 0.0002362 -0.0000048 -0.0000453 0.0000004 -0.0000627 -0.0000137 0.0000407 -0.0000101 0.0000354 -0.0000705 -0.0000469 -0.0000199 -0.0000969 0.0000094 -0.0000042 0.0000024 -0.0001822 -0.0000267 -0.0000666 -0.0000072 -0.0001454 0.0000016 -0.0000989 -0.0000356 -0.0000385 0.0000116 0.0001061 0.0000124 0.0000682 0.0000014 0.0000229 -0.0000059 -0.0000983 -0.0000323 -0.0000199 -0.0000009 -0.0000376 0.0000143 -0.0001088 -0.0000032 -0.0000548 -0.0000102 -0.0000526 -0.0000267 -0.0000438 -0.0000079 -0.0000524 0.0000130 -0.0000621 0.0014225 -0.0008552 -0.0000462 0.0000379 0.0000046 -0.0000002 0.0000125 0.0000138 0.0000121 0.0000539 -0.0001549 0.0001677 -0.0002414 0.0014516 -0.0000808 -0.0000582 -0.0000215 0.0000580 -0.0000608 0.0001031 -0.0000182 0.0000559
-0.0000236 0.0001554 -0.0000342 0.0000268 0.0000043 0.0000460 0.0000537 0.0001483 -0.0001273 0.0003067 -0.0000350 0.0000534 -0.0000310 0.0001763 -0.0000467 0.0001901 -0.0000624 0.0002067 -0.0000324 0.0002600 -0.0000231 0.0002820 -0.0001579 0.0002296 -0.0000203 0.0002385 -0.0000269 0.0002390 0.0000760 0.0004767 -0.0000437 0.0000778 -0.0000691 0.0001824 -0.0000558 0.0001546 -0.0001280 0.0001776 -0.0000321 0.0002388 -0.0000521 0.0002485 -0.0000370 0.0001712 -0.0000626 0.0002023 -0.0002726 0.0005130 0.0000263 -0.0000203 -0.0001536 0.0006732 -0.0000552 0.0003983 0.0000690 0.0001035 -0.0000314 0.0004267 0.0000525 0.0002841 0.0005002 0.0064963 -0.0002552 -0.0001576 -0.0001120 0.0003876 -0.0014374 0.0009812 -0.0000422 0.0001847 -0.0000330 0.0000846 0.0000071 0.0000291 -0.0000240 0.0001771 0.0000002 0.0001746 -0.0000768 0.0001308 -0.0000419 0.0000505 -0.0000056 0.0001232 -0.0000114 0.0000224 -0.0000274 0.0000664 0.0000045 0.0000354 -0.0000129 0.0000463 -0.0000423 0.0000940 -0.0000022 0.0000880 -0.0000035 0.0001978 0.0000074 0.0000316 -0.0000220 0.0001035 -0.0000472 0.0001129 -0.0000200 0.0000418 -0.0000166 0.0000110 -0.0000016 0.0000637 -0.0000281 0.0000315 -0.0000462 0.0000094 -0.0000169 0.0000535 -0.0000156 0.0001358 -0.0018273 0.0017236 -0.0000730 0.0002336 0.0000988 0.0001114 -0.0000572 0.0001986 -0.0000985 0.0002543 -0.0001660 0.0001773 -0.0011430 0.0022636 -0.0000682 -0.0000631 -0.0000345 0.0001132 -0.0000870 0.0001302 -0.0000214 0.0000723
-0.0000160 0.0001530 -0.0000336 0.0000755 -0.0000080 0.0000245 0.0000547 0.0002171 -0.0001236 0.0002899 -0.0000274 0.0000328 -0.0000147 0.0002235 -0.0000324 0.0001641 -0.0000584 0.0001508 -0.0000691 0.0002278 -0.0000507 0.0002528 -0.0001970 0.0002504 -0.0000298 0.0002817 -0.0000238 0.0002781 0.0000870 0.0005575 -0.0000764 0.0000617 -0.0000642 0.0000835 -0.0000595 0.0001338 -0.0001307 0.0001240 -0.0000373 0.0001978 -0.0000470 0.0001802 -0.0000350 0.0001000 -0.0000547 0.0001624 -0.0000516 0.0001069 -0.0000826 0.0001819 0.0000644 0.0004222 -0.0000656 0.0002280 -0.0001078 0.0001287 -0.0000212 0.0002250 -0.0001838 0.0003552 -0.0053562 0.0099389 0.0006910 -0.0008249 -0.0001085 0.0002127 -0.0082876 0.0071991 -0.0001222 0.0001084 -0.0000347 0.0000968 -0.0000259 0.0000695 -0.0000263 0.0001764 0.0000048 0.0001858 -0.0000928 0.0001292 -0.0000147 0.0000508 -0.0000052 0.0001066 -0.0000214 0.0000223 -0.0000272 0.0000861 -0.0000140 0.0000255 -0.0000102 0.0000551 0.0000071 0.0000489 -0.0000144 0.0000304 -0.0000069 0.0001938 0.0000057 0.0000107 -0.0000244 0.0000817 -0.0000106 0.0000869 -0.0000281 0.0000354 -0.0000520 0.0000205 0.0000033 0.0000636 -0.0000299 0.0000100 -0.0000625 -0.0000159 -0.0000174 0.0000150 0.0000523 0.0000041 -0.0031446 0.0022137 -0.0000885 0.0000401 0.0000744 0.0000107 -0.0000803 0.0001525 -0.0001288 0.0002327 -0.0001786 0.0000542 -0.0011622 0.0012947 -0.0001008 -0.0002299 -0.0000143 0.0000333 -0.0001197 -0.0000048 -0.0000041 -0.0000378
-0.0000128 0.0000833 -0.0000335 0.0000537 -0.0000008 -0.0000792 0.0000559 0.0001994 -0.0001031 0.0002230 -0.0000428 -0.0000115 0.0000124 0.0001938 -0.0000067 0.0000901 -0.0000403 0.0000728 -0.0000815 0.0001453 -0.0000668 0.0001933 -0.0002086 0.0002147 -0.0000119 0.0003160 -0.0000408 0.0002288 0.0001019 0.0006291 -0.0000867 0.0000805 -0.0000684 0.0001137 -0.0001104 0.0002312 -0.0001145 0.0001404 -0.0000524 0.0002510 -0.0000628 0.0002345 -0.0000372 0.0002723 -0.0000780 0.0003014 -0.0000474 0.0001060 -0.0001817 0.0005999 0.0001752 0.0002071 -0.0001250 0.0004684 0.0001269 0.0002386 -0.0000683 0.0005797 -0.0003067 0.0008788 -0.0021850 0.0024123 0.0007457 -0.0002525 -0.0000721 0.0004596 -0.0067505 0.0092027 -0.0002363 0.0004067 -0.0000378 0.0000033 -0.0000032 -0.0000214 -0.0000193 0.0000469 0.0000034 0.0000555 -0.0000879 -0.0000336 -0.0000010 -0.0000570 0.0000018 -0.0000875 -0.0000141 -0.0001377 -0.0000149 -0.0000050 -0.0000453 -0.0000941 0.0000027 -0.0000497 -0.0000423 -0.0000180 -0.0000394 -0.0001479 -0.0000104 0.0000649 0.0000106 -0.0000303 -0.0000216 -0.0000973 -0.0000019 -0.0000021 -0.0000496 -0.0000433 -0.0000066 -0.0001360 0.0000078 -0.0000283 -0.0000245 -0.0000566 -0.0000395 -0.0000828 -0.0000020 -0.0001220 0.0000910 -0.0002394 -0.0031171 0.0014237 -0.0001160 -0.0002359 -0.0000181 -0.0000467 -0.0000847 0.0000362 -0.0000380 0.0001296 -0.0002362 0.0001049 -0.0003140 -0.0005747 -0.0001772 -0.0003141 0.0000118 0.0000423 -0.0001326 -0.0000711 -0.0000038 -0.0000240
-0.0000203 0.0002173 -0.0000442 0.0001062 -0.0000056 -0.0000081 0.0000511 0.0002674 -0.0001316 0.0002899 -0.0000772 0.0000579 0.0000090 0.0002424 -0.0000730 0.0001959 -0.0000441 0.0001063 -0.0000826 0.0002015 -0.0000698 0.0002727 -0.0002297 0.0002867 -0.0000056 0.0003149 -0.0000492 0.0002958 0.0001032 0.0006367 -0.0000736 0.0000680 -0.0001002 0.0001529 -0.0000750 0.0001686 -0.0001315 0.0001560 -0.0000567 0.0002424 -0.0000594 0.0002494 -0.0000362 0.0002331 -0.0000860 0.0003190 -0.0001553 0.0001783 0.0000668 0.0003275 -0.0000049 0.0001736 -0.0000718 0.0003221 0.0002024 0.0001189 -0.0000715 0.0004877 -0.0002345 0.0002492 0.0038176 -0.0077720 -0.0003865 0.0008457 -0.0000706 0.0003080 0.0006977 0.0023775 -0.0001351 0.0002352 -0.0000409 0.0000118 0.0000212 -0.0000384 -0.0000382 0.0000059 -0.0000208 -0.0000624 -0.0000968 0.0000067 -0.0000240 -0.0000261 -0.0000138 -0.0002320 -0.0000265 -0.0000566 0.0000308 -0.0000251 -0.0000371 -0.0000121 0.0000029 -0.0000038 -0.0000951 0.0000387 -0.0001220 -0.0007675 -0.0001411 -0.0006406 -0.0000311 -0.0001716 -0.0000392 -0.0000381 0.0000018 0.0000430 -0.0000298 -0.0000910 0.0000135 -0.0000890 0.0000048 0.0000291 -0.0000076 -0.0000102 0.0000628 -0.0000221 0.0000002 -0.0001262 0.0000541 -0.0000280 0.0000675 -0.0018402 -0.0001984 -0.0003942 -0.0000243 0.0000826 -0.0001603 0.0000258 -0.0001037 0.0002396 -0.0002142 0.0003749 -0.0011350 0.0001808 -0.0001959 -0.0002009 0.0000066 0.0001664 -0.0001622 -0.0000434 -0.0000387 0.0000990
-0.0000166 0.0001643 -0.0000532 0.0001001 -0.0000106 -0.0000679 0.0000625 0.0001995 -0.0001833 0.0001893 -0.0000546 -0.0000386 0.0000024 0.0002050 -0.0000611 0.0000536 -0.0000455 -0.0000452 -0.0000751 0.0000353 -0.0000722 0.0001284 -0.0001801 0.0001063 0.0000038 0.0002352 -0.0000486 0.0002323 0.0001127 0.0005575 -0.0000931 -0.0000169 -0.0001013 -0.0000194 -0.0000212 -0.0000179 -0.0001189 0.0000140 -0.0000502 0.0001041 -0.0000308 0.0000566 -0.0000190 0.0000769 -0.0000758 0.0002024 -0.0001019 -0.0000636 -0.0000240 0.0001078 -0.0000892 0.0001006 -0.0000074 0.0000413 0.0001232 0.0001144 -0.0000529 0.0002245 0.0000212 -0.0002709 -0.0087790 0.0083180 -0.0001760 0.0003891 -0.0000232 0.0000558 0.0044112 -0.0046662 -0.0000340 0.0000329 -0.0000373 0.0000626 0.0000023 0.0000433 -0.0000948 -0.0001113 -0.0000853 -0.0001859 -0.0001155 0.0000661 -0.0000368 0.0000237 -0.0000146 -0.0004595 -0.0000146 -0.0000461 0.0000416 -0.0000182 -0.0000197 0.0000089 0.0000069 0.0000219 -0.0000716 0.0000512 -0.0002384 -0.0016481 -0.0003957 -0.0021587 -0.0001439 -0.0005405 -0.0000257 -0.0000722 0.0000169 0.0000317 -0.0000086 -0.0002199 0.0000078 -0.0000139 0.0000001 0.0000408 0.0000171 -0.0000396 0.0001630 -0.0000438 0.0000003 -0.0001772 0.0000576 0.0000791 -0.0006170 -0.0022107 -0.0002895 -0.0008409 -0.0000121 0.0000418 -0.0001773 -0.0001884 -0.0000399 0.0001227 -0.0002165 0.0003316 -0.0034827 0.0022372 -0.0001231 -0.0003011 0.0000235 0.0001470 -0.0002214 -0.0001280 -0.0000655 0.0000788
-0.0000201 0.0001359 -0.0000529 0.0000062 -0.0000008 -0.0000157 0.0000658 0.0002170 -0.0001508 0.0002543 -0.0000260 -0.0000873 0.0000116 0.0002385 -0.0000565 0.0000495 -0.0000462 0.0000392 -0.0000490 0.0000640 -0.0000903 0.0002369 -0.0001340 0.0001720 0.0000359 0.0003362 -0.0000697 0.0002399 0.0001005 0.0006148 -0.0001024 0.0000295 -0.0000990 0.0001016 -0.0000689 0.0001169 -0.0000954 0.0000918 -0.0000589 0.0002098 -0.0000379 0.0002377 -0.0000191 0.0002830 -0.0000836 0.0003615 -0.0000730 0.0002313 -0.0003673 0.0000877 -0.0003479 0.0006963 -0.0000318 0.0003922 -0.0000875 0.0005154 -0.0000615 0.0006598 -0.0000458 -0.0000554 -0.0086029 0.0091065 0.0007209 -0.0001548 0.0000092 0.0002353 0.0089531 -0.0122460 0.0000227 0.0002075 -0.0000343 0.0000378 -0.0000159 0.0000402 -0.0001145 -0.0002088 -0.0001529 -0.0002664 -0.0001107 -0.0000290 -0.0000342 0.0000105 -0.0000085 -0.0008103 -0.0000089 -0.0001550 0.0000258 0.0000049 -0.0000180 -0.0000188 0.0000108 0.0000063 -0.0000690 0.0000388 -0.0003461 -0.0021988 -0.0005934 -0.0032018 -0.0002285 -0.0009879 -0.0000177 -0.0001669 0.0000186 0.0000049 -0.0000319 -0.0004253 0.0000242 -0.0000886 0.0000139 -0.0000232 0.0000166 -0.0000998 0.0001372 -0.0002277 0.0000091 -0.0002652 0.0000357 0.0000076 -0.0063648 0.0016251 -0.0003195 -0.0011522 -0.0000168 -0.0000580 -0.0001403 -0.0004528 0.0001067 -0.0000980 -0.0002199 -0.0000296 0.0007728 -0.0018563 -0.0001054 -0.0004765 0.0000244 0.0000849 -0.0002271 -0.0002668 -0.0000546 -0.0000158
-0.0000248 0.0002210 -0.0000585 -0.0000637 0.0000026 0.0000739 0.0000526 0.0001897 -0.0001054 0.0002628 0.0000012 -0.0000982 0.0000430 0.0002954 -0.0000999 0.0001478 -0.0000572 0.0000406 -0.0000024 0.0000276 -0.0000996 0.0002967 -0.0001537 0.0002875 0.0000489 0.0003127 -0.0000887 0.0002478 0.0000593 0.0004758 -0.0000974 0.0000267 -0.0000745 0.0000773 -0.0000894 0.0000968 -0.0000903 0.0000504 -0.0000563 0.0001616 -0.0000289 0.0002052 -0.0000186 0.0002264 -0.0000698 0.0003093 0.0001591 0.0001419 -0.0004461 -0.0004555 0.0000536 0.0003455 -0.0000193 0.0003402 -0.0004191 0.0006272 -0.0000341 0.0004968 -0.0007577 0.0004097 -0.0026054 0.0044060 0.0008759 -0.0005836 0.0000178 0.0000756 0.0060256 -0.0051765 0.0000517 0.0001180 -0.0000379 0.0000148 -0.0000099 -0.0000334 -0.0000977 -0.0001351 -0.0001862 -0.0003187 -0.0001088 -0.0000350 -0.0000351 0.0000436 -0.0000190 -0.0010483 -0.0000378 -0.0001087 -0.0000000 0.0000929 -0.0000168 0.0000945 0.0000101 0.0000865 -0.0000390 0.0000686 -0.0004110 -0.0023630 -0.0006551 -0.0033925 -0.0002548 -0.0012198 -0.0000623 0.0000006 0.0000156 0.0001087 -0.0000655 -0.0005336 0.0000064 -0.0000796 0.0000151 0.0000487 0.0000066 -0.0000530 0.0000919 -0.0003189 0.0000076 -0.0002324 -0.0000228 0.0001600 -0.0083325 0.0030653 -0.0003185 -0.0009060 -0.0000162 0.0001388 -0.0001579 -0.0003493 0.0000321 0.0000331 -0.0002374 -0.0001016 0.0016662 -0.0024455 -0.0001611 -0.0002895 -0.0000264 0.0002504 -0.0002133 -0.0001310 -0.0000682 0.0001045
-0.0000089 0.0001527 -0.0000613 -0.0001326 0.0000067 0.0000110 0.0000669 0.0000737 -0.0000814 0.0001262 0.0000123 -0.0001780 0.0000693 0.0002552 -0.0000429 0.0000226 -0.0000394 -0.0001662 0.0000278 -0.0001779 -0.0000952 0.0001390 -0.0001861 0.0001486 0.0000623 0.0001768 -0.0000879 0.0001105 0.0000530 0.0002403 -0.0001002 -0.0000512 -0.0000285 -0.0001598 -0.0000976 -0.0000522 -0.0000659 -0.0001195 -0.0000496 -0.0000023 -0.0000098 -0.0000044 0.0000067 0.0000489 -0.0000539 0.0001508 0.0003786 -0.0002632 -0.0004725 -0.0004805 0.0001671 -0.0001041 0.0000101 0.0000567 -0.0003759 0.0004475 -0.0000265 0.0001581 -0.0006004 0.0003928 -0.0127584 0.0173052 0.0003090 -0.0003811 0.0000035 0.0000129 0.0006229 -0.0016382 0.0000624 0.0000847 -0.0000363 0.0001217 -0.0000518 0.0000840 -0.0001027 -0.0000303 -0.0002017 -0.0003083 -0.0001206 0.0000412 -0.0000431 0.0001681 -0.0000379 -0.0010534 -0.0000565 0.0000487 -0.0000175 0.0001912 -0.0000381 0.0001919 -0.0000059 0.0001695 -0.0000164 0.0001165 -0.0004428 -0.0023473 -0.0006592 -0.0033565 -0.0002647 -0.0013179 -0.0000606 0.0000337 -0.0000195 0.0001731 -0.0000879 -0.0005853 -0.0000129 -0.0000677 0.0000033 0.0001034 -0.0000052 -0.0000366 0.0000956 -0.0003403 -0.0000019 -0.0002545 -0.0000208 0.0001720 -0.0037893 -0.0000776 -0.0002973 -0.0008681 0.0000092 0.0000995 -0.0001775 -0.0003437 -0.0000334 0.0001129 -0.0002821 -0.0002514 -0.0012960 0.0013865 -0.0002194 -0.0002338 -0.0000455 0.0002270 -0.0002066 -0.0001309 -0.0000769 0.0000688
-0.0000079 0.0001904 -0.0000525 -0.0001333 0.0000143 0.0000890 0.0000678 0.0001969 -0.0000535 0.0002427 -0.0000248 -0.0001273 0.0000286 0.0003198 -0.0000066 0.0000548 -0.0000322 -0.0000275 0.0000300 -0.0000585 -0.0001052 0.0002847 -0.0001526 0.0002003 0.0000719 0.0003306 -0.0001079 0.0001822 0.0000535 0.0003728 -0.0001072 0.0000220 -0.0000351 0.0000172 -0.0001141 0.0000937 -0.0000387 0.0000216 -0.0000516 0.0001467 -0.0000125 0.0002445 0.0000062 0.0003135 -0.0000620 0.0003579 0.0001078 0.0002304 -0.0003078 -0.0000453 -0.0001529 0.0003103 -0.0000328 0.0003753 0.0000839 0.0005022 -0.0000506 0.0005378 -0.0000511 0.0003717 -0.0039695 0.0065214 -0.0003704 0.0002527 0.0000202 0.0001251 -0.0091033 0.0020027 0.0000976 0.0001443 -0.0000508 0.0000996 -0.0000844 0.0001283 -0.0000923 -0.0000922 -0.0002007 -0.0004443 -0.0001118 -0.0000535 -0.0000506 0.0001372 -0.0000408 -0.0011661 -0.0000562 0.0000101 -0.0000174 0.0001760 -0.0000660 0.0001318 -0.0000316 0.0001360 -0.0000000 0.0000381 -0.0004567 -0.0023740 -0.0006293 -0.0032817 -0.0002594 -0.0014123 -0.0000380 -0.0001135 -0.0000168 0.0001134 -0.0000800 -0.0006840 -0.0000616 -0.0001075 0.0000112 0.0000372 -0.0000150 -0.0000808 0.0000555 -0.0004590 -0.0000069 -0.0003652 0.0000569 0.0001487 -0.0009408 -0.0019922 -0.0002636 -0.0008708 -0.0000174 -0.0000352 -0.0001473 -0.0004857 -0.0000021 -0.0000449 -0.0003065 -0.0005534 -0.0038182 0.0045648 -0.0002263 -0.0003448 -0.0000484 0.0001089 -0.0001858 -0.0001995 -0.0000752 -0.0000341
-0.0000098 0.0002393 -0.0000556 -0.0001342 0.0000087 0.0001434 0.0000491 0.0002724 -0.0000491 0.0002415 0.0000198 -0.0001598 0.0000009 0.0003690 0.0000052 0.0000942 -0.0000401 -0.0000329 0.0000385 -0.0000373 -0.0001048 0.0003083 -0.0000857 0.0001430 0.0000676 0.0003713 -0.0001027 0.0002595 0.0000414 0.0004727 -0.0000957 0.0000111 -0.0000311 0.0000107 -0.0000964 0.0000720 -0.0000296 0.0000042 -0.0000418 0.0001070 -0.0000078 0.0002155 0.0000054 0.0002849 -0.0000523 0.0003177 0.0000136 0.0005558 -0.0004012 -0.0006995 0.0002792 0.0000196 -0.0000216 0.0003201 0.0000294 0.0004503 -0.0000204 0.0004893 0.0001548 0.0001126 -0.0028682 0.0020471 -0.0000964 0.0003062 0.0000620 -0.0000792 -0.0304135 0.0190939 0.0000610 0.0001391 -0.0000438 0.0000052 -0.0000643 0.0000373 -0.0000473 -0.0001218 -0.0001512 -0.0005634 -0.0000784 -0.0000829 -0.0000470 0.0000893 -0.0000291 -0.0012120 -0.0000554 0.0000165 -0.0000066 0.0001684 -0.0000497 0.0001466 -0.0000283 0.0001359 0.0000196 0.0000130 -0.0004154 -0.0022150 -0.0005067 -0.0026510 -0.0002096 -0.0013314 -0.0000525 0.0000199 -0.0000271 0.0001653 -0.0000928 -0.0006636 -0.0000504 -0.0000889 0.0000184 0.0000583 -0.0000080 -0.0000711 -0.0000450 -0.0005438 -0.0000169 -0.0003151 0.0000674 0.0004373 -0.0024291 -0.0001806 -0.0001928 -0.0003254 -0.0000937 0.0002011 -0.0001147 -0.0003185 -0.0000770 0.0000468 -0.0002641 -0.0006898 -0.0021904 0.0022011 -0.0001455 -0.0002850 -0.0000590 0.0002075 -0.0001682 -0.0000009 -0.0000764 0.0000967
-0.0000162 0.0001752 -0.0000591 -0.0003749 0.0000096 0.0000781 0.0000547 0.0001264 -0.0000108 0.0001555 0.0000111 -0.0002280 0.0000294 0.0003770 0.0000334 0.0000120 -0.0000156 -0.0002568 0.0000326 -0.0002167 -0.0000837 0.0001807 -0.0000663 0.0000304 0.0000814 0.0002616 -0.0000947 0.0001875 0.0000410 0.0003667 -0.0000863 -0.0000713 0.0000086 -0.0001889 -0.0000908 -0.0001182 -0.0000080 -0.0001494 -0.0000297 -0.0000796 0.0000169 0.0000052 0.0000272 0.0000975 -0.0000365 0.0001485 0.0001131 0.0007581 -0.0009093 -0.0016038 0.0004574 -0.0001215 0.0000537 0.0001517 0.0000393 0.0001464 0.0000120 0.0003309 0.0000711 0.0002973 -0.0190003 0.0122544 0.0001841 0.0003547 0.0000367 0.0000054 -0.0185531 0.0115041 -0.0000107 0.0004009 -0.0000322 -0.0000034 -0.0000716 0.0000970 -0.0000265 -0.0000333 -0.0001248 -0.0005252 -0.0000539 -0.0000499 -0.0000376 0.0001067 -0.0000073 -0.0009809 -0.0000489 0.0001095 0.0000071 0.0001486 -0.0000276 0.0001159 -0.0000235 0.0001340 -0.0000216 0.0000773 -0.0002950 -0.0017988 -0.0003346 -0.0017411 -0.0001489 -0.0011120 -0.0000510 0.0000370 -0.0000310 0.0001469 -0.0000926 -0.0005822 -0.0000603 -0.0000723 0.0000165 0.0000261 0.0000021 -0.0000847 -0.0000762 -0.0005517 -0.0000344 -0.0002846 0.0000444 0.0005559 -0.0046582 0.0022233 -0.0001046 -0.0001855 -0.0001081 0.0001947 -0.0000994 -0.0002362 -0.0001498 0.0001635 -0.0002566 -0.0007607 0.0011230 0.0007108 -0.0001033 -0.0002643 -0.0000797 0.0002180 -0.0001208 0.0000608 -0.0000744 0.0000865
-0.0000286 0.0002551 -0.0000422 -0.0005672 0.0000247 0.0001791 0.0000522 0.0001192 -0.0000158 0.0004208 -0.0000314 -0.0001796 0.0000425 0.0005359 0.0000294 0.0001603 -0.0000102 -0.0000635 0.0000511 -0.0000703 -0.0001169 0.0004462 -0.0000992 0.0003642 0.0000862 0.0004091 -0.0000934 0.0002844 0.0000279 0.0004428 -0.0001036 0.0000783 0.0000066 0.0000563 -0.0000878 0.0000051 0.0000189 0.0000349 -0.0000501 0.0001050 0.0000075 0.0002711 0.0000247 0.0003519 -0.0000500 0.0003819 0.0000912 0.0012940 -0.0010285 -0.0015400 0.0001954 0.0003474 0.0000435 0.0004079 -0.0001020 0.0005185 0.0000274 0.0005433 0.0006629 -0.0001362 -0.0254071 0.0270741 0.0002137 0.0002788 0.0000480 0.0000299 -0.0047711 0.0031059 0.0000620 0.0003728 -0.0000230 -0.0000082 -0.0000584 0.0001047 -0.0000351 -0.0000758 -0.0001035 -0.0005828 -0.0000156 -0.0000763 -0.0000395 0.0000647 0.0000216 -0.0008661 -0.0000293 0.0000888 -0.0000001 0.0001423 -0.0000433 0.0000636 -0.0000180 0.0001219 -0.0000304 0.0000712 -0.0001443 -0.0014501 -0.0002073 -0.0012788 -0.0000843 -0.0006075 -0.0000421 -0.0000811 -0.0000036 0.0000957 -0.0000434 -0.0004581 -0.0000646 -0.0001020 0.0000040 0.0000018 0.0000067 -0.0000791 0.0000709 -0.0004498 -0.0000447 -0.0003072 0.0000636 0.0004118 -0.0008531 -0.0003968 -0.0001199 -0.0002684 -0.0000918 0.0001169 -0.0000769 -0.0001849 -0.0000996 0.0001834 -0.0002996 -0.0005744 -0.0003017 0.0026348 -0.0001500 -0.0002501 -0.0000718 0.0001773 -0.0000762 0.0000643 -0.0000821 0.0000346
-0.0000293 0.0002666 -0.0000430 -0.0006101 0.0000289 0.0001877 0.0000360 0.0001324 -0.0000141 0.0004096 -0.0000131 -0.0002090 0.0000557 0.0005994 0.0000457 0.0001951 -0.0000198 -0.0000770 0.0000755 -0.0000980 -0.0000972 0.0004082 -0.0000734 0.0003398 0.0000931 0.0003979 -0.0000668 0.0002789 0.0000087 0.0003961 -0.0001056 0.0000962 0.0000117 0.0000339 -0.0000618 -0.0000704 0.0000280 0.0000182 -0.0000497 0.0000772 0.0000051 0.0002178 0.0000332 0.0002994 -0.0000541 0.0003392 0.0001710 0.0012803 -0.0008780 -0.0014459 0.0000582 0.0004331 0.0000218 0.0002862 -0.0003600 0.0007303 0.0000451 0.0004190 0.0005821 0.0001215 -0.0229689 0.0297755 0.0000811 -0.0000102 0.0000618 -0.0001327 -0.0075228 0.0059461 0.0000875 0.0001873 -0.0000113 0.0000961 -0.0000210 0.0001099 -0.0000378 -0.0000393 -0.0000196 -0.0005529 0.0000287 0.0000507 -0.0000502 0.0001387 0.0000074 -0.0008454 -0.0000093 0.0002265 0.0000074 0.0002695 -0.0000187 0.0002178 -0.0000020 0.0002515 -0.0000818 0.0001767 -0.0001224 -0.0014317 -0.0001610 -0.0009751 -0.0000050 -0.0001190 -0.0000599 0.0001018 -0.0000041 0.0002427 0.0000052 -0.0003155 -0.0000375 -0.0000002 -0.0000110 0.0001760 0.0000006 0.0000470 0.0001507 -0.0002826 -0.0000473 -0.0001809 -0.0000554 0.0004934 0.0000532 -0.0008606 -0.0001679 0.0001065 -0.0000722 0.0003260 -0.0000532 0.0000066 -0.0000814 0.0002728 -0.0002671 -0.0003956 -0.0011820 0.0013444 -0.0001672 -0.0002063 -0.0000499 0.0002189 -0.0001351 0.0001686 -0.0000929 0.0000512
-0.0000252 0.0001967 -0.0000580 -0.0006680 0.0000365 0.0001208 0.0000498 0.0001375 0.0000132 0.0002503 -0.0000518 -0.0002462 0.0000743 0.0005387 0.0001041 0.0000419 0.0000036 -0.0002805 0.0000741 -0.0002709 -0.0000474 0.0001965 -0.0000436 0.0000792 0.0001182 0.0002864 -0.0000768 0.0001652 0.0000047 0.0002736 -0.0000954 -0.0000175 0.0000449 -0.0001922 -0.0000550 -0.0002318 0.0000461 -0.0001135 -0.0000260 -0.0000698 0.0000327 0.0000180 0.0000503 0.0001508 -0.0000528 0.0001898 0.0002396 0.0009986 -0.0007150 -0.0013191 -0.0000267 0.0003640 0.0000546 0.0001243 0.0000137 0.0003143 0.0000234 0.0004038 0.0000867 0.0007584 -0.0225278 0.0140488 -0.0002094 0.0004293 0.0000757 0.0000517 -0.0046810 0.0053339 0.0000598 0.0003772 -0.0000195 0.0001133 -0.0000006 0.0001312 -0.0000312 -0.0000260 -0.0000140 -0.0005099 0.0000216 0.0000212 -0.0000273 0.0001255 0.0000024 -0.0007768 -0.0000089 0.0001793 0.0000123 0.0001927 -0.0000019 0.0001356 -0.0000049 0.0001955 -0.0000664 0.0000979 -0.0001063 -0.0011812 -0.0001009 -0.0005298 0.0000106 -0.0002542 -0.0000595 0.0000697 -0.0000080 0.0001773 -0.0000122 -0.0003485 -0.0000440 -0.0000250 -0.0000044 0.0001387 -0.0000134 0.0000258 0.0000271 -0.0003704 -0.0000395 -0.0001821 -0.0001252 0.0006498 -0.0029042 0.0013804 -0.0001365 0.0001690 -0.0000693 0.0002384 -0.0000548 -0.0000335 -0.0000707 0.0001807 -0.0002278 -0.0005978 0.0011904 -0.0013034 -0.0001240 -0.0002500 -0.0000324 0.0001135 -0.0001221 0.0001357 -0.0000834 0.0000043
-0.0000177 0.0003051 -0.0000595 -0.0006067 0.0000456 0.0002866 0.0000402 0.0003508 -0.0000006 0.0004716 -0.0000318 -0.0001924 0.0000515 0.0006185 0.0000985 0.0001243 0.0000104 -0.0000253 0.0000551 -0.0000139 -0.0001001 0.0004686 -0.0000848 0.0002972 0.0001142 0.0005106 -0.0001067 0.0003304 -0.0000080 0.0004631 -0.0000849 0.0000755 0.0000107 0.0000610 -0.0000814 -0.0000027 0.0000500 0.0001128 -0.0000372 0.0001460 0.0000088 0.0003363 0.0000314 0.0003312 -0.0000548 0.0003747 0.0002850 0.0009212 -0.0006614 -0.0012277 0.0000386 0.0005379 0.0000275 0.0002022 0.0002266 0.0002529 0.0000278 0.0004246 0.0003056 0.0004359 0.0006758 -0.0221897 0.0002052 0.0005302 0.0000764 -0.0000244 -0.0005796 0.0024644 0.0000776 0.0003496 -0.0000395 -0.0000033 -0.0000546 0.0001163 -0.0000166 -0.0000710 -0.0000576 -0.0005469 0.0000110 -0.0001462 -0.0000352 0.0000259 0.0000269 -0.0007525 -0.0000092 -0.0000210 -0.0000118 -0.0000103 -0.0000122 -0.0000754 -0.0000336 0.0000095 -0.0000237 -0.0000512 -0.0001037 -0.0009113 -0.0000446 -0.0001942 -0.0000118 -0.0006556 -0.0000321 -0.0001371 -0.0000330 0.0000102 -0.0000506 -0.0004879 -0.0000763 -0.0001158 0.0000043 -0.0000515 -0.0000308 -0.0000795 -0.0001166 -0.0005533 -0.0000401 -0.0002314 -0.0000607 0.0007195 0.0014874 -0.0016592 -0.0000740 0.0001547 -0.0000701 0.0001087 -0.0000393 -0.0001034 -0.0000960 0.0001357 -0.0002046 -0.0007076 -0.0000968 -0.0005036 -0.0000518 -0.0002082 -0.0000433 0.0000800 -0.0000897 0.0003002 -0.0000682 0.0000991
-0.0000124 0.0002770 -0.0000626 -0.0005821 0.0000387 0.0002670 0.0000415 0.0003571 0.0000436 0.0003305 0.0000019 -0.0002301 0.0000549 0.0006671 0.0000665 0.0001336 0.0000212 -0.0001016 0.0000431 -0.0000562 -0.0001179 0.0004074 -0.0000789 0.0002047 0.0001220 0.0005539 -0.0000864 0.0003149 -0.0000160 0.0004781 -0.0000573 0.0000154 0.0000241 -0.0000025 -0.0000483 -0.0000563 0.0000339 0.0000974 -0.0000176 0.0000682 -0.0000085 0.0002733 0.0000329 0.0002818 -0.0000414 0.0003137 0.0002731 0.0008860 -0.0003701 -0.0011654 0.0002695 0.0003491 0.0000067 0.0001163 -0.0001026 0.0004436 0.0000303 0.0002224 -0.0000838 0.0009109 0.0055517 -0.0140762 0.0000989 0.0005155 0.0000684 -0.0001739 0.0009957 -0.0036355 -0.0000029 0.0002067 -0.0000755 0.0000147 -0.0000377 0.0001643 -0.0000096 0.0000893 -0.0000455 -0.0003972 0.0000173 -0.0000014 -0.0000760 0.0001108 0.0000288 -0.0005917 -0.0000169 0.0001561 -0.0000496 0.0000320 -0.0000033 0.0000620 -0.0000543 0.0000624 0.0000179 0.0000202 -0.0001335 -0.0008623 -0.0000274 0.0001283 0.0000055 -0.0006886 -0.0000474 0.0000460 -0.0000515 0.0000646 -0.0000678 -0.0004342 -0.0000788 0.0000114 0.0000011 0.0000088 -0.0000589 0.0000065 -0.0001559 -0.0005447 -0.0000475 -0.0000860 0.0000618 0.0008068 0.0005365 -0.0000464 -0.0000218 0.0003253 -0.0000717 0.0001299 -0.0000591 0.0000052 -0.0001050 0.0001116 -0.0001945 -0.0005671 -0.0047163 0.0021228 0.0000434 -0.0002170 -0.0001023 0.0000431 -0.0001312 0.0005022 -0.0000682 0.0001344
-0.0000043 0.0001887 -0.0000612 -0.0005565 0.0000400 0.0001729 0.0000622 0.0003123 0.0000596 0.0001553 -0.0000274 -0.0002761 0.0000787 0.0006627 0.0000556 0.0000560 0.0000399 -0.0003039 0.0000768 -0.0002705 -0.0001001 0.0002069 -0.0000337 -0.0000381 0.0001459 0.0005221 -0.0000667 0.0002028 0.0000009 0.0004634 -0.0000374 -0.0000647 0.0000473 -0.0001563 -0.0000178 -0.0001423 0.0000380 -0.0000042 0.0000055 -0.0000613 0.0000060 0.0001043 0.0000430 0.0003080 -0.0000526 0.0002831 0.0000710 0.0009073 -0.0001351 -0.0004504 0.0002613 0.0002191 0.0000249 0.0001455 -0.0002206 0.0004924 -0.0000185 0.0003954 -0.0003391 0.0011804 -0.0086811 0.0116839 0.0000423 0.0004560 0.0000981 0.0000681 0.0005843 -0.0020674 0.0000576 0.0002713 -0.0000825 -0.0000317 -0.0000092 0.0001746 -0.0000005 0.0001316 -0.0000290 -0.0003299 0.0000186 0.0000077 -0.0000895 0.0000899 0.0000354 -0.0005368 -0.0000079 0.0001261 -0.0000881 0.0000246 -0.0000088 0.0000267 -0.0000718 0.0000280 0.0000385 -0.0000016 -0.0000891 -0.0007096 0.0000134 0.0002460 0.0000270 -0.0005757 -0.0000579 -0.0000200 -0.0000569 0.0000045 -0.0000725 -0.0004060 -0.0001262 0.0000174 0.0000067 -0.0000176 -0.0000656 -0.0000139 -0.0001310 -0.0005519 -0.0000447 -0.0000901 0.0000506 0.0007650 -0.0021263 0.0019555 0.0000301 0.0002601 -0.0000603 0.0000012 -0.0000523 0.0000389 -0.0001740 0.0001098 -0.0001869 -0.0004527 -0.0045559 0.0030876 0.0000895 -0.0002323 -0.0001063 -0.0000788 -0.0001052 0.0004847 -0.0000622 0.0000617
-0.0000107 0.0003547 -0.0000680 -0.0003469 0.0000301 0.0003672 0.0000195 0.0006208 0.0000002 0.0004809 -0.0000949 -0.0001147 0.0000519 0.0008160 0.0000832 0.0001545 0.0000104 0.0000212 0.0000964 -0.0000088 -0.0000997 0.0004421 -0.0000488 0.0001883 0.0001276 0.0007614 -0.0000404 0.0003873 0.0000155 0.0007736 -0.0000347 0.0000612 -0.0000239 0.0000814 -0.0000019 0.0000676 0.0000119 0.0002062 -0.0000181 0.0001356 -0.0000164 0.0003715 0.0000263 0.0004147 -0.0000541 0.0004007 -0.0001039 0.0008005 -0.0001590 0.0003436 0.0002018 0.0000721 -0.0000173 0.0000978 0.0000072 0.0005135 -0.0000256 0.0003019 0.0002147 0.0002369 -0.0130764 0.0125578 0.0005383 -0.0002019 0.0000862 -0.0000721 0.0008069 0.0027747 0.0000568 0.0001370 -0.0000653 -0.0000982 0.0000217 0.0001109 0.0000325 0.0000461 -0.0000236 -0.0002765 0.0000474 -0.0001055 -0.0000858 -0.0000062 0.0000747 -0.0004624 0.0000043 -0.0000465 -0.0000955 -0.0000417 -0.0000255 -0.0000954 -0.0000896 -0.0000737 0.0000059 -0.0000643 0.0000054 -0.0004238 0.0000595 0.0002102 0.0000344 -0.0004586 -0.0000472 -0.0001922 -0.0000952 -0.0000651 -0.0000440 -0.0004369 -0.0001627 -0.0000514 0.0000066 -0.0001107 -0.0000544 -0.0000966 -0.0001046 -0.0005500 -0.0000500 -0.0001280 -0.0000572 0.0006980 -0.0014266 0.0012846 0.0000684 0.0002981 -0.0000208 0.0000642 -0.0000412 0.0001487 -0.0001498 0.0001634 -0.0001349 -0.0002815 -0.0006540 0.0002269 0.0000467 0.0000051 -0.0000844 -0.0000053 -0.0000508 0.0006155 -0.0000763 0.0001887
-0.0000134 0.0002938 -0.0000740 -0.0002548 0.0000166 0.0002854 -0.0000253 0.0005975 0.0000198 0.0003075 -0.0000864 -0.0001621 0.0000358 0.0008172 0.0000774 0.0000894 0.0000045 -0.0000969 0.0000492 -0.0000612 -0.0000854 0.0002890 -0.0000531 0.0000333 0.0001238 0.0006974 -0.0000313 0.0003873 0.0000287 0.0008543 -0.0000233 0.0000209 -0.0000217 -0.0000294 0.0000262 0.0000041 0.0000060 0.0001428 -0.0000106 0.0000267 -0.0000306 0.0002300 0.0000357 0.0003089 -0.0000547 0.0003077 -0.0001403 0.0005481 0.0000102 0.0005644 0.0001427 0.0000373 -0.0000032 -0.0000799 0.0001611 0.0002789 -0.0000303 0.0000447 0.0000215 0.0000745 -0.0185643 0.0125524 -0.0000494 0.0002642 0.0000947 -0.0003190 0.0054303 -0.0015966 -0.0000688 0.0000174 -0.0000522 0.0000297 0.0000659 0.0001387 0.0000527 0.0002431 -0.0000399 -0.0000886 0.0000460 0.0000981 -0.0000911 0.0001312 0.0000962 -0.0001534 -0.0000030 0.0001515 -0.0000821 0.0000671 -0.0000422 0.0001187 -0.0000735 0.0000297 -0.0000335 0.0001043 0.0000758 -0.0001431 0.0000714 0.0004282 0.0000485 -0.0002939 -0.0000728 0.0000612 -0.0000918 0.0000419 -0.0000272 -0.0002723 -0.0001014 0.0000568 0.0000020 0.0000080 -0.0000524 0.0000053 -0.0000738 -0.0004259 -0.0000636 0.0000187 -0.0000479 0.0007471 0.0012932 -0.0005388 0.0000387 0.0004214 0.0000016 0.0001228 -0.0001049 0.0002951 -0.0001838 0.0002078 -0.0001127 -0.0000771 -0.0000658 -0.0007560 0.0000135 0.0001097 -0.0000966 -0.0000052 -0.0000086 0.0006018 -0.0000731 0.0001941
0.0000028 0.0001406 -0.0000613 -0.0002086 0.0000097 0.0001052 -0.0000164 0.0004623 0.0000695 0.0000073 -0.0000551 -0.0002683 0.0000675 0.0006960 0.0000556 -0.0000118 0.0000361 -0.0003311 -0.0000095 -0.0002104 -0.0000697 0.0000370 -0.0000386 -0.0001971 0.0001397 0.0006250 -0.0000338 0.0002882 0.0000418 0.0008661 0.0000053 -0.0000566 0.0000210 -0.0001611 0.0000357 -0.0000055 0.0000177 0.0000668 0.0000153 -0.0000888 -0.0000246 0.0000735 0.0000527 0.0003971 -0.0000720 0.0003429 -0.0002635 0.0000644 0.0002258 0.0018476 -0.0001754 0.0003054 -0.0000184 0.0000157 -0.0002655 0.0003383 -0.0000928 0.0002620 -0.0004552 0.0005906 -0.0124647 0.0111893 -0.0003080 0.0005861 0.0001052 -0.0000199 0.0059124 -0.0024878 0.0000577 0.0000932 -0.0000444 0.0000222 0.0000371 0.0001826 0.0000501 0.0003407 -0.0000551 -0.0001103 0.0000384 0.0000719 -0.0001072 0.0001375 0.0000976 -0.0001514 0.0000010 0.0001074 -0.0000799 0.0000194 -0.0000509 0.0000562 -0.0000749 0.0000002 -0.0000621 0.0001510 0.0000652 -0.0001133 0.0000739 0.0004405 0.0000576 -0.0002508 -0.0000648 -0.0000085 -0.0000640 -0.0000401 -0.0000495 -0.0002220 -0.0000907 0.0000343 0.0000070 -0.0000305 -0.0000571 -0.0000129 -0.0000588 -0.0004114 -0.0000664 0.0000061 0.0000390 0.0006619 0.0026987 -0.0018191 0.0000658 0.0004222 -0.0000171 0.0000671 -0.0000655 0.0002673 -0.0003143 0.0002564 -0.0000715 -0.0000429 -0.0012981 -0.0005542 0.0000214 0.0000626 -0.0000707 -0.0001094 0.0000250 0.0004355 -0.0000575 0.0000697
0.0000031 0.0002454 -0.0000528 0.0000849 -0.0000082 0.0002296 -0.0000596 0.0006223 0.0000068 0.0002229 -0.0000824 -0.0001085 0.0000559 0.0007986 0.0000248 0.0001328 0.0000448 -0.0000440 -0.0000709 0.0001281 -0.0000965 0.0003095 -0.0000086 0.0000562 0.0001289 0.0008082 -0.0000011 0.0004661 0.0000561 0.0010995 -0.0000030 0.0000244 -0.0000021 -0.0000087 0.0000871 0.0001197 -0.0000102 0.0002304 0.0000170 0.0000308 -0.0000342 0.0002247 0.0000457 0.0004168 -0.0000612 0.0004076 -0.0006310 -0.0002115 0.0002315 0.0026545 -0.0002576 0.0000368 -0.0000881 -0.0000321 -0.0004367 0.0000997 -0.0001035 0.0001596 -0.0001992 0.0001572 -0.0022494 0.0036746 0.0006225 -0.0005475 0.0000939 -0.0001523 0.0050249 -0.0026582 0.0000912 -0.0000384 -0.0000689 -0.0000346 0.0000073 0.0001591 0.0000555 0.0002524 -0.0000521 -0.0001606 0.0000506 -0.0000837 -0.0001085 0.0000369 0.0001092 -0.0002168 0.0000018 -0.0000759 -0.0000889 -0.0000582 -0.0000341 -0.0001371 -0.0000724 -0.0001178 -0.0000526 0.0000486 0.0000884 0.0000020 0.0000955 0.0003164 0.0000578 -0.0001964 -0.0000366 -0.0002118 -0.0000531 -0.0001704 -0.0000640 -0.0002365 -0.0000783 -0.0000673 0.0000117 -0.0001408 -0.0000587 -0.0000916 -0.0000416 -0.0004163 -0.0000663 -0.0000415 0.0000453 0.0006575 0.0018807 -0.0006804 0.0001175 0.0005798 -0.0000358 0.0001947 -0.0000055 0.0003372 -0.0002435 0.0002472 -0.0000488 0.0000648 0.0021876 -0.0030425 0.0000709 0.0001668 -0.0000592 -0.0000087 0.0000323 0.0005586 -0.0000567 0.0001782
-0.0000033 0.0001290 -0.0000530 0.0002413 -0.0000255 0.0001256 -0.0000871 0.0005353 -0.0000040 0.0000176 -0.0001150 -0.0001158 0.0000459 0.0007527 0.0000147 0.0000329 0.0000733 -0.0001760 -0.0000874 0.0000820 -0.0000911 0.0001613 0.0000072 -0.0000829 0.0001345 0.0007088 0.0000175 0.0004307 0.0000819 0.0011487 0.0000066 -0.0000465 0.0000086 -0.0001283 0.0001108 0.0000235 -0.0000048 0.0001353 0.0000237 -0.0000902 -0.0000342 0.0000458 0.0000533 0.0002632 -0.0000512 0.0002865 -0.0004999 -0.0004518 0.0000636 0.0020340 -0.0002426 -0.0000978 -0.0000569 -0.0002372 -0.0000372 -0.0004543 -0.0000689 -0.0000610 0.0000051 0.0000558 -0.0048651 -0.0067141 0.0000629 -0.0000874 0.0001392 -0.0004353 0.0020284 -0.0019606 -0.0000190 -0.0000578 -0.0000779 0.0000889 0.0000043 0.0002267 0.0000539 0.0003816 -0.0000435 0.0000309 0.0000486 0.0001256 -0.0001163 0.0001893 0.0000851 0.0000117 -0.0000186 0.0001465 -0.0000916 0.0000987 -0.0000720 0.0000955 -0.0000579 0.0000057 -0.0000467 0.0001668 0.0001056 0.0001603 0.0000955 0.0004649 0.0000683 -0.0000910 -0.0000539 0.0000419 -0.0000641 -0.0000203 -0.0000268 -0.0001280 -0.0000817 0.0000657 -0.0000017 -0.0000006 -0.0000606 0.0000030 -0.0000377 -0.0002927 -0.0000791 0.0001078 0.0000452 0.0008585 0.0030047 -0.0009282 0.0000750 0.0010237 -0.0000136 0.0004671 -0.0000424 0.0006597 -0.0001220 0.0003062 -0.0001387 0.0003734 0.0035064 -0.0019467 0.0001045 0.0003616 -0.0000575 0.0001545 -0.0000278 0.0007901 -0.0000786 0.0003198
-0.0000051 0.0000071 -0.0000553 0.0001190 -0.0000355 0.0000466 -0.0000414 0.0004581 0.0000541 -0.0001862 -0.0001247 -0.0002031 0.0000556 0.0006252 0.0000390 -0.0000637 0.0000858 -0.0003242 -0.0000495 -0.0001258 -0.0000602 -0.0000606 -0.0000121 -0.0002666 0.0001413 0.0006239 0.0000063 0.0003110 0.0000915 0.0011694 0.0000385 -0.0000852 0.0000394 -0.0001902 0.0000797 0.0000268 0.0000142 0.0000848 0.0000270 -0.0001292 -0.0000278 -0.0000087 0.0000594 0.0003777 -0.0000655 0.0003340 -0.0003077 -0.0003751 -0.0000516 0.0017536 -0.0000157 -0.0001353 -0.0000488 0.0000085 0.0001146 -0.0001334 -0.0000941 0.0003311 0.0001760 0.0004884 0.0129730 -0.0459717 -0.0008103 0.0010698 0.0001391 -0.0000839 -0.0064523 0.0091979 0.0000686 0.0001682 -0.0000676 0.0001610 -0.0000142 0.0003315 0.0000463 0.0004479 -0.0000463 0.0001544 0.0000375 0.0002071 -0.0001218 0.0002576 0.0000709 0.0001626 -0.0000397 0.0002275 -0.0000850 0.0001191 -0.0000919 0.0001297 -0.0000670 0.0000484 -0.0000853 0.0002422 0.0001157 0.0002678 0.0001020 0.0005088 0.0000736 0.0000201 -0.0000538 0.0000526 -0.0000701 0.0000082 0.0000107 -0.0000529 -0.0001407 0.0001265 -0.0000066 0.0000456 -0.0000671 0.0000298 -0.0000274 -0.0002371 -0.0000813 0.0001198 0.0000450 0.0008445 0.0023780 -0.0008040 0.0000368 0.0010098 -0.0000901 0.0004222 -0.0000403 0.0006907 -0.0000960 0.0003304 -0.0000842 0.0003381 0.0030210 -0.0013590 0.0000635 0.0003296 -0.0000644 0.0001303 -0.0000322 0.0007184 -0.0000879 0.0002603
-0.0000162 0.0001826 -0.0000589 0.0000507 -0.0000242 0.0001886 -0.0000346 0.0005850 0.0000093 0.0000066 -0.0000977 -0.0001644 0.0000226 0.0006875 0.0000098 0.0000438 0.0000753 -0.0001909 -0.0000328 -0.0000418 -0.0000738 0.0000923 -0.0000088 -0.0002196 0.0001357 0.0005898 0.0000205 0.0003649 0.0000778 0.0011654 0.0000317 -0.0000364 0.0000410 -0.0001942 0.0000891 -0.0000042 0.0000043 0.0000967 0.0000171 -0.0001098 -0.0000233 0.0000362 0.0000454 0.0003196 -0.0000705 0.0003072 -0.0003962 -0.0001789 0.0000031 0.0012184 0.0000365 -0.0000108 -0.0000226 -0.0000061 0.0000727 -0.0000699 -0.0000920 0.0003447 0.0002186 0.0003279 -0.0042842 -0.0054373 0.0000190 0.0002171 0.0001002 -0.0001596 -0.0089956 0.0116123 0.0001713 0.0000378 -0.0000719 0.0001185 -0.0000166 0.0002938 0.0000486 0.0003791 -0.0000515 0.0001162 0.0000294 0.0000870 -0.0001263 0.0001754 0.0000743 0.0001122 -0.0000225 0.0000416 -0.0000897 0.0000475 -0.0000599 -0.0000550 -0.0000921 -0.0000414 -0.0000458 0.0001263 0.0001208 0.0003068 0.0001126 0.0004102 0.0000738 0.0000706 -0.0000559 -0.0001179 -0.0000961 -0.0000628 -0.0000264 -0.0000300 -0.0001414 0.0000266 0.0000165 -0.0000498 -0.0000643 -0.0000282 -0.0000167 -0.0002444 -0.0000734 0.0000451 -0.0000035 0.0007069 -0.0010979 0.0014560 0.0000495 0.0008042 -0.0000989 0.0002541 -0.0000100 0.0005672 -0.0001727 0.0003466 -0.0000034 0.0001963 0.0025947 -0.0024177 0.0000336 0.0002553 -0.0000799 0.0000632 -0.0000000 0.0006311 -0.0000796 0.0002209
-0.0000168 0.0001184 -0.0000619 -0.0000116 -0.0000068 0.0001261 -0.0000238 0.0005406 -0.0000188 -0.0000733 -0.0000691 -0.0002372 0.0000107 0.0006367 0.0000305 -0.0000174 0.0000782 -0.0002902 -0.0000318 -0.0001292 -0.0000887 0.0000162 0.0000632 -0.0004123 0.0001421 0.0004464 0.0000297 0.0002848 0.0000827 0.0010194 0.0000178 -0.0000830 0.0000568 -0.0003297 0.0001113 -0.0001472 0.0000208 -0.0000304 0.0000363 -0.0002291 -0.0000160 -0.0000875 0.0000506 0.0001603 -0.0000622 0.0001711 -0.0003716 -0.0003017 -0.0000769 0.0007542 -0.0000664 -0.0000066 -0.0000158 -0.0001041 -0.0000289 -0.0000945 -0.0000755 0.0001651 -0.0001737 0.0005205 -0.0085786 0.0032250 0.0005649 -0.0004757 0.0000813 -0.0003071 -0.0006917 0.0024403 0.0001627 -0.0000939 -0.0000379 0.0001171 0.0000222 0.0002465 0.0000403 0.0004479 -0.0000543 0.0001971 0.0000129 0.0001967 -0.0001434 0.0002426 0.0000620 0.0002012 -0.0000199 0.0001196 -0.0000744 0.0001073 -0.0000758 0.0000751 -0.0001091 0.0000415 0.0000254 0.0001388 0.0001227 0.0003732 0.0001124 0.0004863 0.0000773 0.0001352 -0.0000656 0.0000489 -0.0001408 0.0000584 -0.0000419 0.0000585 -0.0001554 0.0000879 0.0000173 0.0000261 -0.0000652 0.0000319 -0.0000180 -0.0001509 -0.0000832 0.0001493 0.0000107 0.0007871 -0.0010658 0.0017996 0.0000447 0.0011637 -0.0000185 0.0004325 -0.0000401 0.0007850 -0.0002021 0.0004928 -0.0000473 0.0003844 0.0008711 -0.0012246 0.0000292 0.0004431 -0.0001252 0.0002452 -0.0000461 0.0008762 -0.0001001 0.0004015
-0.0000185 0.0000259 -0.0000611 -0.0000931 -0.0000021 0.0001277 -0.0000260 0.0005224 -0.0000265 -0.0000410 -0.0000636 -0.0002642 0.0000107 0.0006029 0.0000379 0.0000099 0.0000599 -0.0001813 -0.0000458 -0.0000612 -0.0000915 0.0000771 0.0000541 -0.0003071 0.0001355 0.0004938 0.0000156 0.0002741 0.0000719 0.0010147 0.0000170 -0.0000303 0.0000510 -0.0001683 0.0001007 -0.0000186 0.0000327 0.0000698 0.0000467 -0.0001129 -0.0000153 0.0000805 0.0000533 0.0003547 -0.0000642 0.0003230 -0.0003907 -0.0000229 -0.0000330 0.0006408 -0.0002529 0.0000148 -0.0000357 0.0002598 0.0000769 0.0000937 -0.0000873 0.0005236 -0.0002301 0.0008869 -0.0040946 0.0046189 0.0005137 -0.0001998 0.0000766 -0.0001894 -0.0022216 0.0009427 0.0001884 -0.0001130 -0.0000261 0.0002637 0.0000573 0.0003260 0.0000156 0.0006549 -0.0000536 0.0004134 -0.0000215 0.0004859 -0.0001688 0.0004462 0.0000335 0.0004702 -0.0000645 0.0004512 -0.0000740 0.0002802 -0.0000791 0.0003439 -0.0001040 0.0002360 -0.0000063 0.0003696 0.0001171 0.0004693 0.0000965 0.0007235 0.0000769 0.0002290 -0.0000858 0.0003734 -0.0001355 0.0002444 -0.0000275 0.0002208 -0.0001499 0.0002648 -0.0000131 0.0002485 -0.0000801 0.0001839 -0.0000267 -0.0000351 -0.0000963 0.0002902 -0.0000108 0.0009119 0.0009075 0.0004561 -0.0000000 0.0013408 -0.0000622 0.0004848 -0.0000303 0.0008701 -0.0000975 0.0004241 -0.0000958 0.0004887 0.0020378 -0.0008334 0.0000084 0.0004532 -0.0000980 0.0002496 -0.0000877 0.0008950 -0.0000986 0.0003748
-0.0000316 0.0000633 -0.0000651 -0.0001261 -0.0000069 0.0001392 -0.0000418 0.0005023 -0.0000296 -0.0000931 -0.0000459 -0.0002745 0.0000180 0.0005626 0.0000238 -0.0000030 0.0000534 -0.0001835 -0.0000678 -0.0000151 -0.0000542 0.0000386 0.0000167 -0.0002411 0.0001145 0.0004299 0.0000110 0.0002467 0.0000476 0.0008743 0.0000203 -0.0000532 0.0000575 -0.0001994 0.0001029 -0.0000669 0.0000203 0.0000438 0.0000434 -0.0001355 -0.0000276 0.0000536 0.0000536 0.0002625 -0.0000661 0.0002766 -0.0003581 -0.0000519 0.0000822 0.0003536 -0.0005055 0.0002640 -0.0000350 0.0002340 -0.0000682 0.0000280 -0.0000632 0.0004494 -0.0000167 0.0008781 0.0002747 0.0005196 0.0000633 0.0000471 0.0001220 -0.0003119 0.0008746 -0.0038421 0.0001044 -0.0001250 -0.0000553 0.0002560 0.0000026 0.0003721 0.0000007 0.0006248 -0.0000610 0.0004191 -0.0000398 0.0004119 -0.0001658 0.0004046 0.0000145 0.0004745 -0.0000643 0.0003626 -0.0001059 0.0002750 -0.0000675 0.0002611 -0.0001091 0.0001964 -0.0000160 0.0003300 0.0001256 0.0005377 0.0001006 0.0007172 0.0000770 0.0002776 -0.0000734 0.0002541 -0.0001316 0.0002134 -0.0000491 0.0002549 -0.0001151 0.0002105 -0.0000292 0.0002333 -0.0000901 0.0001745 -0.0000197 -0.0000261 -0.0000943 0.0002426 0.0000294 0.0007824 -0.0002135 0.0017615 0.0000226 0.0011382 -0.0000587 0.0003351 -0.0000409 0.0007998 -0.0000385 0.0003025 -0.0001110 0.0004124 0.0026857 -0.0012223 -0.0000034 0.0003160 -0.0000900 0.0001325 -0.0001025 0.0007128 -0.0000897 0.0002338
-0.0000388 0.0000049 -0.0000749 -0.0001703 -0.0000144 0.0000736 -0.0000312 0.0003925 0.0000149 -0.0002840 -0.0000573 -0.0003407 0.0000147 0.0004934 0.0000571 -0.0001021 0.0000892 -0.0003388 -0.0000592 -0.0001260 -0.0000463 -0.0000997 -0.0000038 -0.0003245 0.0001072 0.0002889 -0.0000086 0.0001517 0.0000391 0.0006901 0.0000204 -0.0001209 0.0000765 -0.0003618 0.0001271 -0.0002496 0.0000201 -0.0000640 0.0000465 -0.0002370 -0.0000271 -0.0000813 0.0000586 0.0001050 -0.0000686 0.0001524 -0.0003698 -0.0002082 -0.0002121 0.0004624 -0.0000891 0.0000705 -0.0000495 0.0001488 -0.0001358 0.0000239 -0.0000562 0.0003393 -0.0000975 0.0008572 0.0114984 -0.0157644 -0.0002407 0.0005064 0.0000904 -0.0001015 0.0054907 -0.0054176 0.0000134 0.0001422 -0.0000595 0.0001214 -0.0000245 0.0003185 -0.0000036 0.0004906 -0.0000747 0.0003142 -0.0000441 0.0002074 -0.0001377 0.0002416 0.0000159 0.0003304 -0.0000558 0.0001328 -0.0000980 0.0001537 -0.0000900 0.0000985 -0.0001195 0.0000768 -0.0000109 0.0001540 0.0001295 0.0005231 0.0001137 0.0005885 0.0000759 0.0002724 -0.0000798 0.0000563 -0.0001447 0.0001130 -0.0000733 0.0002069 -0.0001370 0.0001380 -0.0000196 0.0001145 -0.0000796 0.0000963 -0.0000141 -0.0000356 -0.0000910 0.0001700 0.0000414 0.0007414 -0.0023652 0.0033883 0.0000678 0.0011991 -0.0000913 0.0004338 -0.0000327 0.0008637 -0.0000970 0.0004305 -0.0000563 0.0003550 0.0005896 -0.0002052 -0.0000022 0.0003828 -0.0001618 0.0002655 -0.0000765 0.0007970 -0.0000987 0.0003611
-0.0000441 0.0000887 -0.0000768 -0.0001336 -0.0000178 0.0002005 -0.0000572 0.0004784 -0.0000172 -0.0000363 -0.0000861 -0.0002467 0.0000000 0.0005345 0.0000321 0.0000124 0.0000941 -0.0000928 -0.0000429 0.0000860 -0.0001005 0.0001770 -0.0000357 -0.0000863 0.0000858 0.0004050 -0.0000154 0.0002206 0.0000362 0.0007919 0.0000352 -0.0000508 0.0000420 -0.0001717 0.0001064 -0.0001049 0.0000115 0.0000994 0.0000228 -0.0000399 -0.0000257 0.0001591 0.0000399 0.0001869 -0.0000696 0.0002481 -0.0004345 -0.0001108 -0.0002478 0.0006118 0.0001324 -0.0001234 -0.0000406 0.0001328 0.0001931 -0.0002479 -0.0000327 0.0003255 0.0003405 -0.0000541 0.0028228 -0.0084669 0.0004636 0.0000654 0.0000760 -0.0001589 0.0063680 -0.0080317 -0.0000258 0.0001382 -0.0000669 0.0002347 -0.0000205 0.0003585 -0.0000171 0.0006161 -0.0000737 0.0004482 -0.0000584 0.0003986 -0.0001402 0.0003722 -0.0000001 0.0004949 -0.0000953 0.0003972 -0.0000971 0.0002919 -0.0000883 0.0003026 -0.0001230 0.0002187 -0.0000499 0.0003117 0.0001182 0.0005369 0.0000994 0.0007507 0.0000757 0.0003069 -0.0001201 0.0003416 -0.0001281 0.0002233 -0.0000435 0.0002745 -0.0001371 0.0002475 -0.0000212 0.0002468 -0.0000657 0.0001742 -0.0000293 0.0000560 -0.0001032 0.0002799 -0.0000831 0.0010200 -0.0031722 0.0039497 0.0000645 0.0016049 -0.0001140 0.0007034 0.0000020 0.0010528 -0.0002296 0.0006991 -0.0000612 0.0005643 -0.0012243 0.0016510 -0.0000159 0.0005861 -0.0001756 0.0004382 -0.0000848 0.0009855 -0.0001260 0.0005228
-0.0000434 0.0000458 -0.0000796 -0.0001520 -0.0000184 0.0001412 -0.0000779 0.0004082 -0.0000240 -0.0000889 -0.0000997 -0.0002605 0.0000137 0.0004436 -0.0000255 -0.0000267 0.0000707 -0.0001160 -0.0000463 0.0000002 -0.0000695 0.0000937 0.0000212 -0.0001794 0.0000730 0.0003267 0.0000003 0.0001521 0.0000375 0.0007127 0.0000570 -0.0001199 0.0000288 -0.0002403 0.0001095 -0.0001925 0.0000182 0.0000071 0.0000344 -0.0001021 -0.0000194 0.0000807 0.0000432 0.0000786 -0.0000616 0.0001668 -0.0003728 -0.0001714 -0.0000879 0.0002715 -0.0000411 0.0000293 -0.0000425 0.0000510 0.0001578 -0.0003311 -0.0000182 0.0002185 0.0004926 -0.0002872 0.0120114 -0.0243468 0.0005240 -0.0004005 0.0001012 -0.0003434 0.0001760 -0.0022139 -0.0000336 0.0000053 -0.0000710 0.0003036 -0.0000445 0.0004844 -0.0000264 0.0006670 -0.0000772 0.0005230 -0.0000724 0.0004510 -0.0001522 0.0004536 -0.0000138 0.0005969 -0.0000913 0.0004894 -0.0001196 0.0003467 -0.0000784 0.0003238 -0.0001185 0.0002561 -0.0000121 0.0003466 0.0001175 0.0005899 0.0000966 0.0008048 0.0000708 0.0003544 -0.0001035 0.0003244 -0.0001202 0.0002413 -0.0000411 0.0003185 -0.0001238 0.0002527 -0.0000250 0.0002801 -0.0000807 0.0001889 -0.0000289 0.0000810 -0.0000993 0.0002520 -0.0000005 0.0009128 -0.0006095 0.0018017 0.0000632 0.0014947 -0.0001057 0.0005963 0.0000023 0.0010102 -0.0002050 0.0006511 -0.0000828 0.0005700 0.0006644 -0.0004602 0.0000265 0.0005123 -0.0001828 0.0003825 -0.0001112 0.0009221 -0.0001388 0.0004411
-0.0000433 -0.0000297 -0.0000834 -0.0002161 -0.0000229 0.0000487 -0.0000741 0.0003069 -0.0000099 -0.0002056 -0.0000917 -0.0003525 0.0000119 0.0003602 0.0000166 -0.0001873 0.0000673 -0.0002273 -0.0000517 -0.0001652 -0.0000145 -0.0000835 0.0000331 -0.0002947 0.0000905 0.0001866 0.0000052 0.0000438 0.0000340 0.0005918 0.0000455 -0.0001752 0.0000587 -0.0003542 0.0001172 -0.0002843 0.0000358 -0.0001069 0.0000582 -0.0001818 -0.0000163 -0.0000137 0.0000492 0.0001177 -0.0000805 0.0001836 -0.0002367 -0.0002709 -0.0001289 0.0003467 -0.0003027 0.0003353 -0.0001343 0.0003808 -0.0001882 0.0001530 -0.0000445 0.0005652 -0.0001631 0.0007476 0.0085564 -0.0113830 -0.0002314 0.0003951 0.0000879 0.0000085 -0.0156076 0.0153457 -0.0000013 0.0002587 -0.0000725 0.0001900 -0.0000563 0.0004633 -0.0000258 0.0005559 -0.0000813 0.0004495 -0.0000782 0.0003027 -0.0001490 0.0003648 -0.0000149 0.0004834 -0.0000881 0.0003329 -0.0001258 0.0002758 -0.0000871 0.0001953 -0.0001253 0.0001834 0.0000476 0.0002131 0.0001158 0.0005506 0.0001068 0.0007214 0.0000693 0.0003359 -0.0000735 0.0001229 -0.0001405 0.0001832 -0.0000848 0.0003162 -0.0001096 0.0001643 -0.0000140 0.0001905 -0.0000831 0.0001160 -0.0000210 0.0000366 -0.0000898 0.0001318 0.0000818 0.0006670 -0.0006608 0.0018660 0.0000702 0.0011452 -0.0000523 0.0003306 0.0000492 0.0007913 -0.0000793 0.0004276 -0.0000302 0.0003524 0.0027683 -0.0028931 0.0000427 0.0003942 -0.0001684 0.0002629 -0.0001358 0.0008403 -0.0001347 0.0003613
-0.0000533 0.0001433 -0.0000830 -0.0001491 -0.0000340 0.0001689 -0.0000801 0.0003912 -0.0000781 0.0000051 -0.0000266 -0.0003614 -0.0000024 0.0004187 0.0000310 -0.0001466 0.0000620 -0.0000994 -0.0000699 0.0000085 -0.0000374 0.0000818 0.0000054 -0.0001736 0.0000616 0.0002086 0.0000137 0.0001036 0.0000280 0.0005941 0.0000383 -0.0001889 0.0000476 -0.0003345 0.0001306 -0.0002943 0.0000202 -0.0000910 0.0000417 -0.0001352 -0.0000313 0.0000449 0.0000347 0.0000591 -0.0000975 0.0001771 -0.0001124 -0.0003623 -0.0001785 0.0003740 -0.0002661 0.0002307 -0.0001320 0.0002747 -0.0003540 0.0002607 -0.0000308 0.0004930 -0.0001873 0.0004010 0.0035752 0.0009909 -0.0000987 0.0004387 0.0000775 -0.0001160 -0.0107761 0.0121278 0.0000360 0.0001484 -0.0000838 0.0001781 -0.0000224 0.0003804 -0.0000257 0.0005500 -0.0000742 0.0004611 -0.0000763 0.0003439 -0.0001633 0.0004000 -0.0000312 0.0004831 -0.0001007 0.0003979 -0.0000857 0.0003037 -0.0000799 0.0002896 -0.0001351 0.0002427 0.0000041 0.0002917 0.0001086 0.0005189 0.0001030 0.0008023 0.0000746 0.0003176 -0.0000790 0.0002829 -0.0001069 0.0002292 -0.0000849 0.0003425 -0.0001510 0.0002269 -0.0000196 0.0002483 -0.0000833 0.0001463 -0.0000325 0.0000717 -0.0000967 0.0001879 -0.0000151 0.0008590 -0.0008469 0.0023056 0.0000554 0.0014181 -0.0000400 0.0005310 0.0000642 0.0008864 -0.0000294 0.0004685 -0.0000363 0.0004496 -0.0027325 0.0028224 -0.0000625 0.0006127 -0.0001743 0.0003615 -0.0001466 0.0009872 -0.0001351 0.0005045
-0.0000585 0.0000784 -0.0000804 -0.0002046 -0.0000368 0.0000669 -0.0000871 0.0002732 -0.0000764 -0.0001506 -0.0000114 -0.0004638 -0.0000015 0.0003326 0.0000043 -0.0002257 0.0000708 -0.0002432 -0.0000686 -0.0001342 -0.0000465 -0.0000328 -0.0000101 -0.0002945 0.0000575 0.0000885 -0.0000000 0.0000421 0.0000362 0.0004672 0.0000490 -0.0003335 0.0000524 -0.0005124 0.0001677 -0.0005176 0.0000261 -0.0002543 0.0000497 -0.0002615 -0.0000411 -0.0000969 0.0000413 -0.0001244 -0.0000833 0.0000306 -0.0002301 -0.0003663 -0.0001432 0.0000909 -0.0002254 0.0001588 -0.0000243 -0.0000277 -0.0003071 -0.0000255 -0.0000192 0.0002450 0.0000217 -0.0002084 0.0045966 -0.0015832 0.0001958 0.0003006 0.0000786 -0.0003657 -0.0025095 0.0029021 0.0000989 -0.0001483 -0.0000812 0.0003368 -0.0000199 0.0004478 -0.0000373 0.0006922 -0.0000736 0.0005982 -0.0000851 0.0005474 -0.0001934 0.0005848 -0.0000537 0.0006593 -0.0001210 0.0006749 -0.0000937 0.0004287 -0.0001079 0.0005147 -0.0001266 0.0003581 -0.0000886 0.0004964 0.0001039 0.0005464 0.0000853 0.0009397 0.0000699 0.0003321 -0.0001069 0.0004178 -0.0001097 0.0002924 -0.0000628 0.0003557 -0.0001867 0.0003060 -0.0000211 0.0002893 -0.0000767 0.0001714 -0.0000381 0.0000764 -0.0000970 0.0001823 -0.0000414 0.0008593 0.0008811 0.0005768 0.0000982 0.0013944 -0.0000714 0.0005381 0.0000364 0.0009174 -0.0000498 0.0005059 -0.0000029 0.0004037 -0.0007955 0.0011424 -0.0000925 0.0006034 -0.0002027 0.0003428 -0.0001059 0.0008864 -0.0001223 0.0004422
-0.0000609 -0.0000327 -0.0000788 -0.0002903 -0.0000475 0.0000006 -0.0000934 0.0001770 -0.0000591 -0.0002212 -0.0000469 -0.0005101 -0.0000184 0.0002619 -0.0000007 -0.0003041 0.0000906 -0.0002601 -0.0000762 -0.0001895 -0.0000350 -0.0000621 -0.0000460 -0.0002496 0.0000778 0.0000505 -0.0000339 -0.0000224 0.0000371 0.0004782 0.0000423 -0.0003492 0.0000652 -0.0004683 0.0001450 -0.0004816 0.0000329 -0.0002366 0.0000623 -0.0001954 -0.0000540 0.0000181 0.0000381 0.0000452 -0.0000839 0.0001423 -0.0003563 -0.0001818 -0.0002880 0.0004720 -0.0003227 0.0004820 -0.0000505 0.0002679 -0.0003181 0.0001549 -0.0000340 0.0005797 0.0000880 0.0000271 -0.0002155 -0.0032033 -0.0001111 0.0006627 0.0000970 -0.0000658 -0.0006437 -0.0008676 0.0001471 -0.0000388 -0.0000879 0.0002868 -0.0000156 0.0004143 -0.0000423 0.0006263 -0.0000754 0.0005413 -0.0000891 0.0004675 -0.0001966 0.0005505 -0.0000372 0.0005642 -0.0001288 0.0006025 -0.0001224 0.0004065 -0.0001215 0.0004723 -0.0001295 0.0003167 -0.0001073 0.0004533 0.0001023 0.0005206 0.0000807 0.0008802 0.0000647 0.0003078 -0.0000993 0.0003007 -0.0001360 0.0002756 -0.0000584 0.0002998 -0.0001732 0.0002373 -0.0000062 0.0002192 -0.0000755 0.0001228 -0.0000266 0.0000187 -0.0000892 0.0000795 0.0000046 0.0006912 0.0016309 0.0001171 0.0001246 0.0011207 -0.0000443 0.0003432 0.0000121 0.0008027 -0.0002407 0.0005459 0.0000455 0.0002374 -0.0028819 0.0014080 0.0000061 0.0004012 -0.0001771 0.0002217 -0.0001032 0.0007254 -0.0001136 0.0003096
-0.0000663 0.0000471 -0.0000870 -0.0002281 -0.0000608 0.0000445 -0.0001000 0.0001954 -0.0001304 -0.0001669 -0.0000904 -0.0004798 -0.0000217 0.0002471 0.0000036 -0.0003570 0.0000916 -0.0002508 -0.0000890 -0.0001484 -0.0000376 -0.0000362 -0.0000301 -0.0002636 0.0000632 -0.0000042 -0.0000070 -0.0000548 0.0000265 0.0004415 0.0000501 -0.0003887 0.0000604 -0.0005281 0.0001472 -0.0005309 0.0000157 -0.0002987 0.0000669 -0.0002235 -0.0000284 -0.0000493 0.0000302 -0.0000324 -0.0000886 0.0001139 -0.0003009 -0.0002936 -0.0002648 0.0004960 -0.0000266 0.0000607 -0.0001006 0.0002038 -0.0004193 0.0001545 -0.0000176 0.0004467 0.0003346 -0.0002317 -0.0016939 -0.0052123 -0.0002500 0.0003370 0.0001346 -0.0002396 0.0016803 -0.0039920 0.0000455 -0.0000289 -0.0000849 0.0001296 -0.0000142 0.0003522 -0.0000270 0.0004670 -0.0000717 0.0003889 -0.0000675 0.0002869 -0.0001698 0.0004129 -0.0000157 0.0003663 -0.0000919 0.0003845 -0.0001204 0.0003298 -0.0000979 0.0003504 -0.0001577 0.0002650 -0.0001133 0.0003598 0.0001044 0.0004859 0.0000810 0.0007859 0.0000631 0.0002704 -0.0000842 0.0002909 -0.0001226 0.0002834 -0.0000506 0.0002518 -0.0001697 0.0002310 -0.0000077 0.0002206 -0.0000978 0.0001303 -0.0000223 0.0000102 -0.0000883 0.0000882 0.0000146 0.0007946 0.0001374 0.0011553 0.0000909 0.0013492 -0.0000263 0.0004761 0.0000291 0.0008913 -0.0002930 0.0006177 0.0000921 0.0002410 -0.0072078 0.0066526 -0.0000031 0.0004947 -0.0001313 0.0002764 -0.0000715 0.0008088 -0.0001333 0.0004402
-0.0000650 -0.0000193 -0.0000815 -0.0002745 -0.0000647 -0.0000405 -0.0001042 0.0001025 -0.0001195 -0.0003230 -0.0000844 -0.0005791 -0.0000243 0.0001632 -0.0000378 -0.0004667 0.0000854 -0.0004026 -0.0000979 -0.0002952 -0.0000434 -0.0001856 0.0000371 -0.0005099 0.0000565 -0.0001253 0.0000158 -0.0001715 0.0000257 0.0002976 0.0000599 -0.0005340 0.0000618 -0.0007279 0.0001553 -0.0006978 0.0000224 -0.0004952 0.0000831 -0.0003743 -0.0000002 -0.0002572 0.0000387 -0.0002174 -0.0000827 -0.0000226 -0.0002146 -0.0005652 -0.0000622 0.0002271 -0.0001211 -0.0000986 -0.0000651 -0.0000652 -0.0004735 -0.0001306 -0.0000070 0.0001880 0.0003479 -0.0003861 -0.0196002 0.0101482 -0.0008459 0.0006871 0.0001410 -0.0003981 -0.0025764 -0.0009715 -0.0000177 -0.0000575 -0.0000690 0.0002316 -0.0000279 0.0004234 -0.0000239 0.0005231 -0.0000710 0.0004352 -0.0000688 0.0003785 -0.0001703 0.0005038 -0.0000192 0.0004423 -0.0001014 0.0005337 -0.0001392 0.0004063 -0.0001106 0.0004422 -0.0001535 0.0003232 -0.0001136 0.0004280 0.0001041 0.0004513 0.0000833 0.0007715 0.0000564 0.0002292 -0.0000902 0.0002897 -0.0001285 0.0002777 -0.0000267 0.0001861 -0.0002152 0.0002555 -0.0000082 0.0001994 -0.0000890 0.0000977 -0.0000242 -0.0000332 -0.0000813 0.0000365 0.0000139 0.0007234 -0.0023891 0.0026802 0.0000993 0.0012579 0.0000111 0.0003760 -0.0000164 0.0009094 -0.0001364 0.0004990 0.0001292 0.0001153 -0.0061528 0.0054753 -0.0000276 0.0004050 -0.0001192 0.0001799 -0.0000188 0.0006373 -0.0001296 0.0003568
-0.0000636 -0.0000081 -0.0000657 -0.0003100 -0.0000749 0.0000179 -0.0001139 0.0001521 -0.0000999 -0.0001963 -0.0000720 -0.0005951 -0.0000615 0.0001634 -0.0000479 -0.0004620 0.0000894 -0.0002773 -0.0000874 -0.0002202 -0.0000614 -0.0000575 0.0000126 -0.0003867 0.0000499 -0.0000244 -0.0000106 -0.0001365 0.0000189 0.0003959 0.0000521 -0.0005162 0.0000536 -0.0005688 0.0001355 -0.0005750 0.0000176 -0.0003713 0.0000788 -0.0002073 -0.0000299 -0.0000131 0.0000280 0.0000237 -0.0001015 0.0001629 -0.0001898 -0.0004453 -0.0003922 0.0008350 -0.0002646 0.0002982 -0.0000558 0.0002416 -0.0003964 0.0001167 -0.0000549 0.0006133 -0.0001574 0.0002028 -0.0058266 0.0073567 -0.0012024 0.0012220 0.0000982 -0.0000369 -0.0015951 -0.0017526 0.0000933 -0.0000253 -0.0000683 0.0001446 0.0000082 0.0003220 -0.0000175 0.0004040 -0.0000719 0.0003075 -0.0000654 0.0002403 -0.0001609 0.0004077 0.0000008 0.0002863 -0.0001023 0.0004057 -0.0001315 0.0003297 -0.0001234 0.0003483 -0.0001314 0.0002293 -0.0000777 0.0003272 0.0001029 0.0003580 0.0000849 0.0006207 0.0000535 0.0001350 -0.0000852 0.0001414 -0.0001249 0.0001639 -0.0000147 0.0000538 -0.0001889 0.0001190 -0.0000162 0.0001042 -0.0000818 0.0000036 -0.0000203 -0.0001374 -0.0000624 -0.0000911 0.0000820 0.0004527 -0.0004905 0.0015927 0.0001657 0.0008734 0.0000047 0.0001787 -0.0000442 0.0007468 -0.0000652 0.0002984 0.0000905 -0.0000482 -0.0016898 0.0001706 0.0000670 0.0001624 -0.0000742 -0.0000146 0.0000162 0.0003767 -0.0000963 0.0001719
-0.0000682 0.0000942 -0.0000693 -0.0002415 -0.0000758 0.0000740 -0.0001323 0.0001988 -0.0001314 -0.0001214 -0.0001383 -0.0005066 -0.0000734 0.0001622 0.0000165 -0.0005413 0.0000818 -0.0002455 -0.0000737 -0.0002082 -0.0000495 -0.0000467 -0.0000253 -0.0003361 0.0000333 -0.0000363 -0.0000039 -0.0001064 0.0000104 0.0004328 0.0000670 -0.0005558 0.0000435 -0.0005983 0.0001283 -0.0006089 0.0000051 -0.0003999 0.0000824 -0.0002138 -0.0000374 -0.0000178 0.0000169 -0.0000125 -0.0001037 0.0001452 -0.0002682 -0.0003237 -0.0003065 0.0007043 0.0002641 -0.0001241 -0.0000536 0.0001409 -0.0003269 0.0001179 -0.0000417 0.0004789 -0.0006342 0.0003110 0.0075048 -0.0113133 -0.0004356 0.0005062 0.0001179 -0.0001808 0.0020691 -0.0032314 0.0000629 -0.0001467 -0.0000797 -0.0000056 0.0000251 0.0001942 -0.0000054 0.0002479 -0.0000671 0.0001376 -0.0000339 0.0000756 -0.0001447 0.0002748 0.0000218 0.0000686 -0.0000580 0.0002017 -0.0001105 0.0002405 -0.0001151 0.0002656 -0.0001352 0.0001616 -0.0000080 0.0001977 0.0001034 0.0002715 0.0000781 0.0004992 0.0000533 0.0000418 -0.0000856 0.0001682 -0.0001265 0.0001522 -0.0000344 0.0000175 -0.0001408 0.0000633 -0.0000245 0.0000904 -0.0000897 -0.0000089 -0.0000223 -0.0001709 -0.0000579 -0.0000782 0.0000852 0.0005008 0.0010340 0.0007122 0.0002250 0.0009901 0.0000122 0.0002917 0.0000150 0.0007633 -0.0000328 0.0002885 0.0000935 -0.0000069 0.0019918 -0.0020664 0.0001296 0.0002178 -0.0000164 0.0000255 0.0000612 0.0004729 -0.0000722 0.0002678
-0.0000765 0.0000502 -0.0000806 -0.0002685 -0.0000664 -0.0000119 -0.0001310 0.0001441 -0.0000989 -0.0003072 -0.0000729 -0.0006162 -0.0000766 0.0001247 0.0000166 -0.0006284 0.0000857 -0.0004205 -0.0000516 -0.0004005 -0.0000106 -0.0002289 -0.0000197 -0.0004774 0.0000450 -0.0001419 0.0000148 -0.0001996 0.0000203 0.0003727 0.0000647 -0.0006771 0.0000533 -0.0008166 0.0001248 -0.0007640 0.0000049 -0.0005669 0.0000924 -0.0003632 -0.0000115 -0.0002196 0.0000222 -0.0001615 -0.0001005 0.0000294 -0.0002681 -0.0003551 -0.0000806 0.0002304 0.0000345 0.0000175 -0.0000470 -0.0001103 -0.0001321 -0.0001229 0.0000003 0.0001895 0.0001235 -0.0005835 -0.0019902 -0.0044631 0.0003068 -0.0005199 0.0001783 -0.0003641 -0.0102227 0.0105102 0.0000860 -0.0001717 -0.0000827 0.0001211 0.0000023 0.0002491 -0.0000068 0.0003244 -0.0000595 0.0002042 -0.0000324 0.0001911 -0.0001495 0.0003851 0.0000273 0.0001463 -0.0000402 0.0003373 -0.0001428 0.0003163 -0.0001289 0.0003531 -0.0001627 0.0002393 0.0000083 0.0002437 0.0001016 0.0002499 0.0000736 0.0004676 0.0000437 0.0000047 -0.0000796 0.0001530 -0.0001434 0.0001482 -0.0000200 -0.0000106 -0.0001955 0.0001059 -0.0000203 0.0000417 -0.0000726 -0.0000359 -0.0000165 -0.0002143 -0.0000561 -0.0001181 0.0000236 0.0005159 -0.0002992 0.0019003 0.0002478 0.0008554 0.0000821 0.0001274 0.0000395 0.0006564 0.0000730 0.0001620 0.0001515 -0.0001453 -0.0009820 0.0008927 0.0001776 0.0000633 0.0000183 -0.0001045 0.0000547 0.0003403 -0.0000686 0.0001596
-0.0000834 0.0000740 -0.0000834 -0.0002832 -0.0000607 0.0000486 -0.0001564 0.0002470 -0.0001530 -0.0001364 -0.0000300 -0.0006269 -0.0000991 0.0001903 0.0000145 -0.0005721 0.0000998 -0.0003020 -0.0000206 -0.0003294 -0.0000246 -0.0000700 -0.0000503 -0.0003188 0.0000479 0.0000083 0.0000006 -0.0001495 0.0000301 0.0005300 0.0000439 -0.0006200 0.0000459 -0.0006516 0.0001016 -0.0006179 0.0000022 -0.0004286 0.0000722 -0.0001880 -0.0000359 0.0000134 0.0000099 0.0000948 -0.0001115 0.0002295 -0.0001828 -0.0003517 -0.0000285 0.0004995 -0.0006109 0.0005971 -0.0000879 0.0002654 -0.0002616 0.0001151 -0.0000388 0.0006286 0.0005500 -0.0004014 0.0084038 -0.0126313 -0.0002305 -0.0000530 0.0001130 0.0001037 -0.0058049 0.0079930 0.0000465 0.0002069 -0.0000659 0.0000051 -0.0000172 0.0001842 0.0000082 0.0001693 -0.0000596 0.0000476 -0.0000113 0.0000066 -0.0001344 0.0002561 0.0000448 -0.0000503 -0.0000298 0.0001595 -0.0001308 0.0001822 -0.0001421 0.0001868 -0.0001542 0.0001126 0.0000094 0.0001161 0.0001021 0.0001574 0.0000718 0.0002748 0.0000384 -0.0000741 -0.0000655 -0.0000577 -0.0001492 0.0000258 0.0000177 -0.0001804 -0.0001338 -0.0000637 -0.0000179 -0.0001093 -0.0000573 -0.0001548 0.0000001 -0.0003217 -0.0000311 -0.0002702 0.0000828 0.0002783 0.0012770 0.0005169 0.0002860 0.0004878 0.0001099 -0.0001384 0.0000896 0.0003560 -0.0000165 0.0000368 0.0001454 -0.0003471 0.0004486 0.0003169 0.0002334 -0.0001944 0.0000276 -0.0002973 0.0000983 0.0000242 -0.0000556 -0.0000377
-0.0000864 0.0002752 -0.0000779 -0.0001748 -0.0000740 0.0002281 -0.0001935 0.0004266 -0.0001950 0.0000786 -0.0000905 -0.0005001 -0.0001061 0.0002991 0.0000175 -0.0004892 0.0000888 -0.0001492 -0.0000395 -0.0001357 -0.0000479 0.0001250 -0.0000973 -0.0001575 0.0000166 0.0001038 0.0000026 -0.0000061 0.0000202 0.0006303 0.0000495 -0.0005865 0.0000176 -0.0005650 0.0000990 -0.0005596 -0.0000129 -0.0003695 0.0000588 -0.0001286 -0.0000544 0.0000937 -0.0000086 0.0001129 -0.0001132 0.0002456 -0.0001541 -0.0003007 0.0000532 0.0003756 -0.0004837 0.0003710 -0.0001391 0.0002454 -0.0003687 0.0001833 -0.0000214 0.0005566 -0.0002026 0.0002979 0.0124022 -0.0208007 -0.0006456 0.0006200 0.0000913 0.0000220 0.0016381 -0.0016538 0.0000071 0.0001180 -0.0000367 -0.0002010 0.0000006 0.0000041 0.0000296 -0.0000282 -0.0000562 -0.0001703 0.0000372 -0.0002120 -0.0001279 0.0000867 0.0000688 -0.0003241 -0.0000292 -0.0000566 -0.0000825 0.0000448 -0.0001198 0.0000398 -0.0001187 -0.0000275 0.0000470 -0.0000281 0.0001012 0.0000312 0.0000674 0.0000817 0.0000384 -0.0001766 -0.0000673 -0.0001063 -0.0001128 -0.0000580 0.0000462 -0.0003227 -0.0000589 -0.0001592 -0.0000090 -0.0001744 -0.0000496 -0.0002109 0.0000033 -0.0003562 -0.0000114 -0.0002787 0.0001395 0.0002699 0.0037050 -0.0013993 0.0002792 0.0006617 0.0000509 0.0000318 0.0000674 0.0004202 -0.0001138 0.0001570 0.0001431 -0.0002841 -0.0005328 0.0016407 0.0002686 -0.0001204 0.0000815 -0.0002698 0.0001395 0.0001134 -0.0000347 0.0000467
-0.0000922 0.0002434 -0.0000760 -0.0002125 -0.0000637 0.0002125 -0.0001952 0.0004555 -0.0001581 0.0000055 -0.0001078 -0.0004922 -0.0001008 0.0003069 -0.0000085 -0.0004536 0.0000893 -0.0002942 -0.0000421 -0.0002828 -0.0000161 -0.0000314 -0.0000290 -0.0003068 0.0000190 0.0000619 0.0000110 -0.0000174 0.0000190 0.0006248 0.0000702 -0.0007107 0.0000227 -0.0007459 0.0000903 -0.0006463 -0.0000155 -0.0004919 0.0000708 -0.0002696 -0.0000402 -0.0000595 -0.0000089 0.0000176 -0.0001095 0.0001299 -0.0003215 -0.0000812 -0.0002221 0.0000514 0.0001350 -0.0002459 -0.0001181 0.0000168 0.0001120 -0.0001835 0.0000207 0.0002633 -0.0004411 0.0003123 0.0082717 -0.0227718 0.0004046 -0.0004858 0.0001157 -0.0002559 0.0012749 -0.0020611 0.0001273 -0.0002560 -0.0000246 -0.0001054 0.0000289 -0.0000040 0.0000287 0.0000794 -0.0000425 -0.0000749 0.0000653 -0.0000548 -0.0001411 0.0002126 0.0000790 -0.0002217 -0.0000447 0.0001432 -0.0000841 0.0001726 -0.0000836 0.0001936 -0.0001175 0.0000855 -0.0000661 0.0001915 0.0000938 0.0000157 0.0000498 0.0001231 0.0000319 -0.0001896 -0.0000707 0.0000857 -0.0001145 0.0000449 0.0000449 -0.0002693 -0.0000626 -0.0000607 -0.0000173 -0.0000642 -0.0000442 -0.0001389 0.0000003 -0.0003093 -0.0000060 -0.0001828 0.0001527 0.0003639 0.0033081 -0.0004915 0.0002654 0.0006754 0.0000660 0.0000578 0.0000506 0.0004431 -0.0000062 0.0001070 0.0002177 -0.0003183 -0.0018506 0.0025959 0.0002386 -0.0001002 0.0001002 -0.0003021 0.0001586 0.0000550 -0.0000240 -0.0000041
-0.0000978 0.0001856 -0.0000781 -0.0003090 -0.0000349 0.0002291 -0.0001840 0.0005238 -0.0001699 0.0000921 -0.0001034 -0.0004323 -0.0001040 0.0003606 -0.0000209 -0.0003068 0.0001186 -0.0003001 -0.0000212 -0.0003135 -0.0000126 -0.0000391 0.0000151 -0.0003191 0.0000290 0.0002375 -0.0000026 0.0000195 0.0000410 0.0008017 0.0000668 -0.0007050 0.0000114 -0.0006357 0.0001027 -0.0005315 -0.0000220 -0.0003981 0.0000683 -0.0001850 -0.0000453 0.0000980 -0.0000164 0.0002767 -0.0001156 0.0002852 -0.0001823 0.0000865 -0.0002510 0.0000637 -0.0000786 0.0001461 -0.0000985 0.0002551 0.0000570 0.0000430 -0.0000114 0.0006241 -0.0002162 0.0005451 0.0093632 -0.0244256 0.0003009 -0.0002968 0.0000888 0.0001085 -0.0052851 0.0076060 0.0001294 -0.0000670 -0.0000314 -0.0001348 -0.0000014 0.0000130 0.0000404 0.0000064 -0.0000404 -0.0001328 0.0000924 -0.0001862 -0.0001419 0.0001500 0.0000846 -0.0003045 -0.0000394 0.0000244 -0.0000740 0.0000903 -0.0000691 0.0000591 -0.0001056 0.0000115 -0.0001217 0.0001992 0.0000988 -0.0000072 0.0000462 -0.0000092 0.0000237 -0.0002179 -0.0000360 -0.0000675 -0.0001120 -0.0000282 0.0000268 -0.0003084 -0.0000484 -0.0001687 -0.0000128 -0.0001511 -0.0000367 -0.0001926 0.0000159 -0.0003723 0.0000088 -0.0002638 0.0001895 0.0002052 0.0022639 0.0000959 0.0003037 0.0003727 0.0001610 -0.0001999 0.0000811 0.0002174 0.0000541 -0.0000436 0.0002625 -0.0004444 0.0007231 -0.0006142 0.0002064 -0.0002445 0.0001093 -0.0004485 0.0002017 -0.0002066 -0.0000084 -0.0001640
-0.0000991 0.0003943 -0.0000842 -0.0002322 -0.0000463 0.0004414 -0.0001849 0.0007308 -0.0002053 0.0003008 -0.0001184 -0.0002781 -0.0001320 0.0005491 -0.0000610 -0.0001010 0.0001228 -0.0001546 0.0000002 -0.0001542 -0.0000334 0.0001794 -0.0000475 -0.0001354 -0.0000028 0.0004158 0.0000078 0.0001802 0.0000424 0.0009499 0.0000214 -0.0006143 0.0000168 -0.0005768 0.0001207 -0.0004277 -0.0000402 -0.0003119 0.0000592 -0.0001202 -0.0000355 0.0001820 -0.0000329 0.0003214 -0.0001227 0.0003299 0.0000346 0.0000410 -0.0002489 0.0000160 -0.0005876 0.0006469 -0.0000835 0.0001740 -0.0002605 0.0003476 -0.0000181 0.0006138 -0.0004528 0.0004402 -0.0009414 -0.0068595 -0.0006600 0.0008550 0.0000827 0.0000398 -0.0051021 0.0030038 0.0000752 -0.0000707 -0.0000147 -0.0002951 -0.0000094 -0.0001033 0.0000617 -0.0001630 -0.0000360 -0.0003176 0.0001264 -0.0004450 -0.0001160 -0.0000426 0.0001134 -0.0005531 -0.0000022 -0.0002741 -0.0000965 -0.0000591 -0.0000774 -0.0001842 -0.0000889 -0.0001617 -0.0000576 -0.0000135 0.0001065 -0.0000775 0.0000545 -0.0002680 0.0000196 -0.0002902 -0.0000195 -0.0003292 -0.0001068 -0.0002093 0.0000195 -0.0004376 -0.0000082 -0.0003390 -0.0000089 -0.0003278 -0.0000157 -0.0003174 0.0000336 -0.0004581 0.0000242 -0.0003580 0.0002687 0.0000450 0.0018669 0.0002068 0.0003106 0.0003941 0.0001441 -0.0002051 0.0001042 0.0001690 0.0001113 -0.0000848 0.0003012 -0.0004642 0.0030438 -0.0025698 0.0002865 -0.0002668 0.0001496 -0.0004547 0.0001983 -0.0001432 0.0000058 -0.0001220
-0.0000999 0.0003789 -0.0000804 -0.0002354 -0.0000533 0.0004420 -0.0001817 0.0007526 -0.0002091 0.0002706 -0.0001229 -0.0002760 -0.0001604 0.0006325 -0.0000918 -0.0000834 0.0001246 -0.0002569 -0.0000149 -0.0002364 -0.0000069 0.0000924 -0.0000358 -0.0001812 0.0000007 0.0003848 0.0000271 0.0001796 0.0000444 0.0009876 0.0000105 -0.0006024 0.0000314 -0.0006981 0.0001056 -0.0004532 -0.0000395 -0.0003702 0.0000813 -0.0002200 -0.0000222 0.0000627 -0.0000351 0.0002553 -0.0001176 0.0002549 -0.0001673 0.0001834 -0.0002997 0.0000674 -0.0001231 0.0001401 -0.0000751 0.0000225 -0.0002283 0.0001668 -0.0000052 0.0004186 -0.0002910 -0.0000735 0.0017847 -0.0060217 -0.0007781 0.0009800 0.0001002 -0.0001664 0.0003798 -0.0100198 0.0000547 -0.0000830 -0.0000040 -0.0002271 0.0000390 -0.0001413 0.0000630 -0.0000815 -0.0000257 -0.0002516 0.0001486 -0.0003299 -0.0000977 0.0000064 0.0001249 -0.0004868 0.0000291 -0.0001769 -0.0000969 0.0000103 -0.0000790 -0.0000649 -0.0001095 -0.0000730 -0.0000427 0.0000365 0.0001021 -0.0000892 0.0000438 -0.0002608 0.0000183 -0.0002994 -0.0000384 -0.0001564 -0.0000820 -0.0001453 0.0000106 -0.0003844 0.0000244 -0.0002880 -0.0000214 -0.0002475 -0.0000115 -0.0002626 0.0000259 -0.0004002 0.0000280 -0.0002472 0.0002100 0.0002427 -0.0003793 0.0012617 0.0002746 0.0006984 0.0000262 0.0000918 0.0000954 0.0003401 0.0000494 0.0000472 0.0003168 -0.0003120 0.0033023 -0.0021226 0.0003365 -0.0001064 0.0000958 -0.0002308 0.0002054 0.0000959 0.0000019 0.0000549
-0.0000936 0.0003070 -0.0000734 -0.0002395 -0.0000504 0.0004255 -0.0001770 0.0007911 -0.0002185 0.0003169 -0.0001217 -0.0002970 -0.0001658 0.0006444 -0.0000856 -0.0000986 0.0001203 -0.0002295 -0.0000561 -0.0001777 -0.0000225 0.0000950 -0.0000322 -0.0001379 -0.0000023 0.0004862 0.0000215 0.0002252 0.0000512 0.0011545 0.0000186 -0.0004887 0.0000178 -0.0005090 0.0000830 -0.0003000 -0.0000402 -0.0002208 0.0000826 -0.0001087 -0.0000290 0.0001906 -0.0000463 0.0004978 -0.0001337 0.0004417 -0.0002122 0.0004234 -0.0001560 0.0004947 -0.0001628 0.0003143 -0.0001222 0.0004035 -0.0002340 0.0002980 -0.0000409 0.0008031 -0.0003513 0.0005182 -0.0004122 -0.0016901 0.0001206 0.0004748 0.0001256 0.0001879 -0.0061966 -0.0009107 0.0000826 0.0002382 -0.0000261 -0.0000065 0.0000154 -0.0000226 0.0000549 0.0001087 -0.0000178 -0.0000486 0.0001411 -0.0000878 -0.0001041 0.0001889 0.0001075 -0.0002332 0.0000192 0.0000911 -0.0001138 0.0001630 -0.0000688 0.0001232 -0.0001227 0.0000881 -0.0000153 0.0001414 0.0000986 -0.0000376 0.0000320 -0.0001531 0.0000136 -0.0002508 -0.0000165 -0.0000615 -0.0000435 -0.0000837 0.0000449 -0.0003049 0.0000266 -0.0002246 -0.0000147 -0.0001901 -0.0000095 -0.0002082 0.0000229 -0.0003634 0.0000306 -0.0002115 0.0001077 0.0003477 -0.0029650 0.0032119 0.0002843 0.0005809 0.0000043 0.0000582 0.0001236 0.0002751 -0.0000801 0.0001363 0.0002568 -0.0002139 0.0021984 -0.0014364 0.0002585 -0.0001138 0.0000527 -0.0002347 0.0001897 0.0000251 -0.0000051 -0.0000016
-0.0001052 0.0004874 -0.0000779 -0.0000890 -0.0000698 0.0005990 -0.0001963 0.0010061 -0.0002478 0.0004863 -0.0001764 -0.0002072 -0.0001482 0.0006990 -0.0000814 -0.0000570 0.0001015 -0.0000493 -0.0000395 0.0000574 -0.0000465 0.0003170 -0.0000739 0.0000149 -0.0000462 0.0005437 0.0000142 0.0003652 0.0000275 0.0012299 0.0000088 -0.0003855 0.0000080 -0.0003701 0.0000638 -0.0002148 -0.0000529 -0.0000944 0.0000608 -0.0000214 -0.0000479 0.0002855 -0.0000628 0.0004736 -0.0001456 0.0004752 -0.0001935 0.0003888 -0.0001858 0.0005718 -0.0002356 0.0003831 -0.0001157 0.0004042 -0.0002181 0.0002948 -0.0000314 0.0007084 0.0001681 0.0001464 -0.0084438 0.0128595 0.0004686 0.0000395 0.0001372 0.0000335 0.0059183 -0.0081970 0.0000248 0.0001368 -0.0000177 -0.0000755 -0.0000229 -0.0000577 0.0000597 0.0000373 -0.0000152 -0.0001205 0.0001538 -0.0002387 -0.0001021 0.0000903 0.0001159 -0.0003295 0.0000296 -0.0000977 -0.0000883 0.0000441 -0.0000221 -0.0000686 -0.0001107 -0.0000148 -0.0000564 0.0000488 0.0000965 -0.0000551 0.0000350 -0.0002461 0.0000106 -0.0002671 0.0000199 -0.0002747 -0.0000778 -0.0001640 0.0000729 -0.0003840 0.0000609 -0.0003262 0.0000007 -0.0002711 -0.0000035 -0.0002625 0.0000298 -0.0004002 0.0000388 -0.0002733 0.0001922 0.0001167 -0.0031341 0.0038400 0.0002854 0.0002570 0.0000445 -0.0001791 0.0002017 0.0000351 0.0000140 -0.0000655 0.0002683 -0.0003153 -0.0003186 0.0001912 0.0002459 -0.0002969 0.0000756 -0.0003905 0.0001824 -0.0001771 0.0000014 -0.0001531
-0.0001175 0.0004148 -0.0000767 -0.0000940 -0.0000766 0.0005179 -0.0001878 0.0009546 -0.0002448 0.0003093 -0.0002045 -0.0002757 -0.0001415 0.0006462 -0.0000485 -0.0001669 0.0001215 -0.0002545 -0.0000172 -0.0001212 -0.0000174 0.0001431 -0.0000366 -0.0002440 -0.0000549 0.0003960 -0.0000025 0.0002759 0.0000175 0.0011140 0.0000297 -0.0004420 0.0000285 -0.0005345 0.0000580 -0.0003466 -0.0000433 -0.0002131 0.0000690 -0.0001815 -0.0000415 0.0000864 -0.0000594 0.0003056 -0.0001473 0.0003298 -0.0002028 0.0002611 -0.0002014 0.0003974 0.0000523 0.0002380 -0.0000357 0.0001181 -0.0001631 0.0001783 -0.0000029 0.0003968 0.0008690 -0.0005619 -0.0094936 0.0140997 0.0000783 -0.0000417 0.0001337 -0.0002352 0.0030820 0.0008775 0.0000117 -0.0000229 -0.0000164 -0.0002181 -0.0000311 -0.0001636 0.0000708 -0.0000904 -0.0000169 -0.0002652 0.0001889 -0.0004684 -0.0000868 -0.0001032 0.0001250 -0.0005010 0.0000527 -0.0003832 -0.0000354 -0.0001533 0.0000207 -0.0003164 -0.0000987 -0.0001613 -0.0000067 -0.0000919 0.0000897 -0.0001169 0.0000332 -0.0003760 0.0000073 -0.0003196 0.0000315 -0.0003678 -0.0000663 -0.0002418 0.0000497 -0.0004164 0.0000623 -0.0003802 0.0000067 -0.0003031 -0.0000062 -0.0002768 0.0000249 -0.0003883 0.0000408 -0.0002232 0.0002304 0.0000759 0.0011377 0.0006608 0.0002600 0.0004069 0.0000882 -0.0000751 0.0001619 0.0001280 0.0001228 -0.0001299 0.0003064 -0.0002949 0.0007037 -0.0006567 0.0002600 -0.0002249 0.0001045 -0.0003131 0.0001697 -0.0000484 -0.0000015 -0.0000495
-0.0001089 0.0002708 -0.0000757 -0.0001488 -0.0000730 0.0004207 -0.0001771 0.0008859 -0.0002496 0.0002513 -0.0002173 -0.0003130 -0.0001473 0.0006060 -0.0000680 -0.0001905 0.0001343 -0.0003627 -0.0000229 -0.0002463 -0.0000101 -0.0000032 0.0000252 -0.0003957 -0.0000516 0.0004259 -0.0000286 0.0002452 0.0000181 0.0011614 0.0000506 -0.0004087 0.0000373 -0.0004888 0.0000542 -0.0002602 -0.0000503 -0.0001458 0.0000820 -0.0001720 -0.0000266 0.0000879 -0.0000641 0.0004911 -0.0001536 0.0004340 -0.0003177 0.0004647 0.0000278 0.0006493 -0.0001068 0.0005008 -0.0000161 0.0003535 0.0000198 0.0002831 -0.0000156 0.0007174 0.0004482 0.0003750 0.0024070 -0.0008965 -0.0001897 0.0007188 0.0000854 0.0001693 -0.0040010 0.0075056 0.0000540 0.0001688 -0.0000172 -0.0001129 -0.0000147 -0.0001163 0.0000676 0.0000624 -0.0000099 -0.0001122 0.0001804 -0.0002728 -0.0000935 0.0000104 0.0001244 -0.0003290 0.0000509 -0.0002029 -0.0000889 -0.0000056 0.0000201 -0.0001752 -0.0001047 -0.0000431 0.0000840 -0.0000089 0.0000778 -0.0000913 0.0000149 -0.0002554 0.0000016 -0.0003011 0.0000126 -0.0001356 -0.0000458 -0.0001479 0.0000083 -0.0002768 0.0000201 -0.0002356 -0.0000206 -0.0001628 -0.0000008 -0.0001827 0.0000089 -0.0002954 0.0000358 -0.0000727 0.0001660 0.0003308 0.0025730 -0.0003327 0.0002031 0.0008090 0.0000790 0.0001965 0.0000813 0.0003680 0.0000209 0.0001000 0.0002473 -0.0000868 0.0017761 -0.0012453 0.0002300 -0.0000957 0.0000784 -0.0001271 0.0001663 0.0000750 -0.0000063 0.0000459
-0.0001058 0.0004456 -0.0000815 -0.0000170 -0.0000819 0.0006328 -0.0001963 0.0011096 -0.0002427 0.0005271 -0.0002167 -0.0001670 -0.0001805 0.0007454 -0.0000934 -0.0000181 0.0001174 -0.0000467 -0.0000116 0.0000692 -0.0000494 0.0003200 -0.0000177 -0.0000485 -0.0000671 0.0005941 -0.0000334 0.0004678 0.0000040 0.0013545 0.0000318 -0.0002578 0.0000141 -0.0002514 0.0000464 -0.0000486 -0.0000853 0.0000966 0.0000702 0.0000070 -0.0000454 0.0003291 -0.0000824 0.0005698 -0.0001397 0.0005121 -0.0002586 0.0004681 0.0000749 0.0009363 -0.0002462 0.0005544 -0.0000271 0.0003498 0.0002034 0.0001803 0.0000045 0.0006449 0.0001186 0.0002265 -0.0043299 0.0088931 -0.0007598 0.0014188 0.0001237 0.0000063 0.0017931 0.0003702 0.0000653 0.0000229 -0.0000176 -0.0000593 -0.0000179 -0.0000429 0.0000641 0.0001218 -0.0000099 -0.0000479 0.0001642 -0.0002358 -0.0001041 0.0000449 0.0001353 -0.0002549 0.0000763 -0.0002052 -0.0001056 0.0000237 0.0000108 -0.0001664 -0.0001095 -0.0000198 -0.0000089 0.0000543 0.0000781 -0.0000536 0.0000093 -0.0002507 -0.0000005 -0.0002776 -0.0000101 -0.0001456 -0.0000574 -0.0001255 -0.0000158 -0.0002266 0.0000526 -0.0002480 -0.0000265 -0.0001300 0.0000022 -0.0001560 0.0000049 -0.0002776 0.0000338 -0.0000632 0.0001661 0.0003429 -0.0000606 0.0014515 0.0001341 0.0006922 0.0000286 0.0001142 0.0001021 0.0002618 0.0000628 0.0000406 0.0001761 -0.0000843 -0.0011885 0.0014125 0.0002029 -0.0002076 0.0000731 -0.0001703 0.0001744 -0.0000555 0.0000003 -0.0000382
-0.0001019 0.0003722 -0.0000742 -0.0000065 -0.0000911 0.0005723 -0.0002113 0.0010756 -0.0002178 0.0003686 -0.0001832 -0.0002287 -0.0002005 0.0007359 -0.0000765 -0.0000633 0.0001151 -0.0001867 -0.0000385 -0.0000264 -0.0000661 0.0002152 -0.0000227 -0.0001879 -0.0000588 0.0004960 -0.0000305 0.0004134 0.0000103 0.0013145 0.0000308 -0.0002988 0.0000315 -0.0003913 0.0000636 -0.0001758 -0.0000704 -0.0000227 0.0000730 -0.0001191 -0.0000470 0.0001685 -0.0000778 0.0004355 -0.0001395 0.0003752 0.0000190 0.0001774 0.0000166 0.0008788 -0.0003198 0.0006183 -0.0000211 0.0000712 0.0000765 -0.0000154 0.0000103 0.0003582 0.0003316 -0.0002365 -0.0264855 0.0212476 -0.0004631 0.0008595 0.0001989 -0.0003401 0.0050904 -0.0014460 0.0001131 -0.0002510 -0.0000310 -0.0001120 -0.0000408 -0.0000737 0.0000650 0.0000597 -0.0000100 -0.0001057 0.0001638 -0.0003795 -0.0001017 -0.0000667 0.0001298 -0.0003391 0.0000701 -0.0003649 -0.0000700 -0.0001163 0.0000194 -0.0003364 -0.0001007 -0.0001395 -0.0000202 -0.0000668 0.0000803 -0.0000681 0.0000209 -0.0003666 -0.0000008 -0.0003056 -0.0000048 -0.0003571 -0.0000492 -0.0002380 0.0000114 -0.0002938 0.0000443 -0.0003187 0.0000002 -0.0002310 -0.0000040 -0.0002026 0.0000064 -0.0003174 0.0000328 -0.0001227 0.0002242 0.0001667 0.0003512 0.0009116 0.0001566 0.0003530 0.0000655 -0.0001157 0.0001498 0.0000378 -0.0000022 -0.0000071 0.0001255 -0.0001742 0.0006030 -0.0004300 0.0001636 -0.0002621 0.0000673 -0.0002455 0.0001358 -0.0001018 -0.0000099 -0.0000673
-0.0000913 0.0002021 -0.0000651 -0.0000840 -0.0000869 0.0004213 -0.0001864 0.0009347 -0.0002139 0.0001951 -0.0001788 -0.0003043 -0.0001887 0.0006715 -0.0000760 -0.0001139 0.0001421 -0.0004185 -0.0000768 -0.0002233 -0.0000259 -0.0000349 0.0000175 -0.0004338 -0.0000462 0.0004268 -0.0000396 0.0002742 0.0000190 0.0012750 0.0000254 -0.0003255 0.0000574 -0.0004988 0.0000642 -0.0002039 -0.0000280 -0.0001371 0.0000939 -0.0002260 -0.0000239 0.0000200 -0.0000658 0.0005080 -0.0001478 0.0003646 0.0000962 0.0001491 -0.0000624 0.0010675 -0.0001553 0.0005834 -0.0000458 0.0002765 -0.0000883 0.0001910 -0.0000081 0.0006350 0.0003874 0.0005601 0.0006548 -0.0032509 -0.0002521 0.0009305 0.0001695 0.0000220 0.0055222 -0.0029005 0.0001137 -0.0000660 -0.0000198 -0.0001042 -0.0000788 -0.0000729 0.0000639 0.0001124 0.0000005 -0.0000409 0.0001722 -0.0003174 -0.0000985 -0.0000529 0.0001235 -0.0003023 0.0000455 -0.0002946 -0.0000617 -0.0000875 0.0000491 -0.0003067 -0.0000946 -0.0001254 0.0000779 -0.0001306 0.0000756 -0.0000420 0.0000272 -0.0003037 -0.0000008 -0.0003018 -0.0000166 -0.0002669 -0.0000712 -0.0001843 -0.0000058 -0.0002515 0.0000190 -0.0002456 0.0000065 -0.0001796 0.0000067 -0.0001590 -0.0000054 -0.0002688 0.0000283 -0.0000402 0.0002320 0.0002791 0.0014977 0.0002652 0.0001385 0.0006168 0.0000908 0.0000303 0.0001478 0.0001546 -0.0000820 0.0001329 0.0001019 -0.0000429 0.0025733 -0.0009715 0.0001689 -0.0001235 0.0000154 -0.0000849 0.0001115 0.0000861 -0.0000244 0.0000773
-0.0000952 0.0003528 -0.0000637 -0.0000206 -0.0000759 0.0006108 -0.0001892 0.0011312 -0.0002373 0.0004765 -0.0001970 -0.0001396 -0.0002127 0.0008236 -0.0001426 0.0001772 0.0001507 -0.0001062 -0.0000710 0.0001000 -0.0000334 0.0002667 -0.0000029 -0.0001233 -0.0000746 0.0006447 -0.0000343 0.0004629 0.0000162 0.0014753 -0.0000118 -0.0001479 0.0000437 -0.0002815 0.0000221 0.0000731 -0.0000336 0.0000726 0.0000816 -0.0000242 -0.0000382 0.0002996 -0.0000782 0.0006020 -0.0001426 0.0004644 -0.0001660 0.0004892 -0.0001857 0.0011151 0.0000004 0.0004934 -0.0000507 0.0002612 -0.0001565 0.0003161 0.0000102 0.0006146 0.0002436 0.0008943 -0.0014707 0.0061824 -0.0007120 0.0010806 0.0001122 -0.0000101 0.0079619 -0.0050549 0.0001134 -0.0000981 -0.0000106 0.0000369 -0.0000592 0.0000025 0.0000535 0.0002834 0.0000070 0.0001430 0.0001644 -0.0000871 -0.0001119 0.0001061 0.0001137 -0.0000804 0.0000280 -0.0000518 -0.0000711 0.0000723 0.0000639 -0.0001103 -0.0000881 0.0000178 0.0001190 -0.0000272 0.0000773 0.0000599 0.0000160 -0.0000937 0.0000052 -0.0002221 -0.0000233 -0.0000292 -0.0000858 -0.0000142 -0.0000213 -0.0001139 0.0000353 -0.0001361 -0.0000026 -0.0000193 0.0000028 -0.0000395 -0.0000152 -0.0001908 0.0000163 0.0000501 0.0001829 0.0004147 0.0015265 0.0004697 0.0000625 0.0007540 0.0000859 0.0000345 0.0001127 0.0002435 -0.0000058 0.0001560 0.0000908 0.0000383 0.0034234 -0.0015378 0.0001359 -0.0000880 0.0000229 -0.0000763 0.0001143 0.0000963 -0.0000242 0.0000785
-0.0001012 0.0003187 -0.0000540 -0.0000524 -0.0000728 0.0005843 -0.0002258 0.0011729 -0.0002560 0.0004270 -0.0001947 -0.0001399 -0.0002093 0.0008288 -0.0001519 0.0001885 0.0001467 -0.0001741 -0.0000573 0.0000403 -0.0000386 0.0002153 -0.0000051 -0.0001473 -0.0000937 0.0006374 -0.0000241 0.0004774 0.0000224 0.0014589 0.0000047 -0.0001821 0.0000599 -0.0003898 0.0000333 0.0000133 -0.0000227 -0.0000101 0.0000787 -0.0000938 -0.0000438 0.0002057 -0.0000754 0.0005101 -0.0001374 0.0003746 -0.0002156 0.0005210 -0.0000785 0.0006736 -0.0001368 0.0004668 0.0000304 -0.0000220 -0.0003933 0.0004616 0.0000260 0.0003911 0.0001739 0.0009763 -0.0001486 0.0039219 -0.0002937 0.0004910 0.0001390 -0.0002838 0.0046395 -0.0025384 0.0001339 -0.0002961 -0.0000179 0.0000365 -0.0000142 -0.0000290 0.0000459 0.0002815 0.0000044 0.0001589 0.0001369 -0.0001094 -0.0001231 0.0000728 0.0001084 -0.0000633 0.0000357 -0.0001417 -0.0000720 0.0000232 0.0000394 -0.0001581 -0.0000730 -0.0000257 0.0000477 0.0000029 0.0000835 0.0001135 0.0000294 -0.0000975 0.0000102 -0.0001786 -0.0000003 -0.0001064 -0.0000796 -0.0000410 0.0000090 -0.0001140 0.0000495 -0.0001623 0.0000027 -0.0000211 -0.0000110 -0.0000342 -0.0000119 -0.0001836 0.0000087 0.0000302 0.0001277 0.0004380 -0.0000801 0.0015338 0.0000667 0.0006022 0.0000546 -0.0000651 0.0000556 0.0002469 0.0000081 0.0001266 0.0000915 0.0000356 0.0051101 -0.0032572 0.0001322 -0.0001608 0.0000302 -0.0001227 0.0001113 0.0000138 -0.0000253 0.0000033
-0.0001004 0.0001971 -0.0000527 -0.0001377 -0.0000772 0.0004681 -0.0002062 0.0010690 -0.0002036 0.0002191 -0.0001671 -0.0002388 -0.0001921 0.0007674 -0.0000928 0.0000729 0.0001661 -0.0003826 -0.0000358 -0.0001512 -0.0000205 0.0000406 0.0000375 -0.0003573 -0.0000770 0.0005451 -0.0000210 0.0003787 0.0000231 0.0014014 0.0000354 -0.0002499 0.0000827 -0.0004898 0.0000410 -0.0000481 0.0000010 -0.0001031 0.0000925 -0.0001970 -0.0000245 0.0000531 -0.0000598 0.0005472 -0.0001360 0.0003478 -0.0001181 0.0004911 -0.0001525 0.0006140 -0.0002552 0.0006960 0.0000374 0.0002334 -0.0004332 0.0006907 0.0000137 0.0006872 0.0003399 0.0006086 0.0044840 -0.0007955 0.0000991 0.0002097 0.0001255 0.0000285 0.0023024 -0.0022905 0.0000961 -0.0000777 -0.0000194 -0.0000448 0.0000358 -0.0001140 0.0000501 0.0002028 -0.0000031 0.0000963 0.0001360 -0.0002399 -0.0001047 -0.0000445 0.0000943 -0.0001340 0.0000338 -0.0003102 -0.0000633 -0.0000840 0.0000162 -0.0002862 -0.0000779 -0.0001174 -0.0000099 -0.0000206 0.0000870 0.0001212 0.0000519 -0.0001942 0.0000093 -0.0001773 0.0000175 -0.0002477 -0.0001069 -0.0001051 0.0000274 -0.0001633 0.0000394 -0.0002143 0.0000056 -0.0000694 -0.0000174 -0.0000687 -0.0000111 -0.0001833 0.0000034 0.0000245 0.0001322 0.0005206 -0.0043149 0.0047972 0.0000653 0.0007357 0.0000397 0.0000692 0.0000286 0.0003742 0.0000372 0.0001369 0.0000669 0.0001781 0.0029260 -0.0011383 0.0001481 -0.0000542 -0.0000331 0.0000374 0.0000931 0.0001860 -0.0000445 0.0001272
-0.0001043 0.0003254 -0.0000607 -0.0000784 -0.0000858 0.0006373 -0.0001968 0.0011943 -0.0001823 0.0004395 -0.0001185 -0.0001843 -0.0002034 0.0008566 -0.0000941 0.0002111 0.0001655 -0.0001379 -0.0000370 0.0001195 -0.0000326 0.0003065 0.0000057 -0.0001265 -0.0000810 0.0006384 -0.0000056 0.0005354 0.0000063 0.0015140 0.0000023 -0.0001206 0.0000591 -0.0003316 0.0000564 0.0000634 -0.0000195 0.0000590 0.0000817 -0.0000775 -0.0000333 0.0002305 -0.0000657 0.0005385 -0.0001246 0.0003804 -0.0002335 0.0005764 -0.0002786 0.0005432 -0.0001627 0.0005862 -0.0000030 0.0002592 0.0000482 0.0001487 0.0000162 0.0006640 0.0002488 0.0001297 -0.0112437 0.0210835 -0.0002362 0.0002374 0.0001948 -0.0001689 0.0128246 -0.0113407 0.0000534 -0.0001733 -0.0000215 0.0000560 0.0000208 -0.0000370 0.0000421 0.0003222 -0.0000017 0.0002244 0.0001305 -0.0000661 -0.0001095 0.0000854 0.0000694 0.0000448 0.0000058 -0.0001047 -0.0000646 0.0000347 0.0000203 -0.0001298 -0.0000997 0.0000111 -0.0000063 0.0000689 0.0000858 0.0001817 0.0000420 -0.0000357 0.0000076 -0.0001309 -0.0000035 -0.0000410 -0.0001183 0.0000175 0.0000003 -0.0000548 -0.0000167 -0.0000606 -0.0000101 0.0000638 -0.0000201 0.0000082 -0.0000237 -0.0001027 -0.0000077 0.0001247 0.0002222 0.0006245 -0.0019596 0.0028522 0.0000129 0.0010084 -0.0000117 0.0002859 -0.0000015 0.0005087 0.0000543 0.0002468 -0.0000107 0.0003266 0.0005345 -0.0002353 0.0000956 0.0000698 -0.0000712 0.0000865 0.0000578 0.0002800 -0.0000598 0.0001556
-0.0000903 0.0002363 -0.0000576 -0.0001141 -0.0000773 0.0005477 -0.0002013 0.0011119 -0.0001899 0.0003094 -0.0000660 -0.0002560 -0.0001827 0.0007717 -0.0000830 0.0000897 0.0001700 -0.0002651 -0.0000225 -0.0000324 -0.0000336 0.0002088 0.0000231 -0.0002216 -0.0000760 0.0005145 -0.0000133 0.0004994 0.0000127 0.0014167 -0.0000061 -0.0001579 0.0000865 -0.0004811 0.0000845 -0.0000247 0.0000093 -0.0000846 0.0000993 -0.0001983 -0.0000152 0.0000700 -0.0000570 0.0003939 -0.0001031 0.0002592 -0.0002094 0.0004617 -0.0001834 0.0002327 -0.0000760 0.0002014 -0.0000043 0.0000486 0.0000344 -0.0000363 0.0000470 0.0004125 0.0000574 0.0002200 0.0004279 0.0058723 -0.0002789 0.0007684 0.0002411 -0.0004811 0.0107342 -0.0088796 0.0000906 -0.0003943 -0.0000228 0.0000424 -0.0000609 0.0000356 0.0000336 0.0003171 -0.0000042 0.0002282 0.0000971 -0.0000727 -0.0001276 0.0000905 0.0000668 0.0000770 0.0000230 -0.0001655 -0.0000871 0.0000228 0.0000332 -0.0001831 -0.0000912 -0.0000143 0.0000435 -0.0000142 0.0000926 0.0002338 0.0000499 -0.0000305 0.0000031 -0.0000967 -0.0000219 -0.0000941 -0.0000940 -0.0000368 -0.0000154 -0.0000422 -0.0000157 -0.0000676 -0.0000110 0.0000589 -0.0000169 -0.0000081 -0.0000159 -0.0001150 -0.0000098 0.0000609 0.0001948 0.0005553 0.0011528 0.0001364 0.0000276 0.0008746 -0.0000205 0.0001799 0.0000329 0.0004200 -0.0000058 0.0002506 -0.0000254 0.0002922 -0.0001478 0.0005686 0.0000922 -0.0000017 -0.0000429 -0.0000279 0.0000098 0.0001913 -0.0000528 0.0000470
-0.0000756 0.0000893 -0.0000442 -0.0002097 -0.0000746 0.0004002 -0.0001832 0.0009838 -0.0001642 0.0000886 -0.0000922 -0.0003160 -0.0001684 0.0006757 -0.0000667 -0.0000424 0.0001911 -0.0004589 0.0000063 -0.0002637 -0.0000228 0.0000312 0.0000761 -0.0004187 -0.0000535 0.0004054 -0.0000176 0.0003513 0.0000275 0.0013507 0.0000142 -0.0002316 0.0001163 -0.0005495 0.0000802 -0.0000421 0.0000454 -0.0001834 0.0001134 -0.0002585 0.0000140 -0.0000378 -0.0000456 0.0004754 -0.0001011 0.0002729 0.0000832 0.0003041 -0.0001309 0.0002624 -0.0003320 0.0005686 -0.0000214 0.0002687 -0.0001551 0.0003710 0.0000547 0.0007136 0.0003369 0.0003051 0.0091239 -0.0118769 -0.0004508 0.0014454 0.0001658 -0.0001120 -0.0000278 0.0008208 0.0000777 -0.0001234 -0.0000143 -0.0000833 -0.0000486 -0.0000695 0.0000388 0.0001885 -0.0000136 0.0001156 0.0000787 -0.0002478 -0.0001187 -0.0000607 0.0000631 -0.0000558 0.0000155 -0.0003689 -0.0000881 -0.0001205 0.0000358 -0.0003545 -0.0000777 -0.0001449 0.0000991 -0.0001897 0.0001007 0.0002303 0.0000739 -0.0001690 0.0000031 -0.0001194 -0.0000179 -0.0002992 -0.0001104 -0.0001452 -0.0000326 -0.0001179 -0.0000149 -0.0001970 0.0000057 -0.0000562 -0.0000107 -0.0000922 -0.0000020 -0.0001925 -0.0000099 -0.0000710 0.0001134 0.0005049 -0.0033461 0.0035283 0.0000611 0.0007081 -0.0000055 0.0000689 0.0000264 0.0003634 0.0000217 0.0001221 -0.0000114 0.0002963 -0.0019783 0.0015876 0.0000968 0.0000097 -0.0000670 0.0000358 0.0000286 0.0002220 -0.0000650 0.0001115
-0.0000773 0.0002345 -0.0000411 -0.0001531 -0.0000889 0.0005735 -0.0002116 0.0011656 -0.0001805 0.0003617 -0.0001233 -0.0001997 -0.0001913 0.0007783 -0.0000802 0.0001396 0.0001957 -0.0001813 -0.0000129 0.0000107 -0.0000379 0.0003363 0.0000430 -0.0001295 -0.0000793 0.0005624 0.0000061 0.0004716 0.0000136 0.0014854 -0.0000045 -0.0001404 0.0000925 -0.0003701 0.0000683 0.0001168 0.0000250 -0.0000185 0.0000902 -0.0000778 -0.0000090 0.0002060 -0.0000571 0.0004980 -0.0000919 0.0003214 0.0001217 0.0002434 -0.0002767 0.0002573 -0.0005521 0.0007775 -0.0000220 0.0001942 -0.0002893 0.0006146 0.0000646 0.0006697 0.0007298 -0.0004491 -0.0011995 -0.0006505 -0.0005512 0.0007982 0.0002426 -0.0003228 0.0058165 -0.0031127 0.0001968 -0.0003467 -0.0000252 -0.0000264 -0.0000387 -0.0000516 0.0000308 0.0002421 -0.0000194 0.0001793 0.0000790 -0.0001591 -0.0001183 -0.0000139 0.0000461 0.0000147 -0.0000108 -0.0002461 -0.0000724 -0.0000516 0.0000304 -0.0002412 -0.0000934 -0.0000583 0.0000445 -0.0000767 0.0000996 0.0002450 0.0000664 -0.0000998 0.0000055 -0.0001204 -0.0000428 -0.0001470 -0.0001400 -0.0000460 -0.0000520 -0.0000618 -0.0000245 -0.0001552 -0.0000045 0.0000129 -0.0000191 -0.0000469 -0.0000100 -0.0001576 -0.0000210 -0.0000167 0.0000735 0.0007183 -0.0037806 0.0040840 0.0000139 0.0009663 -0.0000535 0.0003021 -0.0000162 0.0005372 0.0000350 0.0001683 0.0000076 0.0004006 -0.0013343 0.0002679 0.0000959 0.0001674 -0.0001037 0.0001828 0.0000198 0.0004473 -0.0000879 0.0002887
-0.0000765 0.0001550 -0.0000384 -0.0002050 -0.0000890 0.0004757 -0.0002408 0.0010562 -0.0001248 0.0001466 -0.0000794 -0.0002969 -0.0002074 0.0007251 -0.0000582 0.0000262 0.0002067 -0.0003450 0.0000103 -0.0001387 -0.0000144 0.0001908 0.0000924 -0.0002781 -0.0000685 0.0004222 0.0000028 0.0003861 0.0000115 0.0013581 0.0000197 -0.0002350 0.0001015 -0.0005411 0.0000951 -0.0000142 0.0000444 -0.0001821 0.0001009 -0.0002202 0.0000116 0.0000106 -0.0000406 0.0002971 -0.0000675 0.0001577 -0.0001675 0.0002553 -0.0003451 0.0000622 -0.0003002 0.0004697 0.0000033 -0.0000789 -0.0002949 0.0002554 0.0000862 0.0003659 0.0005078 -0.0006327 -0.0109603 0.0022639 -0.0001978 -0.0000030 0.0003003 -0.0006415 0.0037878 -0.0029127 0.0003409 -0.0007196 -0.0000262 0.0001184 -0.0000175 0.0000499 0.0000120 0.0003813 -0.0000224 0.0003345 0.0000494 0.0000405 -0.0001575 0.0001748 0.0000362 0.0002016 -0.0000233 -0.0000074 -0.0000642 0.0000757 0.0000130 -0.0000861 -0.0001084 0.0000667 0.0000168 0.0000637 0.0001003 0.0002882 0.0000556 0.0000114 0.0000029 -0.0000966 -0.0000211 -0.0001245 -0.0001056 -0.0000166 -0.0000179 -0.0000482 -0.0000323 -0.0001037 -0.0000043 0.0000437 -0.0000308 -0.0000303 -0.0000110 -0.0001642 -0.0000267 -0.0000459 0.0000981 0.0006845 0.0007608 0.0006450 -0.0000258 0.0008946 -0.0000450 0.0002027 0.0000272 0.0004568 -0.0000800 0.0002229 0.0000543 0.0002902 -0.0000584 -0.0001010 0.0001001 0.0000695 -0.0000954 0.0000917 0.0000280 0.0003126 -0.0000890 0.0002019
-0.0000719 0.0000003 -0.0000367 -0.0003108 -0.0000741 0.0002930 -0.0002147 0.0008377 -0.0001124 -0.0000890 -0.0000567 -0.0004612 -0.0002013 0.0005847 -0.0000631 -0.0001594 0.0002186 -0.0005966 0.0000517 -0.0003915 -0.0000014 -0.0000802 0.0001240 -0.0004951 -0.0000321 0.0002357 -0.0000050 0.0001804 0.0000075 0.0011986 0.0000467 -0.0003328 0.0001277 -0.0006897 0.0001162 -0.0001626 0.0000845 -0.0003379 0.0001132 -0.0003507 0.0000574 -0.0002029 -0.0000129 0.0002811 -0.0000664 0.0001155 -0.0001850 0.0001823 -0.0003391 0.0002516 -0.0000102 0.0002806 0.0000059 0.0000518 -0.0000695 -0.0000294 0.0000667 0.0005973 -0.0001650 0.0007141 -0.0099814 0.0047660 0.0000865 0.0000363 0.0003183 -0.0003564 -0.0007770 0.0030605 0.0001934 -0.0004114 -0.0000192 0.0000061 0.0000408 -0.0000696 0.0000201 0.0002386 -0.0000220 0.0002163 0.0000510 -0.0001348 -0.0001638 0.0000733 0.0000518 0.0000503 -0.0000133 -0.0001807 -0.0000544 -0.0000431 0.0000041 -0.0002524 -0.0001182 -0.0000341 -0.0000021 -0.0000027 0.0001047 0.0002590 0.0000679 -0.0000966 0.0000024 -0.0001335 0.0000088 -0.0003479 -0.0000741 -0.0001376 -0.0000432 -0.0001248 -0.0000674 -0.0001812 0.0000130 -0.0000716 -0.0000177 -0.0001441 0.0000005 -0.0002553 -0.0000221 -0.0001964 0.0002163 0.0004033 -0.0005602 0.0013956 0.0000113 0.0005712 -0.0000193 -0.0000439 0.0000376 0.0002886 -0.0001262 0.0001375 0.0000643 0.0000976 -0.0064510 0.0055358 0.0000851 -0.0001033 -0.0000812 -0.0000742 0.0000758 0.0000119 -0.0000713 0.0000202
-0.0000747 0.0001381 -0.0000403 -0.0002510 -0.0000796 0.0004463 -0.0002244 0.0009588 -0.0001835 0.0002020 -0.0000656 -0.0003927 -0.0001914 0.0006132 -0.0000761 -0.0000457 0.0002126 -0.0003157 0.0000351 -0.0001155 -0.0000453 0.0002190 0.0001030 -0.0002546 -0.0000421 0.0003788 0.0000048 0.0002857 -0.0000158 0.0013419 0.0000126 -0.0001846 0.0001067 -0.0004507 0.0000739 0.0000549 0.0000802 -0.0001334 0.0001015 -0.0001281 0.0000280 0.0001210 -0.0000267 0.0004019 -0.0000588 0.0002591 -0.0001842 0.0002317 -0.0004112 0.0002913 0.0000710 0.0000954 0.0000232 -0.0000136 -0.0000890 0.0000778 0.0000856 0.0005613 0.0000242 0.0005328 -0.0062511 0.0078381 0.0006832 -0.0009690 0.0003242 -0.0004947 0.0011042 0.0020830 0.0001410 -0.0004482 -0.0000093 -0.0001744 0.0000312 -0.0001914 0.0000380 0.0000450 -0.0000242 0.0000381 0.0000713 -0.0003499 -0.0001393 -0.0001025 0.0000572 -0.0001629 0.0000172 -0.0004416 -0.0000572 -0.0001615 0.0000313 -0.0003975 -0.0001058 -0.0001327 -0.0000115 -0.0000809 0.0001048 0.0001960 0.0000738 -0.0002121 0.0000017 -0.0001937 -0.0000007 -0.0003827 -0.0000901 -0.0001836 -0.0000578 -0.0001863 -0.0000480 -0.0002370 0.0000111 -0.0001125 0.0000107 -0.0002058 0.0000035 -0.0002892 -0.0000221 -0.0002267 0.0002182 0.0004042 -0.0029669 0.0032737 0.0000711 0.0006624 0.0000026 0.0000374 0.0000167 0.0003901 -0.0000832 0.0001840 0.0000596 0.0001185 -0.0095406 0.0088263 0.0000685 0.0000151 -0.0000517 -0.0000096 0.0000545 0.0001323 -0.0000593 0.0000938
-0.0000669 0.0000921 -0.0000312 -0.0002809 -0.0001057 0.0004006 -0.0002237 0.0008654 -0.0001797 0.0000534 -0.0000705 -0.0004396 -0.0001938 0.0005676 -0.0000475 -0.0001709 0.0002275 -0.0004426 0.0000179 -0.0002244 -0.0000159 0.0001001 0.0001348 -0.0003762 -0.0000462 0.0002446 0.0000225 0.0002151 -0.0000159 0.0012099 0.0000437 -0.0002997 0.0001042 -0.0005952 0.0000882 -0.0000805 0.0001118 -0.0003079 0.0001361 -0.0002746 0.0000280 -0.0000227 -0.0000211 0.0002447 -0.0000372 0.0001285 -0.0000496 0.0000061 -0.0004136 0.0000902 -0.0001286 0.0001294 0.0000716 -0.0002640 0.0001683 -0.0001403 0.0000963 0.0002788 0.0005428 -0.0004330 -0.0021896 0.0005854 0.0009684 -0.0013225 0.0003083 -0.0007432 0.0018447 -0.0016502 0.0001967 -0.0007259 -0.0000161 -0.0000850 -0.0000037 -0.0001108 0.0000265 0.0001310 -0.0000262 0.0001410 0.0000557 -0.0001760 -0.0001356 0.0000202 0.0000425 -0.0000310 0.0000115 -0.0002430 -0.0000825 -0.0000110 0.0000277 -0.0001830 -0.0001029 -0.0000074 0.0000555 -0.0000326 0.0001017 0.0002120 0.0000572 -0.0000946 -0.0000023 -0.0001819 -0.0000038 -0.0001634 -0.0000994 -0.0000488 -0.0000277 -0.0001634 0.0000020 -0.0001727 0.0000145 -0.0000224 0.0000118 -0.0001293 -0.0000039 -0.0002397 -0.0000333 -0.0001263 0.0001598 0.0006550 0.0009448 0.0010563 0.0000741 0.0010113 -0.0000518 0.0003616 -0.0000262 0.0006325 -0.0000776 0.0003856 0.0000751 0.0002451 -0.0042321 0.0041973 0.0000577 0.0002279 -0.0000373 0.0001536 0.0000380 0.0003507 -0.0000856 0.0002607
-0.0000510 -0.0000390 -0.0000207 -0.0003807 -0.0001043 0.0002489 -0.0001960 0.0006873 -0.0001332 -0.0001791 -0.0000603 -0.0005672 -0.0001816 0.0004521 -0.0000568 -0.0003201 0.0002527 -0.0006966 0.0000231 -0.0004676 0.0000243 -0.0001562 0.0001868 -0.0005719 -0.0000235 0.0000416 0.0000217 0.0000250 -0.0000038 0.0010034 0.0000720 -0.0004361 0.0001444 -0.0008374 0.0001485 -0.0003433 0.0001512 -0.0005364 0.0001677 -0.0004683 0.0000657 -0.0002958 0.0000048 0.0001385 -0.0000363 0.0000188 0.0000715 -0.0001428 -0.0004256 0.0002357 -0.0001806 0.0000735 0.0000831 -0.0001609 0.0001814 -0.0001347 0.0000691 0.0004506 0.0007114 -0.0004822 -0.0029569 0.0058049 0.0006141 -0.0002860 0.0003017 -0.0004675 0.0011845 -0.0020534 0.0001594 -0.0005071 -0.0000062 -0.0000323 0.0000135 -0.0000059 0.0000188 0.0001682 -0.0000285 0.0002070 0.0000448 -0.0001264 -0.0001372 0.0000967 0.0000439 0.0000490 -0.0000328 -0.0001075 -0.0000733 0.0000183 -0.0000086 -0.0001400 -0.0001106 0.0000317 0.0000434 0.0000068 0.0001028 0.0002389 0.0000586 -0.0000590 -0.0000075 -0.0001644 -0.0000289 -0.0001515 -0.0000944 -0.0000182 -0.0000280 -0.0001532 -0.0000217 -0.0001609 0.0000217 -0.0000333 0.0000041 -0.0001367 -0.0000029 -0.0002528 -0.0000398 -0.0001613 0.0002031 0.0005870 0.0002872 0.0016834 0.0000466 0.0008676 -0.0000488 0.0002587 -0.0000092 0.0005109 -0.0000796 0.0003036 0.0000554 0.0001877 -0.0008831 0.0001626 0.0000527 0.0001481 -0.0000324 0.0000344 0.0000806 0.0001760 -0.0000918 0.0001646
-0.0000546 0.0000891 -0.0000225 -0.0003337 -0.0000866 0.0003654 -0.0002013 0.0007872 -0.0001071 0.0000104 -0.0000205 -0.0005313 -0.0001981 0.0004889 -0.0000980 -0.0001542 0.0002532 -0.0004473 0.0000287 -0.0001871 0.0000042 0.0000838 0.0001396 -0.0003295 -0.0000479 0.0002367 0.0000097 0.0001630 -0.0000144 0.0011590 0.0000392 -0.0002780 0.0001433 -0.0005760 0.0001248 -0.0001071 0.0001430 -0.0003279 0.0001348 -0.0002033 0.0000592 0.0000169 -0.0000079 0.0003847 -0.0000488 0.0002606 0.0000126 0.0000645 -0.0003787 0.0005369 -0.0000554 0.0000264 0.0000554 0.0000439 -0.0002288 0.0002705 0.0000899 0.0006277 0.0004384 -0.0000466 -0.0048651 0.0101171 0.0003785 -0.0002285 0.0002793 -0.0004847 -0.0033819 0.0014807 0.0001434 -0.0004845 0.0000189 -0.0001716 0.0000467 -0.0001051 0.0000301 0.0000239 -0.0000328 0.0000759 0.0000439 -0.0003116 -0.0001264 -0.0000313 0.0000530 -0.0001079 -0.0000443 -0.0002911 -0.0000610 -0.0001266 -0.0000006 -0.0003499 -0.0000923 -0.0001014 -0.0000347 -0.0000564 0.0001069 0.0001860 0.0000790 -0.0001977 -0.0000069 -0.0002128 -0.0000307 -0.0003714 -0.0000829 -0.0001470 -0.0000243 -0.0002541 -0.0000425 -0.0002670 0.0000288 -0.0001800 0.0000076 -0.0002497 0.0000117 -0.0003455 -0.0000301 -0.0003004 0.0001948 0.0003970 -0.0008880 0.0020536 0.0001014 0.0004763 -0.0000716 0.0000088 0.0000533 0.0002328 -0.0000358 0.0000454 0.0000768 -0.0000128 0.0014386 -0.0010874 0.0001098 -0.0000654 0.0000108 -0.0001679 0.0001371 -0.0000864 -0.0000675 -0.0000094
-0.0000601 0.0001007 -0.0000257 -0.0003294 -0.0000902 0.0003451 -0.0002076 0.0007273 -0.0000919 -0.0000871 0.0000099 -0.0005877 -0.0001931 0.0004446 -0.0000983 -0.0001970 0.0002538 -0.0004982 0.0000328 -0.0002160 0.0000175 0.0000039 0.0001245 -0.0003688 -0.0000609 0.0001912 0.0000283 0.0001480 -0.0000254 0.0010872 0.0000471 -0.0003677 0.0001461 -0.0006740 0.0001179 -0.0001656 0.0001289 -0.0004339 0.0001166 -0.0002512 0.0000481 -0.0000719 -0.0000066 0.0002609 -0.0000209 0.0001607 0.0000309 -0.0001324 -0.0002025 0.0004031 0.0002484 -0.0003798 0.0000121 -0.0001037 -0.0002963 0.0002796 0.0001149 0.0003973 0.0002171 0.0002044 0.0062643 -0.0113840 -0.0001115 -0.0002678 0.0002868 -0.0007553 -0.0065936 0.0071459 0.0001736 -0.0006613 0.0000243 -0.0002613 0.0000693 -0.0002482 0.0000347 -0.0000542 -0.0000353 -0.0000053 0.0000634 -0.0003636 -0.0001038 -0.0000995 0.0000512 -0.0001970 -0.0000237 -0.0003711 -0.0000440 -0.0001429 0.0000106 -0.0003707 -0.0000918 -0.0001237 0.0000155 -0.0001023 0.0001066 0.0001373 0.0000744 -0.0002115 -0.0000053 -0.0002536 -0.0000240 -0.0003414 -0.0000897 -0.0001525 -0.0000135 -0.0002992 -0.0000188 -0.0002790 0.0000228 -0.0001954 -0.0000006 -0.0002438 0.0000159 -0.0003527 -0.0000251 -0.0002792 0.0000985 0.0005512 0.0002385 0.0012815 0.0001632 0.0006080 -0.0001614 0.0002244 0.0000761 0.0003271 -0.0000110 0.0000964 0.0001000 0.0000450 0.0011318 -0.0009114 0.0001540 0.0000392 -0.0000026 -0.0000557 0.0001360 0.0000689 -0.0000549 0.0000901
-0.0000549 -0.0000034 -0.0000111 -0.0004352 -0.0000975 0.0002371 -0.0002284 0.0006019 -0.0000742 -0.0002499 -0.0000104 -0.0006861 -0.0001472 0.0003445 -0.0000646 -0.0003379 0.0002609 -0.0007051 -0.0000010 -0.0004144 0.0000378 -0.0002070 0.0002275 -0.0006255 -0.0000185 -0.0000148 0.0000407 -0.0000219 -0.0000228 0.0009067 0.0000452 -0.0005109 0.0001732 -0.0009339 0.0001768 -0.0004435 0.0001506 -0.0006645 0.0001453 -0.0004541 0.0000592 -0.0003222 0.0000167 0.0000354 0.0000109 -0.0000406 0.0002049 -0.0004175 -0.0000992 0.0001298 -0.0000744 -0.0003205 0.0000155 -0.0002006 0.0001962 -0.0003394 0.0000989 0.0003445 0.0003520 0.0001794 0.0088029 -0.0098642 -0.0005019 0.0002692 0.0003310 -0.0006530 -0.0021493 0.0038837 0.0001105 -0.0004745 0.0000124 -0.0001316 0.0000139 -0.0001454 0.0000318 0.0000500 -0.0000309 0.0001101 0.0000670 -0.0001664 -0.0001206 0.0000615 0.0000320 -0.0000244 -0.0000312 -0.0001281 -0.0000647 0.0000323 0.0000095 -0.0001604 -0.0000889 0.0000186 -0.0000120 0.0000389 0.0001040 0.0001795 0.0000570 -0.0000558 -0.0000072 -0.0002192 -0.0000341 -0.0000949 -0.0000878 -0.0000101 -0.0000116 -0.0001932 -0.0000426 -0.0001470 0.0000062 -0.0000521 -0.0000033 -0.0001434 0.0000038 -0.0002720 -0.0000376 -0.0001372 0.0000492 0.0008339 -0.0014413 0.0026245 0.0001814 0.0009926 -0.0001451 0.0005011 0.0000072 0.0006051 -0.0000683 0.0003717 0.0000881 0.0002429 0.0015485 -0.0020810 0.0001267 0.0002276 -0.0000386 0.0001192 0.0000648 0.0002919 -0.0000533 0.0001828
-0.0000507 0.0000802 -0.0000037 -0.0004256 -0.0001031 0.0003635 -0.0002611 0.0007340 -0.0000970 -0.0000634 -0.0000264 -0.0006111 -0.0001618 0.0004048 -0.0000231 -0.0002690 0.0002557 -0.0004919 -0.0000477 -0.0001762 0.0000030 0.0000307 0.0002025 -0.0004702 -0.0000139 0.0001115 0.0000372 0.0000700 -0.0000235 0.0010448 0.0000339 -0.0004080 0.0001502 -0.0007057 0.0001694 -0.0002812 0.0001691 -0.0004997 0.0001385 -0.0002547 0.0000630 -0.0000562 0.0000084 0.0002692 -0.0000038 0.0001606 0.0000655 -0.0000897 -0.0001940 0.0004933 -0.0003151 0.0001964 0.0000284 0.0001396 0.0004668 -0.0003204 0.0000716 0.0007742 0.0002919 0.0008423 0.0121165 -0.0170889 0.0000377 0.0001592 0.0003186 -0.0003305 -0.0011576 0.0005063 0.0000679 -0.0002765 -0.0000138 -0.0000524 -0.0000104 -0.0000350 0.0000250 0.0000747 -0.0000305 0.0001514 0.0000512 -0.0001325 -0.0001591 0.0001207 0.0000265 0.0000285 -0.0000222 -0.0000890 -0.0000763 0.0000460 0.0000109 -0.0001813 -0.0000962 0.0000377 -0.0000772 0.0000910 0.0001015 0.0002009 0.0000590 -0.0000268 -0.0000098 -0.0001974 -0.0000104 -0.0001470 -0.0000913 0.0000134 -0.0000100 -0.0001760 -0.0000703 -0.0001271 0.0000125 -0.0000609 0.0000070 -0.0001547 0.0000079 -0.0002819 -0.0000410 -0.0001508 -0.0000007 0.0008204 -0.0025142 0.0031723 0.0001497 0.0008364 -0.0000876 0.0003243 -0.0000272 0.0005211 -0.0001486 0.0003923 0.0001153 0.0001473 0.0001856 -0.0002227 0.0001174 0.0001272 -0.0000077 0.0000171 0.0000510 0.0001736 -0.0000547 0.0000657
-0.0000538 0.0001759 -0.0000090 -0.0003509 -0.0001012 0.0004181 -0.0002536 0.0007779 -0.0000565 -0.0001024 -0.0000418 -0.0005632 -0.0001741 0.0004270 -0.0000547 -0.0002275 0.0002365 -0.0004394 -0.0000659 -0.0000967 -0.0000111 0.0000819 0.0001992 -0.0004484 -0.0000282 0.0001165 0.0000440 0.0001269 -0.0000289 0.0010644 0.0000212 -0.0004057 0.0001272 -0.0007006 0.0001438 -0.0002725 0.0001371 -0.0005045 0.0001345 -0.0002562 0.0000695 -0.0000870 0.0000040 0.0002096 -0.0000011 0.0001312 -0.0001193 0.0000843 -0.0001322 0.0005467 0.0001278 0.0000122 0.0000135 0.0000396 0.0003348 -0.0001062 0.0000837 0.0005938 0.0003766 0.0004425 -0.0060156 0.0127811 0.0003049 0.0001044 0.0002803 -0.0004652 -0.0090367 0.0048259 0.0002279 -0.0005754 -0.0000175 -0.0001600 0.0000048 -0.0001175 0.0000363 -0.0000507 -0.0000335 0.0000235 0.0000461 -0.0003034 -0.0001613 -0.0000025 0.0000344 -0.0001383 0.0000083 -0.0003148 -0.0000480 -0.0001125 0.0000178 -0.0003792 -0.0000777 -0.0001120 -0.0000579 -0.0000632 0.0000973 0.0001370 0.0000754 -0.0001552 -0.0000125 -0.0002408 0.0000064 -0.0003471 -0.0001087 -0.0001077 -0.0000084 -0.0002774 -0.0000478 -0.0002195 0.0000246 -0.0002041 0.0000082 -0.0002476 0.0000215 -0.0003578 -0.0000345 -0.0002561 -0.0000109 0.0005985 0.0000838 0.0011997 0.0001317 0.0004595 -0.0000265 0.0000258 -0.0000212 0.0003099 -0.0001267 0.0001953 0.0001727 -0.0000836 -0.0039080 0.0038046 0.0001022 0.0000054 -0.0000190 -0.0001195 0.0001138 -0.0000094 -0.0000549 -0.0000215
-0.0000491 0.0001090 -0.0000057 -0.0003802 -0.0001085 0.0003423 -0.0002280 0.0006938 -0.0000739 -0.0002095 -0.0000147 -0.0006796 -0.0001601 0.0003732 -0.0001018 -0.0002722 0.0002333 -0.0006042 -0.0000524 -0.0002783 0.0000379 -0.0001492 0.0002361 -0.0006005 -0.0000250 0.0000145 0.0000416 0.0000472 -0.0000243 0.0009776 0.0000226 -0.0005212 0.0001328 -0.0008896 0.0001528 -0.0004396 0.0001448 -0.0006712 0.0001474 -0.0004175 0.0000795 -0.0003104 0.0000190 0.0000391 0.0000161 -0.0000141 -0.0002037 0.0000199 0.0000199 0.0003888 0.0001724 -0.0001743 0.0000434 -0.0002567 0.0000703 -0.0001370 0.0000773 0.0002681 0.0005713 -0.0004608 -0.0159658 0.0288302 -0.0003066 0.0003055 0.0003092 -0.0006557 -0.0091284 0.0069898 0.0002198 -0.0006105 -0.0000082 -0.0001989 -0.0000461 -0.0001614 0.0000504 -0.0000734 -0.0000330 -0.0000214 0.0000455 -0.0002742 -0.0001439 -0.0000108 0.0000277 -0.0001666 0.0000106 -0.0002975 -0.0000674 -0.0000767 0.0000538 -0.0003719 -0.0000511 -0.0001294 -0.0000378 -0.0000826 0.0000922 0.0001047 0.0000709 -0.0001471 -0.0000109 -0.0002586 0.0000010 -0.0002571 -0.0000951 -0.0001020 0.0000145 -0.0002921 -0.0000681 -0.0001492 0.0000140 -0.0001879 0.0000091 -0.0002329 0.0000178 -0.0003377 -0.0000364 -0.0001928 0.0000842 0.0006049 -0.0004792 0.0020301 0.0001475 0.0006751 0.0000406 0.0001656 -0.0000153 0.0004124 -0.0001554 0.0002466 0.0001856 -0.0000287 0.0000802 0.0002984 0.0000866 0.0001393 -0.0000452 -0.0000024 0.0001015 0.0001388 -0.0000617 0.0001038
-0.0000398 0.0001050 -0.0000011 -0.0003876 -0.0001222 0.0004152 -0.0002478 0.0007778 -0.0001184 -0.0000611 0.0000058 -0.0006720 -0.0001613 0.0004117 -0.0001282 -0.0002111 0.0002333 -0.0004805 -0.0000512 -0.0001988 0.0000473 -0.0000815 0.0002425 -0.0005441 -0.0000232 0.0001284 0.0000229 0.0001083 -0.0000218 0.0011310 0.0000409 -0.0004882 0.0001343 -0.0007641 0.0001435 -0.0003191 0.0001640 -0.0005481 0.0001364 -0.0002705 0.0000632 -0.0001193 0.0000120 0.0002520 0.0000017 0.0001526 -0.0001357 -0.0000042 0.0000134 0.0008397 -0.0000566 0.0000545 0.0000357 0.0000518 -0.0000882 0.0002526 0.0000469 0.0006321 0.0001875 0.0001746 0.0040584 0.0076886 -0.0004503 0.0002878 0.0002876 -0.0002695 -0.0123977 0.0092911 0.0000765 -0.0002073 0.0000070 -0.0000761 0.0000129 -0.0001090 0.0000409 0.0000774 -0.0000283 0.0001133 0.0000400 -0.0000514 -0.0001670 0.0001696 0.0000196 -0.0000000 -0.0000220 -0.0000159 -0.0000737 0.0000756 0.0000642 -0.0001598 -0.0000631 0.0000374 -0.0000073 0.0000464 0.0000846 0.0001382 0.0000539 0.0000242 -0.0000073 -0.0002245 -0.0000100 0.0000106 -0.0000782 0.0000564 0.0000285 -0.0002041 -0.0000909 -0.0000026 0.0000089 -0.0000500 0.0000067 -0.0001248 0.0000005 -0.0002405 -0.0000495 -0.0000343 0.0001349 0.0007953 -0.0024719 0.0034046 0.0001290 0.0010874 0.0000080 0.0004702 0.0000299 0.0005545 -0.0002781 0.0004935 0.0001494 0.0001359 0.0017463 -0.0019071 0.0001381 0.0001803 -0.0000649 0.0000968 0.0000597 0.0002234 -0.0000646 0.0001218
-0.0000478 0.0002665 -0.0000048 -0.0002967 -0.0001201 0.0005214 -0.0002696 0.0009042 -0.0001071 0.0000036 0.0000114 -0.0006101 -0.0001585 0.0004738 -0.0001743 -0.0000884 0.0002148 -0.0003633 -0.0000107 -0.0001120 0.0000238 0.0000337 0.0002523 -0.0005311 -0.0000422 0.0001871 0.0000321 0.0001977 -0.0000314 0.0012005 0.0000376 -0.0004535 0.0001354 -0.0007367 0.0001247 -0.0002479 0.0001576 -0.0005351 0.0001288 -0.0002236 0.0000545 -0.0000693 0.0000050 0.0002305 0.0000124 0.0001467 0.0001417 -0.0001777 -0.0000775 0.0009812 -0.0000895 0.0002770 0.0000186 0.0000313 0.0000563 0.0000542 0.0000740 0.0005406 0.0000522 0.0003152 0.0054942 0.0057033 -0.0005397 0.0001797 0.0002698 -0.0003767 -0.0012105 0.0002348 0.0001377 -0.0003372 0.0000137 -0.0000696 0.0000668 -0.0001073 0.0000378 0.0000785 -0.0000283 0.0001240 0.0000225 -0.0000588 -0.0001736 0.0001763 0.0000127 0.0000198 -0.0000228 -0.0000272 -0.0000529 0.0000551 0.0000574 -0.0001762 -0.0000652 0.0000384 0.0000539 0.0000031 0.0000837 0.0001604 0.0000558 0.0000316 -0.0000082 -0.0002046 -0.0000134 -0.0000324 -0.0000700 0.0000427 -0.0000060 -0.0001660 -0.0000940 -0.0000281 0.0000151 -0.0000664 0.0000006 -0.0001399 0.0000043 -0.0002465 -0.0000492 -0.0000508 0.0001907 0.0006785 0.0005321 0.0006147 0.0001378 0.0008711 0.0000209 0.0002951 0.0000072 0.0004577 -0.0002467 0.0004357 0.0001352 0.0000668 -0.0029666 0.0025439 0.0001654 0.0000621 -0.0000494 0.0000116 0.0000964 0.0000485 -0.0000794 0.0000240
