-0.0000000 -0.0000000 -0.0000000 -0.0000000 -0.0000000 -0.0000000 -0.0000000 -0.0000000 -0.0000000 -0.0000000 -0.0000000 -0.0000000 -0.0000000 -0.0000000 -0.0000000 -0.0000000 -0.0000000 -0.0000000 -0.0000000 -0.0000000 -0.0000000 -0.0000000 -0.0000000 -0.0000000 -0.0000000 -0.0000000 -0.0000000 -0.0000000 -0.0000000 -0.0000000 -0.0000000 -0.0000000 -0.0000000 -0.0000000 -0.0000000 -0.0000000 -0.0000000 -0.0000000 -0.0000000 -0.0000000 -0.0000000 -0.0000000 -0.0000000 -0.0000000 -0.0000000 -0.0000000 -0.0000000 -0.0000000 -0.0000000 -0.0000000 -0.0000000 -0.0000000 -0.0000000 -0.0000000 -0.0000000 -0.0000000 -0.0000000 -0.0000000 -0.0000000 -0.0000000 -0.0000000 -0.0000000 -0.0000000 -0.0000000 -0.0000000 -0.0000000 -0.0000000 -0.0000000 -0.0000000 -0.0000000 -0.0000000 -0.0000000 -0.0000000 -0.0000000 -0.0000000 -0.0000000 -0.0000000 -0.0000000 -0.0000000 -0.0000000 -0.0000000 -0.0000000 -0.0000000 -0.0000000 -0.0000000 -0.0000000 -0.0000000 -0.0000000 -0.0000000 -0.0000000 -0.0000000 -0.0000000 -0.0000000 -0.0000000 -0.0000000 -0.0000000 -0.0000000 -0.0000000 -0.0000000 -0.0000000 -0.0000000 -0.0000000 -0.0000000 -0.0000000 -0.0000000 -0.0000000 -0.0000000 -0.0000000 -0.0000000 -0.0000000 -0.0000000 -0.0000000 -0.0000000 -0.0000000 -0.0000000 -0.0000000 -0.0000000 -0.0000000 -0.0000000 -0.0000000 -0.0000000 -0.0000000 -0.0000000 -0.0000000 -0.0000000 -0.0000000 -0.0000000 -0.0000000 -0.0000000 -0.0000000 -0.0000000 -0.0000000 -0.0000000 -0.0000000 -0.0000000 -0.0000000 -0.0000000 -0.0000000 -0.0000000 -0.0000000 -0.0000000 -0.0000000 -0.0000000 -0.0000000 -0.0000000 -0.0000000 -0.0000000 -0.0000000 -0.0000000 -0.0000000 -0.0000000 -0.0000000 -0.0000000 -0.0000000 -0.0000000 -0.0000000 -0.0000000 -0.0000000 -0.0000000 -0.0000000 -0.0000000 -0.0000000 -0.0000000 -0.0000000 -0.0000000 -0.0000000 -0.0000000 -0.0000000 -0.0000000 -0.0000000 -0.0000000 -0.0000000 -0.0000000 -0.0000000 -0.0000000 -0.0000000 -0.0000000 -0.0000000 -0.0000000 -0.0000000 -0.0000000 -0.0000000 -0.0000000 -0.0000000 -0.0000000 -0.0000000 -0.0000000 -0.0000000 -0.0000000 -0.0000000 -0.0000000 -0.0000000 -0.0000000 -0.0000000 -0.0000000 -0.0000000 -0.0000000 -0.0000000 -0.0000000 -0.0000000 -0.0000000 -0.0000000 -0.0000000 -0.0000000 -0.0000000 -0.0000000 -0.0000000 -0.0000000 -0.0000000 -0.0000000 -0.0000000 -0.0000000 -0.0000000 -0.0000000 -0.0000000 -0.0000000
-0.0000000 -0.0000000 -0.0000000 -0.0000000 -0.0000000 -0.0000000 -0.0000000 -0.0000000 -0.0000000 -0.0000000 -0.0000000 -0.0000000 -0.0000000 -0.0000000 -0.0000000 -0.0000000 -0.0000000 -0.0000000 -0.0000000 -0.0000000 -0.0000000 -0.0000000 -0.0000000 -0.0000000 -0.0000000 -0.0000000 -0.0000000 -0.0000000 -0.0000000 -0.0000000 -0.0000000 -0.0000000 -0.0000000 -0.0000000 -0.0000000 -0.0000000 -0.0000000 -0.0000000 -0.0000000 -0.0000000 -0.0000000 -0.0000000 -0.0000000 -0.0000000 -0.0000000 -0.0000000 -0.0000000 -0.0000000 -0.0000000 -0.0000000 -0.0000000 -0.0000000 -0.0000000 -0.0000000 -0.0000000 -0.0000000 -0.0000000 -0.0000000 -0.0000000 -0.0000000 -0.0000000 -0.0000000 -0.0000000 -0.0000000 -0.0000000 -0.0000000 -0.0000000 -0.0000000 -0.0000000 -0.0000000 -0.0000000 -0.0000000 -0.0000000 -0.0000000 -0.0000000 -0.0000000 -0.0000000 -0.0000000 -0.0000000 -0.0000000 -0.0000000 -0.0000000 -0.0000000 -0.0000000 -0.0000000 -0.0000000 -0.0000000 -0.0000000 -0.0000000 -0.0000000 -0.0000000 -0.0000000 -0.0000000 -0.0000000 -0.0000000 -0.0000000 -0.0000000 -0.0000000 -0.0000000 -0.0000000 -0.0000000 -0.0000000 -0.0000000 -0.0000000 -0.0000000 -0.0000000 -0.0000000 -0.0000000 -0.0000000 -0.0000000 -0.0000000 -0.0000000 -0.0000000 -0.0000000 -0.0000000 -0.0000000 -0.0000000 -0.0000000 -0.0000000 -0.0000000 -0.0000000 -0.0000000 -0.0000000 -0.0000000 -0.0000000 -0.0000000 -0.0000000 -0.0000000 -0.0000000 -0.0000000 -0.0000000 -0.0000000 -0.0000000 -0.0000000 -0.0000000 -0.0000000 -0.0000000 -0.0000000 -0.0000000 -0.0000000 -0.0000000 -0.0000000 -0.0000000 -0.0000000 -0.0000000 -0.0000000 -0.0000000 -0.0000000 -0.0000000 -0.0000000 -0.0000000 -0.0000000 -0.0000000 -0.0000000 -0.0000000 -0.0000000 -0.0000000 -0.0000000 -0.0000000 -0.0000000 -0.0000000 -0.0000000 -0.0000000 -0.0000000 -0.0000000 -0.0000000 -0.0000000 -0.0000000 -0.0000000 -0.0000000 -0.0000000 -0.0000000 -0.0000000 -0.0000000 -0.0000000 -0.0000000 -0.0000000 -0.0000000 -0.0000000 -0.0000000 -0.0000000 -0.0000000 -0.0000000 -0.0000000 -0.0000000 -0.0000000 -0.0000000 -0.0000000 -0.0000000 -0.0000000 -0.0000000 -0.0000000 -0.0000000 -0.0000000 -0.0000000 -0.0000000 -0.0000000 -0.0000000 -0.0000000 -0.0000000 -0.0000000 -0.0000000 -0.0000000 -0.0000000 -0.0000000 -0.0000000 -0.0000000 -0.0000000 -0.0000000 -0.0000000 -0.0000000 -0.0000000 -0.0000000 -0.0000000 -0.0000000 -0.0000000
0.0000071 -0.0000294 -0.0000105 0.0000153 0.0000125 0.0000276 0.0000165 0.0000302 0.0000394 0.0000864 -0.0000513 -0.0001006 0.0000181 0.0000429 0.0000002 0.0000213 -0.0000103 0.0000011 0.0000158 -0.0000015 0.0000134 0.0000198 0.0000140 -0.0000031 0.0000749 0.0000385 -0.0000160 -0.0000304 -0.0000106 0.0000254 0.0000483 0.0000986 -0.0000085 -0.0000451 0.0000335 0.0000488 0.0000491 0.0001148 0.0005069 -0.0000738 0.0000154 0.0000275 0.0002019 0.0001611 0.0000691 -0.0000133 0.0000472 -0.0000437 0.0001325 0.0002832 -0.0000171 0.0000748 -0.0000022 0.0002207 -0.0000092 0.0000057 0.0000124 0.0000290 -0.0000158 -0.0000139 0.0000306 0.0001304 0.0000499 0.0000783 -0.0000421 0.0001061 -0.0000760 -0.0000118 0.0001780 -0.0002416 0.0000206 -0.0000775 0.0000399 -0.0001348 -0.0013929 0.0009255 0.0000532 0.0000186 -0.0000210 -0.0000057 0.0017796 -0.0014026 0.0000024 0.0000769 0.0000555 0.0001946 -0.0000834 0.0005058 -0.0000735 0.0001373 -0.0000540 0.0001613 0.0003172 0.0006240 -0.0000507 0.0002361 -0.0002701 0.0003345 -0.0005953 0.0007369 0.0002118 -0.0002573 -0.0018689 0.0036744 0.0000482 0.0001118 0.0003835 -0.0003344 0.0000497 -0.0000520 0.0002347 0.0005611 0.0000082 -0.0000420 0.0001179 0.0000121 0.0000176 0.0000095 -0.0000294 0.0000849 -0.0000493 0.0000410 -0.0002580 0.0003005 0.0009034 -0.0009356 -0.0044852 0.0080997 -0.0017366 0.0010022 -0.0052613 0.0056608 0.0008070 -0.0009525 -0.0000828 0.0000310 0.0001190 0.0001029 0.0008676 -0.0002898 0.0000256 0.0001730 0.0000176 -0.0000398 0.0001488 -0.0000937 -0.0002397 0.0001123 0.0015347 -0.0002871 -0.0009931 0.0009577 -0.0009577 0.0018413 -0.0010578 0.0008804 -0.0000526 0.0001368 0.0003060 -0.0001714 -0.0000240 0.0000327 -0.0004445 0.0004065 -0.0000317 0.0000693 -0.0001301 0.0001732 -0.0014839 -0.0009284 0.0002117 -0.0000443 0.0005668 -0.0004575 -0.0022347 0.0031131 -0.0001309 -0.0002119 0.0000098 0.0001214 -0.0000985 0.0000325 0.0001568 -0.0001798 0.0012141 -0.0062840 0.0001237 0.0000473 -0.0000014 0.0001396 -0.0000534 0.0001069 -0.0022125 0.0061623 0.0000391 -0.0000362 0.0000536 0.0001747 -0.0001825 0.0006429 -0.0034694 0.0071054 -0.0001401 0.0008841 0.0003303 -0.0000570 0.0000413 0.0000600 0.0000357 0.0001743 -0.0000583 0.0000849 0.0000049 -0.0000223 -0.0004738 0.0006607
0.0000191 0.0000373 0.0000054 0.0000555 0.0000899 0.0002659 0.0001688 0.0004859 0.0001449 0.0003677 -0.0001506 -0.0003360 0.0000807 0.0003018 0.0000615 0.0001868 -0.0000942 -0.0002782 0.0000311 0.0000108 0.0000494 0.0001495 0.0000287 0.0000427 0.0000991 0.0002111 -0.0001045 -0.0003378 -0.0000200 0.0000941 0.0001359 0.0001288 -0.0000477 -0.0001698 0.0000981 0.0002294 0.0001607 0.0002991 0.0003032 0.0007114 0.0000371 -0.0000306 0.0005248 0.0006264 0.0000011 0.0002095 0.0001329 -0.0003714 0.0007604 0.0007606 -0.0000068 0.0000327 0.0000288 0.0004949 0.0000284 -0.0000370 0.0000472 0.0000090 -0.0000294 -0.0002635 0.0001023 0.0002591 0.0000211 0.0001859 -0.0000358 0.0000066 -0.0001972 -0.0003380 0.0002272 -0.0004978 0.0002860 -0.0000771 0.0002828 -0.0003014 -0.0013524 0.0004539 0.0001031 -0.0000675 -0.0000013 -0.0003693 -0.0009176 0.0011013 0.0001041 0.0000708 0.0001847 0.0004323 0.0004351 0.0006295 -0.0000894 0.0000433 -0.0000330 0.0002897 -0.0030383 0.0053862 -0.0003577 0.0003999 -0.0001924 -0.0002172 -0.0021317 0.0000780 -0.0001236 -0.0001184 -0.0004425 0.0017756 0.0001149 0.0002804 0.0005868 -0.0004490 0.0000052 -0.0002688 0.0006806 0.0010412 0.0000047 -0.0001401 0.0000427 0.0000269 0.0000416 -0.0001114 -0.0001150 -0.0000401 0.0000108 0.0000759 0.0002836 -0.0002935 0.0004804 -0.0004498 -0.0172784 0.0140765 0.0017388 -0.0150276 0.0003536 0.0000160 -0.0005953 0.0000841 0.0001483 -0.0002726 -0.0007372 0.0004761 0.0005545 -0.0006529 0.0000703 0.0001973 -0.0000172 -0.0002739 0.0001569 -0.0003553 -0.0001065 -0.0002772 0.0015543 -0.0003618 0.0004304 -0.0002197 -0.0019114 0.0029030 -0.0008059 0.0004161 -0.0000445 0.0002248 0.0002060 0.0000530 -0.0001705 0.0002141 0.0000294 0.0003818 -0.0000208 0.0002288 0.0000037 0.0000429 0.0020697 -0.0028512 -0.0001885 0.0002596 0.0000607 0.0003013 -0.0037242 0.0039679 0.0003086 -0.0002963 0.0000455 0.0002566 0.0003532 -0.0004018 0.0000307 -0.0001244 -0.0008632 -0.0023323 0.0000128 0.0004686 0.0000416 0.0003071 0.0000087 -0.0000660 -0.0033178 0.0110063 0.0000431 0.0003797 0.0000910 0.0004375 -0.0016474 0.0024146 0.0002733 0.0056595 0.0004693 0.0006739 0.0003451 0.0003441 0.0001762 0.0002413 0.0001348 0.0003738 -0.0000487 0.0002052 0.0000271 0.0001243 -0.0001715 0.0005577
0.0000046 0.0001278 0.0000366 0.0001046 0.0001383 0.0004137 0.0003621 0.0012501 0.0002315 0.0005756 -0.0001550 -0.0003474 0.0001124 0.0003790 0.0001010 0.0003429 -0.0001905 -0.0005554 0.0000378 0.0000236 0.0000628 0.0002428 0.0000308 0.0000029 0.0000478 0.0001011 -0.0001996 -0.0006224 -0.0000145 0.0001235 0.0001189 -0.0000142 -0.0000787 -0.0001998 0.0001110 0.0002798 0.0001675 0.0003237 -0.0003241 0.0021419 0.0000520 -0.0000217 0.0006124 0.0009661 -0.0000742 0.0002493 0.0001009 -0.0004586 0.0009211 0.0009359 -0.0001980 -0.0002537 0.0000960 0.0005700 -0.0001452 -0.0004303 0.0000608 0.0001904 -0.0000772 -0.0004350 0.0000530 0.0001242 0.0000625 0.0000690 -0.0000423 -0.0001249 -0.0002455 -0.0004557 0.0001527 -0.0004766 0.0002158 0.0002271 0.0000151 -0.0000373 -0.0011671 0.0006761 0.0000992 -0.0001981 -0.0000514 -0.0004347 -0.0008706 0.0007965 0.0000795 -0.0001506 0.0001821 0.0004200 0.0001656 0.0005548 -0.0004130 0.0004587 -0.0000256 0.0005109 -0.0000410 -0.0000447 0.0001722 -0.0000287 0.0005005 -0.0008449 -0.0054722 0.0013669 -0.0003163 0.0003094 -0.0012928 -0.0002285 0.0000809 0.0006220 0.0001406 0.0000795 -0.0001118 -0.0002073 0.0002658 0.0010803 0.0000351 -0.0001033 0.0001908 -0.0001944 0.0000385 -0.0001945 -0.0000963 -0.0001394 0.0000980 -0.0000960 0.0002931 -0.0004600 0.0009132 -0.0009280 -0.0105572 0.0055517 0.0083946 -0.0233362 -0.0097981 0.0103613 -0.0014854 0.0019564 0.0002806 -0.0005329 -0.0031442 0.0016730 0.0009154 -0.0020625 0.0000761 -0.0001439 -0.0000160 -0.0003672 -0.0000251 -0.0001433 -0.0000616 -0.0003386 0.0005959 -0.0010864 0.0005809 -0.0008154 0.0012448 0.0006387 -0.0003565 -0.0000666 -0.0000110 0.0002359 0.0007850 -0.0003368 -0.0003750 0.0004242 0.0002550 0.0002293 0.0000409 0.0002866 -0.0000085 0.0001406 0.0042515 -0.0025365 -0.0000815 -0.0000435 -0.0001088 0.0006684 -0.0011627 0.0008928 0.0004958 -0.0005449 0.0000944 0.0002762 0.0004535 -0.0001426 -0.0001377 -0.0000078 0.0066627 -0.0076156 -0.0001411 0.0006344 0.0002242 0.0003656 0.0000238 0.0001463 -0.0049893 0.0134003 -0.0005759 0.0011141 0.0002570 0.0005755 -0.0020518 0.0026049 0.0036941 -0.0045263 -0.0001942 0.0014863 -0.0000870 0.0006405 0.0003290 0.0003759 0.0002182 0.0004852 -0.0000150 0.0000182 0.0000684 0.0001362 0.0004917 -0.0003803
-0.0000550 0.0001345 0.0000631 0.0000690 0.0001810 0.0004351 0.0008213 0.0028396 0.0002334 0.0005538 -0.0001584 -0.0002797 0.0001345 0.0003232 0.0001699 0.0004616 -0.0001643 -0.0005645 0.0000765 0.0000629 0.0000739 0.0002081 0.0000299 -0.0000146 0.0000727 -0.0000246 -0.0002420 -0.0008522 -0.0000179 0.0000530 0.0001306 -0.0001327 -0.0000974 -0.0003482 0.0001553 0.0002779 0.0001701 0.0002979 0.0010736 0.0009173 0.0000589 -0.0000983 0.0004899 0.0005331 0.0000198 0.0000848 0.0000434 -0.0003138 0.0005321 0.0004508 -0.0003834 -0.0001207 0.0002722 0.0001817 -0.0003444 -0.0005203 0.0000581 0.0002838 -0.0001179 -0.0004557 0.0000315 0.0001150 0.0001189 -0.0001216 -0.0000642 -0.0002853 -0.0002979 -0.0005516 -0.0001723 -0.0001195 -0.0004746 0.0005499 -0.0006955 0.0005474 -0.0011795 0.0000706 0.0001561 -0.0000568 -0.0000665 -0.0005315 0.0010804 -0.0011819 0.0001431 -0.0003527 0.0001618 0.0002562 -0.0002538 0.0006353 -0.0002544 0.0002576 0.0000458 0.0001811 0.0038085 -0.0068088 0.0004403 -0.0003790 0.0005018 -0.0005327 -0.0000218 0.0005165 -0.0001856 0.0005998 0.0006094 -0.0077777 0.0000623 0.0006837 0.0001378 -0.0001966 -0.0000754 0.0000754 0.0003854 0.0008089 0.0000344 -0.0001358 0.0003466 -0.0002271 0.0000531 -0.0001227 -0.0000874 -0.0001739 0.0000146 -0.0001932 0.0000766 -0.0001661 0.0010329 -0.0010403 -0.0032098 0.0038791 -0.0013538 -0.0012973 -0.0130650 0.0111440 0.0033274 -0.0061092 0.0002135 -0.0004073 -0.0014286 0.0012323 -0.0007119 -0.0007972 0.0000497 -0.0001343 -0.0001014 -0.0003571 0.0001101 -0.0001731 -0.0000410 -0.0003527 -0.0013883 0.0012642 -0.0009442 0.0008700 -0.0001235 -0.0005446 0.0010231 -0.0013212 0.0000289 0.0002531 0.0006064 0.0000837 -0.0003986 0.0007486 -0.0000387 0.0001017 -0.0000038 0.0001940 -0.0001229 0.0003658 0.0004307 0.0004762 -0.0000178 -0.0001287 0.0009451 -0.0006480 0.0028117 -0.0026909 -0.0000701 -0.0001810 0.0001592 0.0002875 0.0002985 0.0001263 0.0000796 -0.0000716 0.0086852 -0.0257327 0.0000633 0.0003880 0.0002763 0.0004908 0.0002667 0.0001153 0.0035671 0.0014263 0.0005480 0.0001016 0.0002657 0.0005013 0.0001820 0.0003972 0.0057256 -0.0235056 0.0005014 0.0015474 0.0000784 0.0008756 0.0003777 0.0006438 0.0001974 0.0004542 0.0003173 -0.0001924 0.0001011 0.0001528 0.0005312 0.0000012
0.0000889 0.0004691 0.0000882 0.0001470 0.0002270 0.0005769 0.0006527 0.0021872 0.0000128 0.0000012 -0.0000141 0.0002261 0.0001979 0.0005120 0.0001885 0.0005799 -0.0001256 -0.0005324 0.0000871 0.0000602 0.0001058 0.0002272 0.0000341 0.0000025 0.0000714 0.0000280 -0.0001913 -0.0006846 -0.0000354 -0.0001439 0.0001473 -0.0001435 -0.0000521 -0.0003200 0.0002053 0.0003431 0.0001501 0.0002251 0.0021534 -0.0005258 0.0000270 -0.0002282 0.0002779 0.0002243 0.0000678 0.0001302 0.0000511 -0.0001336 0.0000240 0.0002151 -0.0001889 0.0002874 0.0003039 -0.0007608 -0.0000732 0.0000632 0.0000288 0.0001588 -0.0000579 -0.0002135 0.0000850 0.0001735 0.0001942 -0.0003386 -0.0000593 -0.0004979 -0.0002361 -0.0006659 -0.0003672 -0.0000019 -0.0003543 0.0003012 -0.0002374 0.0003896 -0.0009143 -0.0001548 0.0002067 -0.0000053 0.0001097 -0.0004258 -0.0000859 0.0003467 0.0002901 -0.0003996 0.0001782 0.0001574 0.0005317 -0.0003397 0.0001317 -0.0000733 0.0000515 -0.0001223 0.0002928 -0.0018577 -0.0003457 -0.0000602 -0.0000782 -0.0001504 0.0038301 -0.0025010 -0.0002823 0.0009362 -0.0049234 0.0008162 0.0000974 0.0005163 -0.0001322 0.0002954 -0.0001146 0.0003937 0.0003152 0.0005129 0.0000490 -0.0000845 0.0005117 -0.0002186 0.0000387 -0.0001779 -0.0000986 -0.0001690 0.0000062 -0.0001675 0.0000262 0.0000368 0.0011303 -0.0013889 0.0023527 -0.0024630 -0.0068119 0.0056346 0.0022178 0.0015105 0.0019841 -0.0025911 0.0002059 -0.0003551 -0.0013305 0.0017537 0.0006923 -0.0010597 0.0001262 -0.0000500 -0.0000554 -0.0004932 0.0000070 -0.0001560 -0.0000002 -0.0004547 0.0000471 -0.0000149 -0.0007701 0.0007448 0.0000785 -0.0007328 0.0005057 -0.0015886 0.0000253 0.0001357 0.0001840 -0.0004261 -0.0000942 0.0004722 -0.0005048 0.0006912 0.0000042 -0.0000072 -0.0000710 0.0001788 -0.0039406 0.0017347 -0.0000958 0.0000831 0.0003474 -0.0005188 0.0024193 -0.0006526 -0.0004786 0.0002150 0.0001204 0.0002571 0.0000585 0.0003413 -0.0000354 0.0002602 -0.0028808 -0.0009786 -0.0000014 0.0002574 0.0001866 0.0003207 -0.0000419 0.0000678 0.0060496 -0.0057879 -0.0001206 0.0005796 0.0000639 0.0000585 0.0007793 -0.0001986 0.0124156 -0.0324388 -0.0016594 0.0019161 0.0000429 0.0005115 0.0002124 0.0004984 0.0001188 -0.0000357 0.0000769 -0.0000503 0.0000463 -0.0000230 0.0003521 0.0004466
0.0001472 0.0004075 0.0001321 0.0002634 0.0001143 0.0003005 -0.0003912 -0.0015444 -0.0002189 -0.0006094 0.0001626 0.0005992 0.0001555 0.0003607 0.0000123 0.0002418 0.0000487 0.0001693 0.0000933 0.0000380 0.0000719 0.0000703 0.0000267 0.0000582 0.0000693 0.0002293 0.0000037 -0.0000016 -0.0000657 -0.0003976 0.0001406 -0.0000056 0.0000114 0.0000782 0.0001257 0.0002360 0.0000569 0.0000276 0.0005174 0.0005865 0.0000451 -0.0000607 0.0003282 0.0002560 0.0000402 0.0000504 0.0000612 0.0000720 -0.0001062 0.0002471 -0.0000082 -0.0000534 0.0000834 -0.0004138 0.0000713 -0.0000208 0.0001674 0.0006703 0.0000323 -0.0000350 0.0001506 0.0003744 0.0001253 -0.0003004 0.0000648 -0.0004412 -0.0001774 -0.0002074 -0.0002338 0.0001741 -0.0000189 -0.0004361 -0.0000093 -0.0006053 -0.0012503 -0.0001011 0.0001331 -0.0000396 0.0002564 0.0000657 -0.0007227 0.0005298 0.0002916 -0.0001985 0.0001486 0.0001723 -0.0002853 0.0002392 -0.0000597 0.0005567 0.0001331 0.0002506 0.0016614 -0.0016445 -0.0003778 -0.0002917 0.0002848 -0.0006717 -0.0050455 0.0058174 -0.0002344 0.0012326 -0.0016956 -0.0080752 0.0001456 0.0006920 0.0002135 0.0016608 -0.0000945 0.0002607 0.0003944 0.0011859 0.0002858 0.0006276 0.0003911 -0.0002046 0.0000897 -0.0000411 0.0000532 -0.0002008 -0.0000324 -0.0001261 0.0002459 -0.0000240 -0.0000061 -0.0009062 -0.0049253 -0.0006592 -0.0045662 -0.0014585 0.0056138 -0.0060605 -0.0000630 0.0008486 0.0001549 -0.0002761 -0.0009703 0.0007353 -0.0000825 0.0001850 0.0001162 -0.0001272 -0.0000396 -0.0004772 -0.0002359 0.0000166 0.0000283 -0.0004404 -0.0001866 -0.0005208 -0.0003784 0.0002872 -0.0000105 0.0014024 0.0007074 -0.0010815 0.0000126 -0.0000516 -0.0002598 -0.0007215 0.0000696 -0.0001323 -0.0003911 0.0004656 0.0000445 -0.0000644 -0.0000278 -0.0000250 -0.0015036 0.0010774 -0.0000218 0.0002893 -0.0004775 0.0000085 0.0016304 -0.0000804 -0.0002899 -0.0000943 0.0001115 0.0000209 -0.0002337 0.0002100 -0.0001788 0.0002731 -0.0026904 0.0061856 0.0000403 -0.0002056 0.0000647 -0.0000084 -0.0007757 0.0006021 0.0021024 -0.0034930 -0.0006231 0.0004558 -0.0000587 -0.0003756 0.0012362 -0.0004988 0.0077598 -0.0142458 -0.0003982 0.0000727 0.0001100 -0.0003663 0.0000770 -0.0000357 -0.0000279 -0.0004745 -0.0000507 -0.0003729 -0.0000022 -0.0003700 0.0005104 -0.0004328
-0.0000299 -0.0000630 0.0001146 0.0001547 0.0000001 -0.0000960 -0.0004347 -0.0019399 -0.0001390 -0.0004895 0.0000237 0.0002363 0.0000793 0.0000235 -0.0000686 -0.0000726 0.0001921 0.0006732 0.0001209 0.0000094 0.0000142 -0.0001419 0.0000519 0.0000218 0.0001448 0.0003208 0.0001174 0.0003217 -0.0001275 -0.0004870 0.0001244 -0.0000273 -0.0000133 0.0000860 0.0000514 0.0001502 -0.0000016 -0.0001620 0.0004738 0.0005577 0.0000641 0.0000007 0.0005603 0.0007855 -0.0000391 -0.0001067 0.0000383 0.0000308 0.0002658 0.0010238 0.0000410 -0.0001575 0.0000743 -0.0000823 0.0001075 -0.0002039 0.0003117 0.0011635 0.0000545 -0.0001544 0.0002401 0.0006818 0.0000130 -0.0001767 0.0000757 -0.0004008 -0.0000385 -0.0000888 -0.0000357 0.0000785 0.0001909 -0.0008706 0.0001964 -0.0009577 0.0008396 -0.0021770 0.0000353 0.0000434 0.0002879 0.0000742 0.0020317 -0.0018505 0.0002899 -0.0001789 0.0001132 0.0000846 -0.0001435 0.0005304 -0.0001072 0.0008760 0.0002144 0.0003794 0.0009885 -0.0045443 0.0003257 -0.0008276 0.0005796 -0.0005859 -0.0058514 0.0059796 -0.0001249 0.0014028 0.0049645 -0.0214552 0.0001210 0.0008319 0.0010253 0.0023402 -0.0000590 0.0002680 0.0007245 0.0020512 0.0004734 0.0011236 0.0001979 0.0000259 0.0002850 0.0005478 0.0000647 -0.0001223 -0.0000119 -0.0002368 0.0002624 -0.0000575 -0.0000787 -0.0000670 -0.0080081 0.0012236 -0.0064766 -0.0037786 0.0054331 -0.0248580 0.0037064 -0.0030467 0.0002005 -0.0003652 -0.0004714 -0.0002819 -0.0026173 0.0021568 0.0000638 -0.0000664 0.0000319 -0.0004440 -0.0002249 -0.0001395 -0.0000792 -0.0002680 -0.0026322 0.0011762 -0.0005846 0.0004145 0.0005357 -0.0001045 0.0014649 -0.0017763 -0.0000683 -0.0000167 -0.0010920 -0.0003586 0.0003302 -0.0002534 -0.0001003 -0.0001753 0.0000394 -0.0001328 -0.0000955 0.0000506 0.0006175 -0.0001680 0.0001123 0.0000022 -0.0003931 0.0003669 0.0013369 -0.0012081 -0.0007334 0.0002783 0.0000210 0.0000018 -0.0000409 -0.0001855 -0.0002783 0.0002311 0.0017760 -0.0037801 -0.0003686 -0.0002216 -0.0000725 -0.0000549 -0.0002536 0.0000153 0.0001304 0.0033446 0.0003162 -0.0010071 -0.0000897 -0.0006616 0.0013236 -0.0001527 0.0058767 -0.0105539 0.0011808 -0.0011952 0.0002746 -0.0006648 0.0000397 -0.0001232 -0.0001633 -0.0006124 -0.0000044 -0.0006054 -0.0000315 -0.0003939 0.0006869 -0.0010457
-0.0000434 -0.0000729 0.0000865 0.0001756 -0.0000254 -0.0000796 -0.0003790 -0.0017324 -0.0001324 -0.0004604 -0.0000447 0.0002630 0.0000694 0.0000294 -0.0000824 -0.0001556 0.0001879 0.0006372 0.0001246 0.0000063 0.0000099 -0.0001100 0.0000451 0.0000374 0.0001916 0.0002218 0.0001249 0.0003949 -0.0001292 -0.0003899 0.0001125 0.0000430 -0.0000376 0.0001530 0.0000375 0.0002431 -0.0000270 -0.0002176 0.0005843 0.0007292 0.0000412 0.0000329 0.0006232 0.0007003 -0.0000151 -0.0001370 0.0000123 -0.0000535 0.0003487 0.0011157 0.0000680 0.0000299 0.0000829 -0.0000076 0.0000341 -0.0001356 0.0001714 0.0008628 0.0000750 0.0000285 0.0001279 0.0003891 -0.0000143 -0.0001242 0.0000263 -0.0002987 0.0001687 -0.0002532 0.0000841 -0.0001517 0.0002998 -0.0009129 0.0003520 -0.0009995 0.0009720 -0.0024853 0.0000150 0.0000109 0.0002408 0.0001005 0.0014060 -0.0012151 0.0000184 -0.0001347 0.0000747 0.0001265 -0.0000655 0.0009800 0.0000943 0.0005061 0.0001824 0.0004821 0.0059245 -0.0075808 0.0002674 -0.0004542 -0.0000684 0.0000309 -0.0026530 0.0034113 -0.0002412 0.0013274 -0.0065671 0.0006328 0.0000586 0.0008313 0.0007274 0.0017525 0.0000128 0.0005433 0.0004983 0.0014624 0.0004013 0.0009261 0.0001627 0.0000852 0.0003254 0.0006412 0.0001058 -0.0002203 0.0000152 -0.0000501 0.0002218 0.0000156 0.0001771 0.0001932 -0.0066397 0.0014644 0.0063967 -0.0036289 0.0043117 -0.0201279 0.0002764 0.0023890 0.0001669 -0.0004548 -0.0016301 0.0008018 -0.0006703 -0.0000739 0.0000488 -0.0000500 -0.0000616 -0.0002783 0.0000706 -0.0005165 -0.0002105 -0.0000522 -0.0044712 0.0026348 0.0007079 -0.0008263 0.0015442 -0.0018658 -0.0000572 -0.0003239 -0.0001061 0.0000936 -0.0011965 -0.0003851 0.0001598 0.0000816 0.0005544 -0.0007170 0.0000811 -0.0000697 -0.0003243 0.0003112 0.0020760 -0.0010903 0.0001396 -0.0003472 -0.0001030 0.0001606 -0.0003721 -0.0005037 -0.0004730 -0.0000019 -0.0000954 0.0000867 -0.0002028 -0.0001258 -0.0000634 0.0002038 0.0057784 -0.0066488 -0.0004366 0.0001030 0.0000215 -0.0000830 0.0002060 -0.0007623 0.0036193 -0.0051525 0.0001421 -0.0007778 -0.0000746 -0.0004708 0.0009375 0.0001412 0.0035164 -0.0067675 0.0011316 0.0002368 0.0001674 -0.0005434 -0.0000064 0.0000092 -0.0002278 -0.0004121 -0.0000993 -0.0002317 -0.0000569 -0.0002017 0.0001602 -0.0005324
-0.0000788 -0.0000827 0.0000606 0.0001787 -0.0000264 -0.0000344 -0.0003313 -0.0015006 -0.0001247 -0.0003723 -0.0000652 0.0003684 0.0000495 0.0000668 -0.0000968 -0.0001613 0.0001625 0.0006772 0.0001075 0.0000749 0.0000004 -0.0000775 0.0000367 0.0000982 0.0002019 0.0002504 0.0001081 0.0004193 -0.0001276 -0.0002754 0.0000990 0.0001579 -0.0000697 0.0003961 0.0000006 0.0003254 -0.0000684 -0.0001429 -0.0002326 0.0010937 0.0000040 0.0001476 0.0002983 0.0000979 0.0000354 -0.0000022 0.0000222 0.0000068 0.0000038 0.0004087 0.0001113 0.0001871 0.0000576 0.0000805 0.0000321 -0.0000120 0.0000388 0.0004901 0.0001185 0.0002896 0.0000313 0.0000858 0.0000473 -0.0001079 0.0000624 -0.0000883 0.0000621 -0.0000857 0.0000955 -0.0002179 0.0003405 -0.0007700 0.0003899 -0.0008088 0.0001930 -0.0009926 0.0000462 -0.0000005 0.0003320 0.0001614 0.0011033 -0.0002810 0.0001600 -0.0000625 0.0000549 0.0002686 -0.0000918 0.0009429 0.0000499 0.0006307 0.0001786 0.0006608 0.0030460 -0.0011851 0.0009492 -0.0005137 0.0002070 0.0000479 -0.0094577 0.0109599 -0.0002998 0.0013665 -0.0068619 0.0115232 0.0002242 0.0006823 -0.0000303 0.0017308 0.0001167 0.0009646 0.0005627 0.0009437 0.0003158 0.0008807 0.0000150 0.0000877 0.0002191 0.0003790 0.0001250 -0.0002229 0.0000240 0.0001352 -0.0001217 0.0004452 -0.0003414 0.0004832 -0.0141252 0.0111923 0.0099697 -0.0044268 -0.0030185 -0.0043502 0.0037338 -0.0021349 0.0003301 -0.0006553 0.0013693 -0.0021118 0.0013550 -0.0012793 -0.0000329 -0.0001138 -0.0001494 -0.0000399 -0.0000879 -0.0002751 -0.0000600 -0.0000655 -0.0021554 0.0017497 0.0003340 -0.0003703 -0.0000199 0.0006799 0.0007609 -0.0008439 -0.0000905 0.0000797 -0.0010658 -0.0007373 -0.0002254 0.0004239 0.0007233 -0.0007797 0.0000513 0.0000973 -0.0002421 0.0001109 0.0012954 0.0002242 0.0001107 -0.0002594 -0.0001934 -0.0001675 -0.0001685 -0.0002755 -0.0002362 -0.0003286 -0.0000688 -0.0000209 -0.0005191 -0.0000021 0.0002033 0.0002605 0.0050687 -0.0129725 -0.0002041 -0.0000410 -0.0000549 -0.0002026 0.0001575 -0.0004684 0.0048833 -0.0054610 -0.0004400 0.0000358 -0.0000863 -0.0005439 -0.0003235 0.0004560 -0.0010250 -0.0013760 0.0007791 0.0000771 0.0001378 -0.0005491 -0.0000835 -0.0000915 -0.0002329 -0.0004756 -0.0000607 -0.0001325 -0.0000884 -0.0001873 0.0002049 -0.0003328
-0.0000998 -0.0001935 0.0000393 0.0000894 -0.0000404 -0.0001112 -0.0003296 -0.0014843 -0.0001027 -0.0003848 -0.0001019 0.0002433 0.0000014 -0.0000311 -0.0001074 -0.0002208 0.0001183 0.0005227 0.0000993 0.0000309 -0.0000092 -0.0000804 0.0000649 0.0000142 0.0001720 0.0002536 0.0000948 0.0003794 -0.0001366 -0.0002734 0.0000739 0.0001964 -0.0000999 0.0003569 -0.0000747 0.0002328 -0.0000898 -0.0001257 0.0002166 0.0001292 -0.0000070 0.0001432 0.0002454 0.0002036 0.0000115 0.0000507 -0.0000088 0.0001101 -0.0000665 0.0004611 0.0000741 -0.0000497 -0.0000098 -0.0000013 0.0000355 -0.0000355 0.0000210 0.0004096 0.0001133 0.0003075 -0.0000078 0.0000016 0.0001582 -0.0001872 0.0001115 -0.0001065 -0.0000444 0.0002260 0.0000682 0.0000634 0.0002627 -0.0007904 0.0002655 -0.0007302 0.0012539 -0.0017274 0.0001883 -0.0001034 0.0003789 -0.0000105 -0.0001456 0.0013906 0.0003017 -0.0001867 -0.0000106 0.0001083 0.0000238 0.0002765 -0.0003655 0.0008742 0.0001147 0.0005250 0.0015354 0.0014961 0.0010444 -0.0007463 0.0009411 -0.0001303 -0.0043212 0.0070390 0.0000494 0.0011427 -0.0153615 0.0160413 0.0001140 0.0006261 -0.0001267 0.0019972 0.0000457 0.0008695 0.0005983 0.0008043 0.0002472 0.0008443 -0.0000776 0.0000723 0.0001909 0.0003827 0.0000478 -0.0000667 0.0000763 -0.0000145 0.0003955 -0.0004045 -0.0002475 0.0000001 -0.0027117 -0.0012346 0.0007502 0.0080396 0.0004287 -0.0122018 0.0037657 -0.0066312 0.0002231 -0.0007047 0.0020212 -0.0032392 0.0004260 -0.0007531 -0.0000966 -0.0003379 -0.0000373 0.0001360 -0.0004672 -0.0000779 -0.0000186 0.0000594 -0.0004527 -0.0000888 -0.0010534 0.0004396 0.0012517 0.0000251 0.0026638 -0.0025969 -0.0001832 0.0000541 -0.0002227 -0.0009666 -0.0001517 0.0001810 -0.0002179 -0.0001013 -0.0000057 -0.0000574 -0.0003130 0.0001162 0.0056681 -0.0055782 0.0001501 -0.0005385 -0.0000163 -0.0004222 0.0013413 -0.0008389 -0.0000856 -0.0006735 -0.0000723 -0.0003425 -0.0006480 0.0000669 0.0002115 -0.0000505 -0.0020218 -0.0042490 -0.0007772 0.0000704 -0.0002193 -0.0004928 -0.0001157 -0.0001051 -0.0008650 0.0053285 -0.0004097 -0.0001315 -0.0002421 -0.0008787 -0.0007944 0.0000672 0.0104293 -0.0292325 0.0003301 -0.0016869 -0.0000247 -0.0006270 -0.0001132 -0.0003810 -0.0001888 -0.0007808 -0.0002285 -0.0000994 -0.0001055 -0.0003277 -0.0005008 -0.0003827
-0.0000826 -0.0003120 0.0000117 -0.0000541 -0.0000704 -0.0002717 -0.0003375 -0.0015781 -0.0001051 -0.0005002 -0.0001382 0.0000469 -0.0000471 -0.0002646 -0.0000987 -0.0003386 0.0000607 0.0002702 0.0001056 -0.0001145 0.0000108 -0.0002090 0.0000717 -0.0001117 0.0001330 0.0001080 0.0000878 0.0002486 -0.0001348 -0.0003712 0.0000342 0.0000588 -0.0001249 0.0001012 -0.0001321 -0.0000378 -0.0000867 -0.0002529 0.0010642 -0.0010877 0.0000182 -0.0000400 0.0003538 0.0004873 0.0000123 -0.0001713 -0.0000686 0.0000511 0.0000194 0.0006869 -0.0000057 -0.0003330 -0.0000501 -0.0001892 -0.0000056 -0.0001690 -0.0000193 0.0003057 0.0001062 0.0001839 -0.0000557 -0.0001229 0.0001521 -0.0003536 0.0001751 -0.0002715 0.0001314 0.0001278 0.0006070 -0.0004675 0.0002413 -0.0009956 0.0001154 -0.0008077 0.0029576 -0.0034412 0.0003235 -0.0002978 0.0002766 -0.0001124 0.0006289 -0.0002868 0.0002600 -0.0006299 -0.0000865 -0.0002426 0.0006702 -0.0007832 -0.0001783 0.0001824 0.0000666 0.0001040 0.0002145 0.0020203 0.0009840 -0.0010053 0.0009685 -0.0004104 0.0014887 -0.0009007 -0.0000057 0.0009759 -0.0090841 0.0074754 -0.0001575 0.0005329 0.0005172 0.0028110 -0.0000438 0.0002809 0.0004977 0.0016070 0.0003033 0.0008296 0.0001270 -0.0001822 0.0002660 0.0005836 0.0001651 -0.0001018 0.0000311 -0.0000621 0.0004209 -0.0007269 -0.0000053 -0.0002512 -0.0027908 0.0024493 -0.0049291 0.0139643 0.0125943 -0.0276952 0.0039584 -0.0087190 0.0000465 -0.0006437 0.0028475 -0.0033046 -0.0023233 0.0010920 -0.0001351 -0.0003470 0.0000629 0.0001722 -0.0003626 -0.0004010 -0.0000760 0.0001484 -0.0003830 0.0000838 0.0002382 -0.0013581 0.0008074 -0.0012011 0.0027566 -0.0030329 -0.0000418 0.0000532 0.0001372 -0.0005173 0.0000326 0.0000196 -0.0001673 -0.0008740 -0.0000019 -0.0002510 -0.0003300 0.0000606 0.0089972 -0.0105843 0.0002325 -0.0008242 0.0000161 -0.0006665 -0.0005682 0.0007076 0.0001776 -0.0005091 -0.0000361 -0.0004516 0.0001327 -0.0004971 -0.0000960 -0.0000314 -0.0040219 0.0086203 -0.0009651 0.0003752 -0.0001607 -0.0006641 0.0001522 -0.0003506 -0.0007136 -0.0005338 -0.0001044 -0.0006706 -0.0002569 -0.0008873 0.0010994 -0.0019007 -0.0051175 -0.0041488 0.0000561 -0.0020590 -0.0003911 -0.0006276 -0.0001360 -0.0003329 -0.0002105 -0.0007493 -0.0000790 -0.0001156 -0.0001013 -0.0001832 -0.0002176 -0.0007080
-0.0000771 -0.0002267 0.0000075 -0.0000799 -0.0001009 -0.0002513 -0.0003378 -0.0015306 -0.0001076 -0.0003896 -0.0001322 0.0000836 -0.0000534 -0.0002245 -0.0001004 -0.0002386 0.0000297 0.0002419 0.0000991 -0.0001306 0.0000118 -0.0001498 0.0000757 -0.0000766 0.0001427 0.0000242 0.0000940 0.0004318 -0.0001316 -0.0002313 0.0000087 0.0001838 -0.0001303 0.0002231 -0.0001301 0.0000585 -0.0000915 -0.0001296 0.0017933 -0.0010154 0.0000159 -0.0000010 0.0006619 0.0005959 -0.0000011 -0.0000717 -0.0001077 0.0000409 0.0002616 0.0012286 0.0000173 -0.0003671 -0.0000360 -0.0001644 0.0000470 -0.0003702 0.0003588 0.0011702 0.0000246 -0.0003482 0.0001467 0.0004131 0.0000673 -0.0003012 0.0001690 -0.0002838 0.0001614 0.0000364 0.0002066 0.0000699 0.0003455 -0.0017603 0.0006105 -0.0007224 0.0027801 -0.0033855 0.0003273 -0.0003992 0.0001960 -0.0000439 0.0006301 -0.0007066 0.0001921 -0.0006771 -0.0000766 -0.0004006 0.0006184 -0.0015465 0.0001821 -0.0005202 0.0000324 -0.0003556 -0.0004413 -0.0006980 0.0003807 -0.0006031 0.0006199 -0.0003513 0.0002196 -0.0014692 -0.0003339 0.0008221 0.0010417 -0.0000331 -0.0002096 0.0004534 0.0006609 0.0028317 -0.0000437 0.0001322 0.0003779 0.0018800 0.0003174 0.0007924 0.0001612 -0.0000844 0.0002578 0.0004579 0.0001864 -0.0001045 0.0000823 -0.0000875 -0.0000721 -0.0000478 0.0009370 -0.0013508 -0.0087769 0.0082196 0.0041707 -0.0006231 0.0099260 -0.0160255 0.0087908 -0.0119108 0.0003870 -0.0008894 0.0015441 -0.0015576 -0.0002944 -0.0004489 -0.0001034 -0.0002143 0.0001044 0.0001413 -0.0002593 -0.0003527 0.0000058 -0.0000075 0.0015896 -0.0011058 -0.0001385 -0.0012881 0.0010247 -0.0024887 0.0008385 -0.0014641 0.0000293 0.0002248 0.0002214 -0.0004025 -0.0000234 0.0002989 -0.0002904 -0.0004761 -0.0000251 -0.0004335 0.0000769 -0.0005157 0.0041284 -0.0057589 -0.0003170 -0.0001624 -0.0011271 0.0001875 -0.0021982 0.0003594 0.0000318 -0.0003426 0.0000605 -0.0003673 0.0005996 -0.0006109 0.0000915 -0.0001181 -0.0028193 0.0065029 -0.0006453 0.0001827 -0.0001987 -0.0006447 -0.0004180 -0.0002681 0.0003619 -0.0011449 0.0001402 -0.0008665 -0.0002173 -0.0006884 0.0017720 -0.0022390 -0.0045704 0.0039614 -0.0028230 -0.0002468 -0.0009323 0.0000973 -0.0001426 -0.0002417 -0.0001641 -0.0006346 0.0002123 -0.0003352 -0.0000708 0.0000058 0.0003238 -0.0006569
-0.0000694 -0.0001829 0.0000068 -0.0000527 -0.0000875 -0.0002174 -0.0003103 -0.0014963 -0.0000944 -0.0002790 -0.0001195 0.0000817 -0.0000445 -0.0001451 -0.0000905 -0.0001741 0.0000543 0.0002803 0.0001082 -0.0001174 -0.0000039 -0.0000680 0.0000550 -0.0000169 0.0001696 0.0000202 0.0000948 0.0005094 -0.0001184 -0.0001562 0.0000097 0.0003117 -0.0001105 0.0003551 -0.0001218 0.0001503 -0.0001081 -0.0000262 0.0006178 -0.0001144 0.0000083 0.0000947 0.0002658 0.0000727 0.0000080 -0.0000273 -0.0000705 0.0000929 0.0000889 0.0007614 0.0000128 -0.0002645 -0.0000132 -0.0000424 0.0001583 -0.0004618 0.0007221 0.0019912 -0.0000599 -0.0008058 0.0003889 0.0011308 0.0000618 -0.0002166 0.0000962 -0.0001793 0.0001363 0.0000920 0.0002202 0.0002041 0.0004237 -0.0021776 0.0010631 -0.0008998 0.0009163 -0.0018537 0.0002732 -0.0002935 0.0001735 0.0001876 -0.0028531 0.0023125 0.0001050 -0.0004543 -0.0000538 -0.0003539 -0.0003910 -0.0007999 0.0000087 -0.0006430 -0.0000354 -0.0005615 0.0023416 -0.0036308 -0.0003280 -0.0001196 -0.0005822 0.0003654 0.0003617 -0.0018017 -0.0001905 0.0003539 -0.0041676 0.0097103 -0.0001387 0.0003719 0.0000906 0.0013542 0.0000105 0.0006651 -0.0002563 0.0012009 0.0001113 0.0005234 0.0001524 -0.0001116 0.0000407 0.0000104 0.0000731 0.0000147 0.0000569 -0.0001021 0.0002719 -0.0000130 0.0007096 -0.0010151 0.0061319 -0.0040092 -0.0067216 0.0145371 -0.0035754 0.0018351 0.0036028 -0.0061801 0.0003885 -0.0006314 0.0003615 -0.0012213 0.0006481 -0.0008510 -0.0000813 -0.0000347 0.0000883 0.0002825 -0.0002504 0.0000791 0.0001534 -0.0000644 0.0006846 -0.0007996 -0.0004412 -0.0008697 0.0017833 -0.0010187 -0.0023373 0.0009643 -0.0000427 0.0002961 0.0001213 0.0002516 0.0002153 0.0000999 -0.0014144 0.0010964 -0.0000316 -0.0004863 0.0001006 -0.0003292 0.0029308 -0.0021850 -0.0004454 -0.0000070 -0.0006805 0.0001885 -0.0016764 -0.0000250 0.0002619 -0.0007279 0.0001074 -0.0002928 0.0003920 -0.0004178 0.0002194 -0.0001845 -0.0062360 0.0041932 -0.0003029 -0.0000982 -0.0003021 -0.0004157 0.0001243 -0.0006580 0.0051807 -0.0009826 -0.0006804 -0.0002675 -0.0002016 -0.0004839 0.0004938 -0.0007711 -0.0033685 0.0025452 -0.0020490 -0.0002522 -0.0001435 -0.0003509 -0.0000886 -0.0002434 -0.0001261 -0.0004745 0.0001003 -0.0002114 -0.0000529 0.0000963 0.0001184 -0.0001511
-0.0000632 -0.0002407 -0.0000267 -0.0000651 -0.0000486 -0.0002715 -0.0002861 -0.0014895 -0.0000929 -0.0002992 -0.0001054 0.0000329 -0.0000493 -0.0002268 -0.0000645 -0.0002389 0.0000609 0.0002596 0.0001304 -0.0001816 -0.0000009 -0.0001234 0.0000404 -0.0000602 0.0002085 -0.0000420 0.0000813 0.0003332 -0.0001169 -0.0002196 -0.0000031 0.0002235 -0.0001233 0.0002591 -0.0001378 0.0000076 -0.0001108 -0.0001087 -0.0006910 0.0002401 0.0000212 0.0000080 -0.0000097 -0.0002783 -0.0000146 -0.0001965 -0.0000292 0.0000532 -0.0001417 -0.0000840 -0.0000379 -0.0003225 0.0000059 -0.0001165 0.0001409 -0.0004323 0.0005172 0.0015125 -0.0000202 -0.0007043 0.0003584 0.0011183 0.0000976 -0.0002589 0.0001675 -0.0002164 0.0001188 0.0000880 0.0002262 0.0001420 0.0004586 -0.0017193 0.0007462 -0.0011962 -0.0007855 -0.0000788 0.0001559 -0.0002628 0.0001502 0.0001261 -0.0004830 0.0009002 0.0002269 -0.0004437 -0.0000655 -0.0002578 -0.0006325 -0.0001375 0.0000075 -0.0004655 -0.0000636 -0.0005090 -0.0004957 0.0004132 -0.0007668 0.0003021 -0.0018778 0.0013144 0.0048779 -0.0084484 0.0000709 0.0000731 -0.0049830 0.0136037 -0.0000046 0.0001150 -0.0000690 0.0010228 0.0000266 0.0006661 -0.0003245 0.0008499 0.0000061 0.0002794 0.0001872 -0.0002668 -0.0000379 -0.0001243 0.0001434 -0.0000466 -0.0000072 0.0000685 -0.0000355 0.0000897 0.0003524 -0.0002423 0.0124492 -0.0067570 -0.0256169 0.0213926 -0.0108467 0.0090852 -0.0012187 -0.0014048 0.0003837 -0.0005466 0.0001779 -0.0002783 -0.0001602 -0.0011208 -0.0000796 0.0000143 0.0000828 0.0003219 -0.0002652 0.0001936 0.0001740 0.0000205 -0.0000694 -0.0007618 0.0009182 -0.0016068 0.0009897 0.0002203 -0.0022282 0.0005634 0.0000090 0.0002023 0.0003133 0.0004640 0.0001851 -0.0000976 -0.0009290 0.0005679 -0.0000245 -0.0004967 -0.0001634 0.0001450 0.0014030 -0.0017371 -0.0001335 -0.0000500 -0.0006102 0.0000948 -0.0010318 0.0010455 0.0004750 -0.0010890 0.0000689 -0.0001681 0.0004440 -0.0004282 -0.0002724 0.0001718 -0.0223950 0.0143569 -0.0002958 0.0000901 -0.0000625 -0.0004537 0.0002583 -0.0006987 0.0141175 -0.0148531 -0.0002660 -0.0004464 -0.0002136 -0.0002684 0.0003205 -0.0007299 -0.0056238 0.0027173 -0.0006985 -0.0007321 0.0002584 -0.0006016 -0.0001119 -0.0000839 -0.0001155 -0.0002597 0.0000201 -0.0000420 -0.0000264 0.0001943 0.0007405 -0.0005278
-0.0000403 -0.0002355 -0.0000402 -0.0000374 -0.0000304 -0.0001853 -0.0002699 -0.0014087 -0.0001019 -0.0002720 -0.0001024 0.0000602 -0.0000700 -0.0001777 -0.0000586 -0.0001701 0.0000146 0.0001641 0.0001339 -0.0001929 0.0000021 -0.0000429 0.0000758 -0.0000890 0.0002345 -0.0000798 0.0000454 0.0002551 -0.0000988 -0.0001079 -0.0000224 0.0002692 -0.0001286 0.0003558 -0.0001373 0.0000463 -0.0000783 0.0000553 0.0001323 -0.0002903 0.0000090 0.0000506 0.0001759 -0.0001222 -0.0000625 -0.0000612 -0.0000329 0.0001299 0.0000967 -0.0001583 -0.0000401 -0.0003482 0.0000159 -0.0001411 0.0001098 -0.0004123 0.0002860 0.0010505 0.0000127 -0.0005099 0.0002704 0.0009515 0.0001572 -0.0001733 0.0001458 -0.0001280 0.0000659 0.0001118 -0.0003226 0.0006318 0.0003832 -0.0013488 0.0003828 -0.0010512 0.0005239 -0.0015049 0.0001994 -0.0002272 -0.0000006 0.0002635 0.0028274 -0.0019058 0.0003033 -0.0003935 -0.0000473 -0.0001257 -0.0002850 -0.0000947 0.0000625 -0.0001676 -0.0000737 -0.0004179 0.0032285 -0.0020369 -0.0012755 0.0010683 -0.0009466 0.0005952 0.0028120 -0.0034197 -0.0000045 0.0003211 -0.0020213 0.0057043 0.0000314 0.0000927 -0.0002964 0.0012790 0.0000426 0.0006522 0.0000962 0.0005430 -0.0000269 0.0002035 0.0000609 -0.0000333 -0.0000153 -0.0000407 0.0002031 -0.0000164 0.0000264 0.0001225 -0.0002574 0.0001733 0.0003355 -0.0005749 0.0093535 -0.0013625 -0.0015012 -0.0045274 -0.0019551 0.0063915 -0.0008539 0.0018852 0.0003349 -0.0002545 0.0006027 -0.0009485 0.0000471 -0.0010318 -0.0000422 0.0001421 0.0000296 0.0004792 -0.0001499 0.0002361 0.0000563 0.0002494 0.0007800 -0.0001064 0.0004891 -0.0009104 0.0010652 -0.0014637 0.0004145 -0.0003158 0.0000690 0.0002072 0.0002987 0.0002867 0.0000163 0.0001461 0.0002305 -0.0003195 -0.0000692 -0.0003958 -0.0000231 0.0000326 -0.0000468 -0.0010573 -0.0001653 0.0002274 -0.0000074 -0.0005338 0.0012707 -0.0004220 0.0002837 -0.0004399 -0.0000305 0.0000598 0.0002500 -0.0001040 -0.0005743 0.0002422 -0.0081242 0.0060557 -0.0001880 0.0001239 0.0001134 -0.0005687 -0.0003892 -0.0002036 0.0122034 -0.0205314 -0.0000836 -0.0001922 -0.0002037 -0.0001337 0.0004294 -0.0008625 0.0007379 -0.0113674 -0.0005559 -0.0005376 -0.0004476 0.0001127 -0.0001317 -0.0000481 -0.0000257 -0.0001756 -0.0001153 0.0001102 -0.0000306 0.0002449 0.0001233 -0.0006719
-0.0000283 -0.0002266 -0.0000235 -0.0000022 -0.0000391 -0.0001354 -0.0002367 -0.0013409 -0.0000974 -0.0002271 -0.0000848 0.0000541 -0.0000733 -0.0001346 -0.0000496 -0.0001316 0.0000219 0.0001644 0.0001323 -0.0001653 -0.0000004 -0.0000030 0.0000784 -0.0000772 0.0002927 -0.0001204 0.0000227 0.0001727 -0.0000705 -0.0000259 -0.0000160 0.0002714 -0.0001103 0.0004189 -0.0001164 0.0001225 -0.0000503 0.0001520 0.0002354 0.0000071 0.0000255 0.0000813 0.0001646 -0.0000890 -0.0000600 0.0000035 -0.0000088 0.0002069 0.0001540 -0.0000426 -0.0000259 -0.0002979 0.0000359 -0.0001786 0.0000704 -0.0003646 0.0001952 0.0008737 0.0000199 -0.0004334 0.0002210 0.0008427 0.0002409 -0.0001175 0.0001032 0.0000125 0.0001320 0.0000378 -0.0001375 0.0003142 0.0003589 -0.0012313 0.0004790 -0.0011770 0.0011069 -0.0021081 0.0002182 -0.0001537 -0.0000343 0.0002848 0.0026657 -0.0039918 0.0004192 -0.0002899 -0.0000060 -0.0000506 0.0007432 -0.0010660 -0.0000367 0.0000593 0.0000182 -0.0005010 0.0040438 -0.0052253 -0.0009101 0.0004633 0.0000285 -0.0002638 0.0006781 -0.0004420 0.0001577 0.0000863 0.0075642 -0.0079012 -0.0000526 0.0001804 -0.0002436 0.0011959 0.0000555 0.0006948 -0.0002381 0.0007420 -0.0000979 0.0000977 0.0000786 -0.0000397 -0.0000360 -0.0000625 0.0001251 0.0000739 0.0000711 0.0000221 0.0001686 -0.0002175 0.0000994 -0.0005400 0.0026100 0.0049319 0.0068530 -0.0059621 0.0028585 0.0039778 0.0041219 -0.0021712 0.0002211 0.0000350 0.0037786 -0.0047438 0.0002142 0.0003074 -0.0000797 0.0003063 0.0000041 0.0006011 -0.0001907 0.0004821 0.0001360 0.0003289 0.0006203 0.0013393 -0.0002676 0.0002343 0.0015142 -0.0024469 -0.0014585 0.0017906 0.0000841 0.0001753 0.0006138 0.0000125 0.0001375 0.0002103 0.0001924 -0.0001649 -0.0000596 -0.0003239 0.0001065 0.0001563 -0.0012107 0.0024926 0.0001252 0.0002148 0.0006139 -0.0005786 0.0011289 0.0004005 -0.0000943 0.0004421 -0.0000651 0.0002466 -0.0005197 0.0006173 -0.0004582 0.0004073 -0.0043509 0.0029070 0.0004727 -0.0002956 -0.0000212 -0.0003745 0.0000839 -0.0000741 0.0002532 -0.0055720 0.0001362 -0.0002903 -0.0001339 -0.0000549 -0.0001726 -0.0003375 0.0071356 -0.0177297 -0.0006596 -0.0000701 -0.0003691 0.0001870 -0.0001114 0.0000221 0.0000444 -0.0001785 -0.0001129 0.0002221 -0.0000462 0.0003547 -0.0003077 -0.0002882
-0.0000315 -0.0001867 -0.0000079 0.0000379 -0.0000398 -0.0001554 -0.0002247 -0.0011933 -0.0000982 -0.0001440 -0.0000679 0.0001553 -0.0000734 -0.0000915 -0.0000551 -0.0000837 0.0000487 0.0003025 0.0001217 -0.0001152 -0.0000209 0.0000303 0.0000653 0.0000018 0.0002614 -0.0000574 0.0000362 0.0003021 -0.0000731 0.0000349 -0.0000282 0.0002954 -0.0000981 0.0005735 -0.0001247 0.0002159 -0.0000681 0.0001740 0.0004566 -0.0007055 0.0000528 0.0001784 0.0001567 -0.0000863 -0.0000935 0.0000527 0.0000018 0.0001610 -0.0000117 0.0000689 0.0000263 -0.0001880 0.0000754 -0.0001639 0.0000213 -0.0002911 0.0001372 0.0007632 0.0000327 -0.0003553 0.0001675 0.0007338 0.0002074 -0.0000929 0.0000931 0.0000494 0.0001145 0.0001737 -0.0001028 0.0002657 0.0003681 -0.0012372 0.0005006 -0.0012353 0.0009630 -0.0017254 0.0001390 -0.0000197 0.0001031 0.0001405 0.0023367 -0.0033774 0.0003314 -0.0000908 -0.0000250 -0.0000331 0.0006560 -0.0009004 0.0003655 0.0000084 0.0000167 -0.0003573 -0.0021301 0.0025266 -0.0013734 0.0005452 -0.0000636 -0.0001939 0.0005711 0.0015366 0.0002046 -0.0000322 0.0121019 -0.0221132 -0.0000623 0.0002444 -0.0001531 0.0009676 0.0000523 0.0006608 -0.0003327 0.0006753 -0.0001275 0.0000346 0.0002030 -0.0001504 -0.0000620 -0.0000277 -0.0000121 0.0002790 -0.0000100 0.0001909 0.0003813 0.0001188 -0.0003842 0.0001447 -0.0096302 0.0130128 -0.0009539 0.0066290 0.0067288 -0.0089548 0.0031415 -0.0042496 0.0002536 0.0001037 0.0018362 -0.0015075 0.0001627 0.0000363 -0.0000961 0.0002282 0.0001082 0.0004611 -0.0004391 0.0009317 0.0001091 0.0003764 0.0029600 -0.0014923 0.0007723 -0.0000742 0.0029837 -0.0035314 -0.0004027 0.0002584 0.0000359 0.0001595 0.0012244 -0.0000685 0.0000724 0.0001237 -0.0004104 0.0003298 -0.0000782 -0.0003128 -0.0001334 0.0003015 0.0017989 0.0008250 0.0001091 0.0003475 -0.0003582 0.0003563 -0.0022020 0.0030248 -0.0002728 0.0006753 0.0000420 0.0002314 -0.0008400 0.0010798 -0.0002423 0.0003041 0.0003421 -0.0008119 0.0003647 -0.0002033 -0.0001762 -0.0002023 0.0001778 -0.0000921 0.0125321 -0.0048381 0.0004924 -0.0003466 -0.0001066 -0.0000261 0.0008169 -0.0013590 -0.0076155 0.0011296 -0.0000445 -0.0002737 -0.0001086 -0.0000314 -0.0000827 -0.0000061 -0.0000169 -0.0001485 0.0002075 0.0001852 -0.0000355 0.0003575 -0.0006752 0.0007479
-0.0000083 -0.0002552 -0.0000240 0.0000550 -0.0000197 -0.0001975 -0.0001998 -0.0010910 -0.0000790 -0.0000911 -0.0000680 0.0001096 -0.0000919 -0.0001028 -0.0000635 -0.0000814 0.0000487 0.0002970 0.0001056 -0.0001060 -0.0000331 0.0000356 0.0000686 0.0000078 0.0000751 0.0001127 0.0000449 0.0003746 -0.0000794 0.0000692 -0.0000427 0.0003204 -0.0001073 0.0006642 -0.0001360 0.0002152 -0.0000818 0.0001872 -0.0006968 -0.0003330 0.0000623 0.0002313 0.0000982 -0.0000883 -0.0000440 0.0000315 -0.0000156 0.0001954 -0.0001948 0.0001961 0.0000685 -0.0001336 0.0000672 -0.0000447 0.0000547 -0.0002795 0.0000853 0.0006580 0.0000377 -0.0002605 0.0001217 0.0005933 0.0001980 -0.0001162 0.0001349 0.0000774 0.0001484 0.0002195 0.0000635 0.0005136 0.0002874 -0.0012349 0.0003030 -0.0010634 0.0004621 -0.0013573 0.0001351 0.0000652 0.0001604 0.0001344 -0.0004542 0.0006741 0.0000798 -0.0000183 -0.0000894 -0.0000845 -0.0003284 -0.0000753 -0.0001664 0.0007876 -0.0000292 -0.0002640 -0.0025283 0.0061060 -0.0000943 -0.0000426 0.0001661 -0.0002443 -0.0013828 0.0041016 0.0000282 0.0003212 -0.0082318 0.0100725 -0.0001257 0.0002289 -0.0000943 0.0006637 0.0000227 0.0005971 0.0001125 0.0000773 -0.0001521 -0.0000253 0.0002022 -0.0001303 -0.0000712 0.0000438 -0.0000010 0.0004248 -0.0001667 0.0004261 0.0001474 0.0006947 -0.0001232 0.0004709 -0.0101143 0.0141652 -0.0154015 0.0260605 0.0063197 -0.0064035 0.0016650 -0.0042449 0.0001046 0.0004514 -0.0002834 0.0014551 -0.0001731 0.0000154 -0.0000926 0.0002710 0.0001096 0.0005873 -0.0000955 0.0009868 0.0000523 0.0005950 0.0023469 -0.0013560 0.0009043 -0.0002583 0.0011116 -0.0011265 0.0022268 -0.0023402 -0.0000264 0.0002734 0.0007845 0.0003820 0.0000415 0.0002142 -0.0004757 0.0009312 -0.0001124 -0.0002027 -0.0001169 0.0002085 -0.0010716 0.0011472 -0.0000836 0.0004664 -0.0002936 0.0002133 -0.0030840 0.0032595 -0.0001645 0.0005674 0.0000550 0.0002239 -0.0002546 0.0007836 0.0001166 0.0000182 0.0055793 -0.0048131 -0.0001468 0.0002121 -0.0001832 -0.0000933 0.0001059 0.0001132 0.0112705 -0.0049407 0.0005632 -0.0005390 -0.0001248 -0.0000180 0.0019167 -0.0021595 -0.0006191 -0.0061318 0.0007483 -0.0013808 -0.0003410 0.0002344 -0.0000788 -0.0000530 -0.0000660 -0.0000952 0.0001931 0.0003762 -0.0000945 0.0004569 -0.0013783 0.0015078
-0.0000357 -0.0002302 -0.0000570 0.0000922 -0.0000426 -0.0001710 -0.0001890 -0.0009519 -0.0000462 0.0000697 -0.0001031 0.0001315 -0.0001323 -0.0000666 -0.0000708 0.0000073 0.0000189 0.0002871 0.0000665 -0.0000891 -0.0000573 0.0000741 0.0000471 0.0000364 -0.0000251 0.0001396 0.0000570 0.0005090 -0.0000884 0.0001846 -0.0000378 0.0004258 -0.0001227 0.0007550 -0.0001596 0.0002572 -0.0000822 0.0002581 -0.0007093 -0.0001451 0.0000657 0.0002306 -0.0001164 0.0000560 0.0001381 -0.0001300 -0.0000362 0.0002741 -0.0003549 0.0001560 0.0000816 -0.0001576 0.0000425 0.0000145 0.0000736 -0.0003269 0.0000327 0.0005121 0.0000347 -0.0002576 0.0000790 0.0003871 0.0001994 -0.0001843 0.0001268 0.0001486 0.0003417 0.0001272 0.0000213 0.0009226 0.0002268 -0.0012858 0.0002268 -0.0009976 -0.0002840 -0.0008364 0.0001371 -0.0001279 0.0001330 -0.0000546 -0.0013695 0.0018541 0.0000213 -0.0000393 -0.0001033 -0.0002755 -0.0004044 -0.0001243 -0.0004561 0.0007540 -0.0000499 -0.0003540 -0.0012972 0.0042132 0.0011134 -0.0006689 0.0006481 -0.0005126 -0.0072328 0.0040490 -0.0001248 0.0002977 -0.0102560 0.0170203 -0.0001471 0.0000371 0.0001397 0.0003138 -0.0000245 0.0004941 0.0000647 -0.0003503 -0.0001735 -0.0001487 0.0000937 -0.0000471 -0.0000858 -0.0000560 0.0000733 0.0002581 -0.0001398 0.0005268 -0.0002491 0.0004280 -0.0002907 0.0007970 -0.0106614 0.0127667 -0.0036622 0.0135340 -0.0036725 0.0064562 0.0016313 -0.0064687 -0.0001195 0.0004198 -0.0005688 0.0004260 0.0008336 -0.0007502 -0.0001056 0.0001695 0.0001043 0.0006279 0.0003154 0.0004547 -0.0000136 0.0006596 0.0002268 0.0003794 0.0000247 0.0003000 -0.0039029 0.0035662 0.0005757 -0.0000008 0.0000528 0.0002044 0.0003727 0.0005989 0.0001367 0.0000573 -0.0000219 0.0003566 -0.0000321 -0.0003634 0.0000393 0.0002077 -0.0055911 0.0033517 0.0000991 0.0000438 0.0005271 -0.0002946 -0.0029117 0.0036576 0.0000025 0.0004945 -0.0000162 0.0002156 0.0000969 0.0004263 0.0000686 0.0000323 -0.0015278 0.0022257 -0.0002098 0.0000371 -0.0000706 -0.0003125 0.0000018 0.0004146 -0.0018627 0.0031664 0.0002155 -0.0006513 -0.0001481 -0.0001333 0.0017776 -0.0017560 0.0075253 -0.0179556 -0.0006652 -0.0010523 -0.0001646 0.0002008 -0.0001009 -0.0001262 -0.0001111 -0.0001500 0.0000440 0.0004097 -0.0000690 0.0003883 0.0000577 0.0000934
-0.0000536 -0.0001955 -0.0000537 0.0000969 -0.0000456 -0.0001657 -0.0001713 -0.0008383 -0.0000383 0.0000999 -0.0000899 0.0001462 -0.0001434 -0.0000381 -0.0000675 0.0000274 0.0000014 0.0002841 0.0000599 -0.0000763 -0.0000520 0.0000743 0.0000504 0.0000750 0.0000452 0.0000417 0.0000655 0.0005638 -0.0000883 0.0002479 -0.0000271 0.0004771 -0.0000999 0.0008512 -0.0001669 0.0003578 -0.0000747 0.0003335 0.0000072 -0.0002625 0.0000756 0.0003054 -0.0002054 0.0001305 0.0001177 -0.0000318 -0.0000306 0.0003270 -0.0002477 0.0000595 0.0000543 -0.0000177 0.0000491 0.0000661 0.0000318 -0.0002944 -0.0000064 0.0004556 0.0000248 -0.0001627 0.0000338 0.0003360 0.0000935 -0.0000740 0.0000823 0.0002317 0.0002233 0.0003699 -0.0003393 0.0009262 0.0002035 -0.0012329 0.0002045 -0.0009639 0.0012005 -0.0018634 0.0001688 -0.0000765 0.0000821 0.0000410 -0.0005272 0.0015453 0.0003843 -0.0002050 -0.0001179 -0.0001864 0.0001708 -0.0004208 -0.0002321 0.0005208 -0.0001755 -0.0001747 0.0013979 0.0001808 0.0002985 0.0001854 0.0005761 -0.0004140 -0.0049510 0.0006594 -0.0000712 0.0001223 -0.0043241 0.0085238 -0.0000288 0.0000704 0.0001018 0.0002325 -0.0000355 0.0005770 -0.0002014 -0.0002200 -0.0001654 -0.0002008 0.0000606 0.0001104 -0.0000997 0.0000386 0.0000424 0.0003959 -0.0001287 0.0005296 -0.0001546 0.0000625 -0.0005762 0.0010843 -0.0075318 0.0079580 0.0010159 0.0011800 -0.0085255 0.0034556 -0.0082035 0.0027446 -0.0001691 0.0005971 -0.0011436 0.0002632 0.0014811 -0.0000548 -0.0001009 0.0003490 0.0001371 0.0006230 0.0000587 0.0008231 -0.0001792 0.0008316 0.0001957 -0.0000528 -0.0000374 0.0005565 -0.0028219 0.0034015 -0.0000928 0.0014193 0.0000730 0.0002451 0.0002168 0.0009897 0.0003078 -0.0000425 -0.0002075 0.0002051 -0.0000775 -0.0002164 0.0000061 0.0002606 0.0010198 0.0008169 0.0002942 -0.0000660 0.0007252 -0.0000936 -0.0018140 0.0021047 0.0004804 0.0000946 0.0000154 0.0002465 -0.0001870 0.0008340 -0.0000889 0.0000311 -0.0024536 0.0074956 -0.0000798 -0.0000970 -0.0000166 -0.0004045 0.0000725 0.0004021 0.0028309 -0.0060274 -0.0001408 -0.0001259 -0.0001922 -0.0000625 0.0003957 -0.0008696 0.0071158 -0.0118308 -0.0008118 -0.0008196 0.0001757 -0.0001682 -0.0001023 -0.0001667 -0.0000856 -0.0001859 -0.0000574 0.0004392 -0.0000251 0.0002489 0.0008632 -0.0010246
-0.0000267 -0.0002049 -0.0000654 0.0001101 -0.0000151 -0.0002040 -0.0001316 -0.0008284 -0.0000345 0.0000374 -0.0000746 0.0000577 -0.0001484 -0.0000836 -0.0000426 -0.0000482 0.0000153 0.0002940 0.0000636 -0.0001007 -0.0000582 0.0000023 0.0000581 0.0000297 0.0000823 -0.0001081 0.0000673 0.0004407 -0.0000778 0.0001950 -0.0000229 0.0003878 -0.0000932 0.0007220 -0.0001499 0.0002879 -0.0000583 0.0002550 -0.0002404 0.0001214 0.0000778 0.0002642 -0.0001469 -0.0001048 0.0000093 0.0000130 0.0000010 0.0003137 -0.0001927 0.0000798 0.0000402 0.0000407 0.0000547 0.0000602 -0.0000206 -0.0002836 -0.0000434 0.0003664 0.0000190 -0.0001598 0.0000128 0.0002887 0.0000214 -0.0000357 0.0001103 0.0001955 0.0001383 0.0003638 -0.0000366 0.0002543 0.0001916 -0.0012288 0.0000727 -0.0009263 0.0005960 -0.0012413 0.0002200 -0.0000698 0.0000220 0.0001762 -0.0006347 0.0006537 0.0003983 -0.0000984 -0.0001204 -0.0001520 0.0003376 -0.0008276 -0.0001735 0.0006366 -0.0001672 -0.0002819 0.0026803 -0.0037256 0.0000811 0.0001779 0.0002183 -0.0000724 -0.0027871 -0.0002611 0.0000997 0.0000364 -0.0038492 0.0006957 0.0000107 -0.0000205 -0.0000727 0.0003102 -0.0000324 0.0006212 -0.0002876 -0.0000076 -0.0001631 -0.0002731 0.0000398 -0.0000040 -0.0000977 0.0000744 0.0001119 0.0003477 -0.0000931 0.0004588 0.0000228 0.0001073 0.0003251 0.0004113 0.0003332 -0.0007643 -0.0001571 0.0093546 -0.0070198 0.0033301 -0.0171537 0.0152259 -0.0001985 0.0007903 -0.0032403 0.0025137 0.0007732 0.0013037 -0.0000493 0.0004596 0.0000445 0.0006988 -0.0003057 0.0013120 -0.0000877 0.0006780 0.0010143 -0.0005788 -0.0009839 0.0011674 0.0010811 -0.0003577 -0.0008575 0.0016982 0.0000449 0.0002494 0.0001631 0.0013121 0.0004073 -0.0000391 0.0001525 0.0001505 -0.0001229 -0.0000976 0.0002132 0.0001452 0.0038318 -0.0018277 0.0002948 0.0001794 -0.0000591 0.0000991 0.0001961 0.0002487 0.0004053 0.0000398 0.0000588 0.0002138 -0.0004016 0.0010734 -0.0000799 -0.0000284 0.0024310 -0.0019108 -0.0002483 -0.0001470 0.0000141 -0.0003688 0.0005115 -0.0001901 0.0022957 -0.0038323 0.0000567 -0.0000636 -0.0001754 -0.0000196 0.0010336 -0.0015700 0.0125803 -0.0116466 -0.0007704 -0.0007148 0.0000739 -0.0005315 -0.0001095 -0.0001493 -0.0000834 -0.0001616 -0.0001373 0.0005074 -0.0000372 0.0002785 0.0000523 -0.0003130
-0.0000180 -0.0001428 -0.0000814 0.0001774 0.0000041 -0.0001578 -0.0001253 -0.0007600 -0.0000204 0.0000775 -0.0001235 0.0001934 -0.0001657 0.0000155 -0.0000413 0.0000106 0.0000057 0.0003338 0.0000559 -0.0000524 -0.0000698 0.0000738 0.0000564 0.0000762 0.0000462 -0.0000400 0.0000606 0.0005293 -0.0000646 0.0002869 -0.0000191 0.0004966 -0.0000783 0.0008155 -0.0001398 0.0003882 -0.0000466 0.0003702 -0.0005913 0.0004601 0.0000641 0.0003652 -0.0001891 -0.0000059 0.0000006 0.0000237 0.0000176 0.0003548 -0.0000911 0.0000164 0.0000687 0.0001059 0.0000556 0.0001163 0.0000038 -0.0002724 -0.0000811 0.0003802 0.0000047 -0.0000845 -0.0000016 0.0002972 -0.0000610 0.0001015 0.0001141 0.0002195 0.0002490 0.0002862 0.0003588 -0.0001854 0.0001923 -0.0011474 0.0000641 -0.0009197 -0.0003897 -0.0003222 0.0002333 0.0000217 -0.0000577 0.0003868 0.0012327 -0.0006030 -0.0000306 0.0004554 -0.0001129 -0.0000711 0.0000115 -0.0001632 -0.0000096 0.0005407 -0.0000761 -0.0002149 -0.0017232 0.0016679 0.0009786 -0.0006046 0.0000198 0.0002276 -0.0076587 0.0042511 0.0001028 0.0000404 0.0170114 -0.0394288 -0.0000770 0.0001380 0.0000726 0.0004052 -0.0000071 0.0006377 -0.0002017 0.0000369 -0.0001754 -0.0002434 0.0000499 0.0000764 -0.0001179 0.0000788 -0.0000132 0.0004623 -0.0000533 0.0004406 -0.0001688 0.0006031 0.0002805 0.0005807 0.0063704 -0.0039283 -0.0012483 0.0112586 -0.0061926 0.0082281 -0.0081433 0.0110113 -0.0005107 0.0010127 -0.0057554 0.0037832 0.0007186 0.0003545 -0.0000903 0.0004352 -0.0000126 0.0006991 0.0000525 0.0007380 0.0000098 0.0005365 0.0010715 0.0001070 -0.0019562 0.0020881 0.0032946 -0.0039612 0.0002146 0.0000115 0.0000211 0.0001924 0.0003891 0.0009674 -0.0000012 0.0002698 0.0006936 -0.0002569 -0.0000733 -0.0002045 0.0001937 0.0002710 -0.0007526 -0.0002906 0.0000066 0.0003522 -0.0004572 0.0001576 -0.0009342 0.0004216 0.0001228 0.0005255 0.0000770 0.0001370 -0.0004274 0.0008812 -0.0002169 -0.0000045 0.0033447 -0.0113660 -0.0006050 0.0001837 -0.0000753 -0.0003530 0.0010488 -0.0008443 -0.0128324 0.0142685 -0.0007165 0.0003122 -0.0001007 -0.0002017 0.0015962 -0.0017475 0.0039128 -0.0042231 -0.0015747 0.0000238 0.0004811 -0.0010290 -0.0000967 -0.0002192 -0.0001535 -0.0001710 -0.0001533 0.0004412 -0.0000199 0.0001767 0.0004158 -0.0001537
-0.0000260 -0.0001471 -0.0000826 0.0001841 -0.0000033 -0.0001529 -0.0001087 -0.0007345 -0.0000126 0.0000435 -0.0000918 0.0001873 -0.0001833 0.0000418 -0.0000408 -0.0000199 -0.0000072 0.0003043 0.0000500 -0.0000493 -0.0000409 0.0000724 0.0000348 0.0000880 0.0000265 0.0000237 0.0000562 0.0005348 -0.0000311 0.0002765 -0.0000130 0.0005119 -0.0000875 0.0008460 -0.0001414 0.0004107 -0.0000484 0.0003911 -0.0012716 0.0007831 0.0000790 0.0003941 -0.0001624 0.0000198 -0.0000093 -0.0000502 0.0000098 0.0003913 -0.0001136 0.0000656 0.0000362 0.0001591 0.0000463 0.0001628 0.0000013 -0.0002420 -0.0001053 0.0003618 -0.0000107 -0.0000578 -0.0000311 0.0002786 0.0000683 -0.0000105 0.0001123 0.0002507 0.0002052 0.0002887 0.0002591 0.0001360 0.0001545 -0.0010509 0.0001381 -0.0009409 -0.0000255 -0.0010879 0.0002264 0.0000533 -0.0000791 0.0004231 0.0005783 0.0009647 -0.0000125 0.0004430 -0.0001430 -0.0000159 -0.0010840 0.0008218 -0.0001640 0.0008554 -0.0001411 0.0000062 0.0012844 0.0010098 0.0000691 0.0003947 -0.0004867 0.0004587 -0.0010449 -0.0003920 0.0001072 0.0000821 0.0162023 -0.0246207 -0.0001294 0.0002684 0.0000587 0.0006828 -0.0000194 0.0006491 -0.0002553 0.0000643 -0.0001585 -0.0001758 -0.0000934 0.0003370 -0.0001300 0.0001185 0.0000262 0.0005517 -0.0000819 0.0005015 -0.0006204 0.0010713 -0.0002823 0.0006285 0.0126930 -0.0086783 -0.0064090 0.0011368 0.0037785 0.0026992 -0.0023437 0.0027012 -0.0006873 0.0013147 -0.0041425 0.0025303 -0.0007832 -0.0000191 -0.0002074 0.0006385 -0.0000055 0.0007615 0.0005830 0.0002825 0.0000684 0.0005853 -0.0019050 0.0026348 -0.0009133 0.0018875 0.0022242 -0.0033692 0.0020204 -0.0014872 -0.0000767 0.0003149 0.0001029 0.0009036 -0.0003705 0.0005802 0.0009850 -0.0002360 -0.0000749 -0.0001553 -0.0001455 0.0005512 -0.0012981 -0.0011161 -0.0000655 0.0003306 0.0000603 0.0007617 -0.0014648 -0.0001430 0.0002360 0.0006922 0.0001463 0.0000763 -0.0000480 0.0002824 -0.0001683 0.0001874 0.0019967 0.0016215 -0.0005331 0.0005661 -0.0002832 -0.0003425 0.0009633 -0.0006992 -0.0124837 0.0081602 -0.0000557 -0.0000065 -0.0000793 -0.0002279 0.0006581 -0.0008994 -0.0069312 0.0015787 -0.0029099 0.0011013 0.0005947 -0.0010766 -0.0001007 -0.0001686 -0.0001320 -0.0002245 0.0000285 0.0004089 -0.0000188 0.0001729 0.0002435 0.0003373
-0.0000367 -0.0001094 -0.0000921 0.0002264 -0.0000205 -0.0001034 -0.0001012 -0.0006558 -0.0000140 0.0001004 -0.0000888 0.0002085 -0.0002168 0.0001196 -0.0000483 0.0000467 -0.0000249 0.0003208 0.0000343 -0.0000429 -0.0000522 0.0001110 0.0000177 0.0000979 -0.0000235 0.0000175 0.0000477 0.0006273 -0.0000463 0.0003568 -0.0000160 0.0005698 -0.0001088 0.0009521 -0.0001477 0.0004584 -0.0000510 0.0004219 -0.0001312 -0.0001439 0.0000779 0.0004137 -0.0001035 -0.0001470 -0.0000169 0.0000227 0.0000034 0.0003795 -0.0001841 0.0001372 0.0000126 0.0002021 0.0000356 0.0001801 -0.0000395 -0.0002141 -0.0001324 0.0002776 0.0000161 -0.0001168 -0.0000404 0.0002209 0.0000960 -0.0000939 0.0000476 0.0002693 0.0000169 0.0004328 -0.0006036 0.0011475 0.0000749 -0.0010305 -0.0000611 -0.0006665 -0.0014567 -0.0003235 0.0000776 0.0000406 -0.0000315 0.0001902 -0.0006437 0.0010523 0.0002689 0.0001365 -0.0001389 -0.0001647 -0.0015314 0.0010769 0.0000333 0.0006333 -0.0001873 -0.0000648 -0.0011166 0.0024628 -0.0004109 0.0007059 0.0002004 -0.0000273 0.0059206 -0.0072915 0.0002186 -0.0001501 0.0003973 -0.0013462 -0.0001693 0.0001937 -0.0000736 0.0007151 -0.0000421 0.0006833 -0.0006460 0.0002448 -0.0001555 -0.0001908 -0.0002586 0.0003643 -0.0001245 0.0000658 0.0000867 0.0003584 -0.0001035 0.0006400 -0.0007114 0.0010108 -0.0004334 0.0009099 0.0084645 -0.0132242 0.0035628 -0.0015572 0.0053809 0.0024489 0.0014057 -0.0036565 -0.0005790 0.0012392 0.0006547 -0.0002026 -0.0012534 0.0006157 -0.0002717 0.0006739 -0.0000349 0.0007561 0.0005006 0.0001104 0.0000614 0.0005264 -0.0021521 0.0015410 -0.0012381 0.0022771 0.0019155 -0.0024045 0.0009694 -0.0010708 -0.0001341 0.0003364 0.0002249 0.0010311 -0.0000803 0.0002029 0.0008601 -0.0003541 -0.0001232 -0.0001084 -0.0000265 0.0003871 0.0041991 -0.0037833 0.0000933 0.0002387 0.0002469 0.0005998 -0.0012217 -0.0001756 -0.0007790 0.0013267 0.0000618 0.0000784 0.0003480 0.0000345 -0.0002448 0.0002777 0.0057455 -0.0038472 0.0001346 -0.0002541 -0.0003805 -0.0004081 0.0005487 -0.0001473 -0.0022384 0.0030094 0.0000295 -0.0000886 -0.0001311 -0.0001887 0.0005971 -0.0011591 -0.0018341 -0.0007351 -0.0013197 -0.0000218 0.0002305 -0.0008173 -0.0001490 -0.0001395 -0.0001501 -0.0002638 -0.0001099 0.0005923 -0.0000328 0.0001592 0.0004350 0.0000894
-0.0000319 -0.0000907 -0.0000900 0.0002351 -0.0000090 -0.0000835 -0.0001166 -0.0005705 -0.0000015 0.0001537 -0.0001160 0.0002624 -0.0002229 0.0001676 -0.0000567 0.0001035 -0.0000452 0.0003615 0.0000361 -0.0000211 -0.0000780 0.0001550 0.0000177 0.0001017 -0.0000167 -0.0000146 0.0000311 0.0006892 -0.0000678 0.0004283 -0.0000183 0.0006013 -0.0001100 0.0010422 -0.0001602 0.0005324 -0.0000546 0.0004750 -0.0002965 -0.0000690 0.0000496 0.0004844 -0.0002739 -0.0000226 0.0000366 0.0001319 0.0000053 0.0003980 -0.0001219 0.0001437 0.0000354 0.0002527 0.0000219 0.0002795 -0.0000324 -0.0001699 -0.0001556 0.0003322 0.0000066 -0.0000089 -0.0000452 0.0002476 -0.0000157 -0.0000195 0.0000112 0.0002762 -0.0000334 0.0005700 -0.0002848 0.0007303 0.0001097 -0.0010105 -0.0000915 -0.0006226 -0.0018532 0.0001530 0.0000753 0.0001305 -0.0000191 0.0001993 0.0006718 -0.0002254 0.0003209 0.0001570 -0.0001293 -0.0002009 -0.0006835 0.0004351 -0.0003048 0.0009561 -0.0001111 -0.0000964 0.0000436 -0.0005065 -0.0002072 0.0002923 0.0011701 -0.0007276 0.0052544 -0.0035149 0.0002673 -0.0002054 0.0036019 -0.0111477 -0.0001057 0.0001640 -0.0001764 0.0005363 -0.0000539 0.0007188 -0.0004632 0.0002042 -0.0001727 -0.0001119 -0.0003414 0.0004191 -0.0001463 0.0001605 -0.0000508 0.0004797 -0.0001301 0.0005321 -0.0006388 0.0008702 -0.0001188 0.0006748 0.0014968 -0.0027178 -0.0031613 0.0166820 0.0044518 0.0015612 -0.0040468 0.0016421 -0.0006381 0.0013046 0.0010232 -0.0002083 0.0006802 0.0002287 -0.0003205 0.0006690 -0.0000371 0.0007913 0.0003241 0.0003618 0.0000582 0.0005537 0.0009913 -0.0007033 -0.0005375 0.0009692 0.0011861 -0.0023308 -0.0014683 0.0005577 -0.0000282 0.0002445 0.0003637 0.0011197 -0.0001707 0.0002738 0.0002743 -0.0004472 -0.0001613 -0.0001135 0.0001402 0.0001266 0.0033427 -0.0001320 -0.0001825 0.0003962 -0.0005645 0.0005003 0.0002348 -0.0013996 -0.0007511 0.0011108 -0.0000894 0.0000542 0.0001557 0.0003004 -0.0001063 -0.0001366 0.0076982 -0.0097562 0.0000446 -0.0004679 -0.0003781 -0.0005023 0.0002683 0.0001047 -0.0060185 0.0121603 -0.0004735 -0.0003179 -0.0001752 -0.0003552 -0.0005372 -0.0010221 0.0066306 -0.0184106 -0.0002286 -0.0007302 -0.0006548 -0.0001091 -0.0001197 -0.0004145 -0.0002140 -0.0004267 -0.0003020 0.0004388 -0.0000266 -0.0000541 0.0010348 -0.0008439
-0.0000350 -0.0001701 -0.0001104 0.0001501 -0.0000196 -0.0001655 -0.0001048 -0.0005750 0.0000002 0.0000498 -0.0001211 0.0001369 -0.0002568 0.0000385 -0.0000547 0.0000007 -0.0000643 0.0002662 0.0000306 -0.0000974 -0.0000812 0.0000465 0.0000228 -0.0000030 -0.0000381 -0.0001306 0.0000231 0.0005107 -0.0000672 0.0002688 -0.0000310 0.0003947 -0.0001334 0.0008118 -0.0001848 0.0003248 -0.0000691 0.0002822 -0.0005153 -0.0000585 0.0000447 0.0003513 -0.0003547 0.0000339 0.0000592 -0.0000512 -0.0000081 0.0003561 -0.0002174 0.0001580 0.0000245 0.0002060 0.0000036 0.0003277 -0.0000184 -0.0002116 -0.0001618 0.0003532 0.0000018 -0.0000292 -0.0000844 0.0001866 -0.0000278 -0.0000891 0.0000125 0.0002048 0.0002223 0.0002729 0.0002536 0.0000195 0.0001429 -0.0010606 -0.0000718 -0.0007820 0.0002343 -0.0016377 0.0000734 0.0000664 -0.0000442 0.0001973 -0.0003203 0.0002802 0.0001412 0.0001492 -0.0001638 -0.0002632 -0.0002961 -0.0006739 -0.0006508 0.0012543 0.0001281 -0.0004831 0.0052679 -0.0064362 -0.0004264 0.0003583 0.0005208 -0.0001472 -0.0015483 0.0031868 0.0000820 -0.0001495 0.0121806 -0.0279720 -0.0000447 -0.0000922 -0.0002902 0.0005472 -0.0001045 0.0006056 -0.0004503 0.0001073 -0.0001692 -0.0000323 -0.0001212 0.0001749 -0.0001420 0.0001985 0.0000366 0.0004020 -0.0001212 0.0004691 -0.0008503 0.0008868 -0.0003246 0.0003999 0.0047689 -0.0054117 -0.0000072 0.0054185 0.0009139 0.0000977 -0.0097248 0.0070811 -0.0005815 0.0012432 -0.0010423 0.0017815 -0.0015056 0.0015953 -0.0003124 0.0005633 0.0000786 0.0007263 0.0002593 0.0005784 -0.0000325 0.0005625 0.0025496 -0.0002503 0.0003457 -0.0002134 -0.0007323 -0.0006001 -0.0026984 0.0026104 0.0000510 0.0001630 0.0003967 0.0007635 0.0001298 -0.0000584 0.0007149 -0.0006836 -0.0001771 -0.0001772 0.0000388 0.0001152 0.0023282 0.0002699 -0.0003485 0.0005652 -0.0010975 0.0005156 0.0007385 -0.0004202 -0.0000017 0.0004769 -0.0000476 -0.0001822 -0.0000804 0.0005884 -0.0000422 -0.0000913 0.0000729 0.0012981 0.0000523 -0.0003883 -0.0003528 -0.0006422 0.0004298 -0.0002542 0.0069380 0.0018543 0.0000851 -0.0008428 -0.0002147 -0.0005135 -0.0010296 -0.0004237 0.0127350 -0.0514521 0.0003763 -0.0013147 -0.0006869 -0.0000670 -0.0001441 -0.0005093 -0.0002283 -0.0005981 -0.0001925 0.0003497 -0.0000499 -0.0000800 0.0001436 -0.0002028
-0.0000589 -0.0001353 -0.0001352 0.0001334 -0.0000545 -0.0001434 -0.0000988 -0.0005142 0.0000022 0.0001053 -0.0001296 0.0001744 -0.0003070 0.0000671 -0.0000686 0.0000747 -0.0001180 0.0002418 -0.0000048 -0.0000955 -0.0001061 0.0000764 0.0000242 0.0000038 -0.0001421 -0.0001261 0.0000209 0.0006068 -0.0000794 0.0003343 -0.0000443 0.0004559 -0.0001506 0.0009118 -0.0002126 0.0003237 -0.0000689 0.0003068 -0.0002174 -0.0000148 0.0000459 0.0003862 -0.0003965 0.0000645 -0.0000232 0.0000702 -0.0000179 0.0003993 -0.0003216 0.0001511 0.0000115 0.0002691 -0.0000084 0.0004037 -0.0000601 -0.0001629 -0.0001798 0.0003920 0.0000053 0.0000098 -0.0001129 0.0001408 0.0000730 -0.0001797 0.0000507 0.0001708 0.0002825 0.0002987 -0.0002020 0.0005147 0.0000320 -0.0009606 -0.0001320 -0.0007342 0.0000169 -0.0006897 -0.0001851 0.0001464 -0.0000967 0.0001935 -0.0008696 0.0003791 0.0001131 -0.0000965 -0.0001793 -0.0003584 -0.0000255 -0.0013399 -0.0001749 0.0004083 0.0000928 -0.0005837 0.0004423 0.0009875 0.0004236 -0.0004919 0.0000347 0.0005222 -0.0002689 0.0021063 -0.0000627 -0.0003108 -0.0095429 0.0140278 -0.0001419 -0.0002169 -0.0003045 0.0006916 -0.0001241 0.0005767 -0.0008188 0.0002422 -0.0001662 -0.0000216 -0.0000766 0.0001273 -0.0001403 0.0001363 -0.0000188 0.0003357 -0.0000537 0.0005476 -0.0005801 0.0008407 0.0000885 0.0003075 0.0092171 -0.0121477 0.0083762 -0.0131829 -0.0012393 0.0002986 -0.0023665 -0.0006268 -0.0002362 0.0007324 -0.0025234 0.0019593 -0.0030515 0.0027086 -0.0002977 0.0003614 -0.0000148 0.0006427 -0.0004705 0.0010027 0.0001544 0.0002140 0.0016325 -0.0000757 -0.0005009 0.0007479 -0.0008396 0.0001590 -0.0005255 0.0017541 -0.0000329 0.0000802 0.0010341 -0.0004359 0.0006278 -0.0007479 0.0002669 0.0003490 -0.0001137 -0.0003594 -0.0002518 0.0002174 0.0003786 0.0011306 0.0000547 0.0001315 -0.0007405 0.0000268 0.0016423 -0.0014636 -0.0000246 0.0003593 -0.0000505 -0.0002960 -0.0000771 0.0006658 -0.0004517 0.0001289 -0.0065160 0.0060428 0.0000317 -0.0006114 -0.0003260 -0.0007847 0.0004819 -0.0007086 0.0088411 -0.0020418 0.0002058 -0.0014987 -0.0002028 -0.0006203 -0.0004109 -0.0003581 -0.0080487 0.0014186 -0.0002458 -0.0006243 0.0000234 -0.0005734 -0.0002014 -0.0005214 -0.0002221 -0.0006338 0.0000816 0.0000594 -0.0000314 -0.0002180 -0.0001728 0.0002185
-0.0000681 -0.0001184 -0.0001337 0.0001260 -0.0000437 -0.0001639 -0.0001090 -0.0004797 0.0000079 0.0001321 -0.0001270 0.0002050 -0.0002934 0.0000819 -0.0000656 0.0000782 -0.0001187 0.0002877 0.0000147 -0.0000722 -0.0001137 0.0000924 0.0000318 0.0000272 -0.0000995 -0.0000625 0.0000194 0.0005731 -0.0000745 0.0003434 -0.0000394 0.0004359 -0.0001591 0.0009532 -0.0002128 0.0003797 -0.0000648 0.0003152 -0.0001773 -0.0000406 0.0000515 0.0004016 -0.0004176 -0.0000335 -0.0000265 0.0001560 0.0000046 0.0003910 -0.0001357 -0.0000137 0.0000070 0.0003360 -0.0000166 0.0004222 -0.0000630 -0.0001161 -0.0001884 0.0004254 0.0000180 0.0000794 -0.0001159 0.0001311 0.0001269 -0.0002300 -0.0000294 0.0002464 0.0001540 0.0004557 -0.0000766 0.0005475 -0.0000441 -0.0007993 -0.0001712 -0.0007029 -0.0014755 0.0008968 -0.0001059 0.0001410 -0.0001912 0.0003179 0.0018904 -0.0010801 -0.0000024 -0.0000072 -0.0001446 -0.0003849 -0.0002683 -0.0005409 -0.0001512 0.0002087 -0.0001203 -0.0003249 0.0002657 0.0015236 0.0000636 -0.0002627 -0.0000208 0.0003240 0.0022533 0.0007752 0.0000716 -0.0003944 -0.0160235 0.0182503 -0.0001459 -0.0001833 -0.0005281 0.0007730 -0.0001217 0.0007181 -0.0005828 0.0001927 -0.0001380 -0.0000051 -0.0001232 0.0002992 -0.0001309 0.0001476 -0.0000528 0.0003977 -0.0001836 0.0006040 0.0001735 0.0002807 0.0000933 0.0003533 0.0042383 -0.0017399 -0.0027219 -0.0046416 0.0038685 -0.0013245 0.0013657 -0.0046519 -0.0002424 0.0007535 -0.0042038 0.0017799 -0.0027243 0.0034009 -0.0003404 0.0005379 -0.0001011 0.0007172 -0.0003225 0.0010777 0.0001839 0.0001069 -0.0020491 0.0018286 0.0001594 -0.0000760 -0.0006099 0.0003599 -0.0006741 0.0003844 -0.0001227 0.0001646 0.0001349 0.0005326 0.0002322 -0.0003392 -0.0006903 0.0010741 -0.0000819 -0.0004386 -0.0003335 0.0001468 -0.0031239 0.0038282 -0.0002080 0.0003489 -0.0003539 -0.0000758 0.0050443 -0.0048853 -0.0002523 0.0003644 -0.0000969 -0.0001688 -0.0002269 0.0008072 -0.0005105 0.0000464 -0.0166786 0.0112953 -0.0005445 -0.0002646 -0.0001999 -0.0008254 0.0005978 -0.0010465 0.0008910 -0.0044019 -0.0005843 -0.0015177 -0.0001375 -0.0005957 0.0001766 -0.0007814 0.0069780 -0.0036166 -0.0009152 -0.0004388 -0.0000384 -0.0007447 -0.0001510 -0.0006084 -0.0002299 -0.0006051 0.0002030 -0.0003132 0.0000243 -0.0004117 -0.0003150 0.0003707
-0.0000570 -0.0001141 -0.0001166 0.0001008 -0.0000119 -0.0002116 -0.0001015 -0.0004658 0.0000072 0.0000814 -0.0001307 0.0001675 -0.0002619 0.0000495 -0.0000529 0.0000131 -0.0000988 0.0003468 0.0000527 -0.0000993 -0.0001141 0.0000510 0.0000608 -0.0000101 0.0000096 -0.0000924 0.0000204 0.0003816 -0.0000743 0.0002280 -0.0000305 0.0002678 -0.0001499 0.0007649 -0.0001846 0.0003006 -0.0000617 0.0001909 0.0001746 -0.0006811 0.0000554 0.0002635 -0.0002679 -0.0002360 -0.0000279 0.0000632 0.0000246 0.0002966 -0.0000973 -0.0001200 -0.0000006 0.0003234 -0.0000178 0.0003173 -0.0000576 -0.0001495 -0.0002029 0.0003760 0.0000679 -0.0000193 -0.0001247 0.0000710 0.0000445 -0.0002751 -0.0000769 0.0002035 0.0001489 0.0002533 -0.0000752 0.0005211 0.0000222 -0.0008471 -0.0001626 -0.0006747 -0.0011525 -0.0002060 -0.0001179 0.0001187 -0.0002009 0.0003033 0.0009347 -0.0001389 0.0000909 -0.0000612 -0.0000992 -0.0004610 -0.0002797 -0.0006541 -0.0004872 0.0005844 -0.0000565 -0.0005477 0.0045181 -0.0049541 0.0000023 0.0002256 -0.0008348 0.0006591 0.0025548 -0.0009289 -0.0001061 -0.0002456 -0.0119222 0.0057022 -0.0000913 -0.0002584 -0.0006584 0.0007386 -0.0000976 0.0007886 -0.0004453 0.0000180 -0.0001057 -0.0000227 -0.0001453 0.0002313 -0.0000841 0.0000649 0.0000576 0.0002521 -0.0003060 0.0006292 0.0002505 0.0002569 -0.0001570 0.0007343 -0.0036127 0.0034728 0.0038518 -0.0201958 0.0049124 -0.0069909 0.0009536 -0.0014231 -0.0006442 0.0011954 -0.0014744 0.0021762 -0.0022392 0.0023244 -0.0002887 0.0005554 -0.0000111 0.0005542 0.0003624 0.0004223 0.0001332 0.0000458 -0.0043363 0.0036719 0.0009183 -0.0005025 0.0006802 -0.0008146 -0.0004362 -0.0003077 -0.0000557 0.0000718 -0.0008064 0.0013187 -0.0000071 -0.0001784 -0.0010928 0.0012164 -0.0000733 -0.0004917 -0.0000357 -0.0002685 -0.0027065 0.0042545 -0.0001059 0.0002050 -0.0008237 0.0007819 0.0045609 -0.0046943 -0.0005053 0.0005703 -0.0000381 -0.0002234 -0.0000076 0.0003739 -0.0002480 -0.0000139 -0.0141980 0.0118644 -0.0005383 -0.0000098 -0.0002598 -0.0007009 0.0009331 -0.0008971 -0.0038015 0.0013199 -0.0012095 -0.0002862 -0.0001816 -0.0004812 0.0015466 -0.0018357 0.0157863 -0.0321237 0.0005415 -0.0022961 -0.0002985 -0.0007151 -0.0001040 -0.0005960 -0.0001445 -0.0006427 0.0002010 -0.0002522 0.0000571 -0.0004270 -0.0002352 -0.0001146
-0.0000350 -0.0000742 -0.0000885 0.0001059 0.0000082 -0.0001798 -0.0000938 -0.0004098 0.0000094 0.0001306 -0.0001293 0.0002356 -0.0002415 0.0001239 -0.0000550 0.0000583 -0.0000896 0.0004073 0.0000767 -0.0000909 -0.0000886 0.0000601 0.0000793 0.0000145 0.0000399 -0.0001311 0.0000206 0.0003847 -0.0000847 0.0002730 -0.0000168 0.0003118 -0.0001292 0.0008403 -0.0001558 0.0003692 -0.0000413 0.0002702 -0.0004900 -0.0003533 0.0000637 0.0002964 -0.0001689 -0.0002560 -0.0000366 0.0000827 0.0000341 0.0003397 -0.0002928 0.0000970 -0.0000311 0.0004329 -0.0000139 0.0003369 -0.0000642 -0.0000930 -0.0002243 0.0004206 0.0000860 0.0000440 -0.0001083 0.0000745 0.0001306 -0.0003925 -0.0000475 0.0001698 0.0001174 0.0002942 0.0001208 0.0001689 0.0000624 -0.0007829 0.0001315 -0.0007802 0.0005437 -0.0018155 -0.0002214 0.0002544 -0.0001502 0.0003625 -0.0015949 0.0021381 0.0000765 0.0000617 -0.0000967 -0.0004516 -0.0002960 -0.0010205 -0.0001945 0.0003398 -0.0000211 -0.0006199 0.0072728 -0.0114101 0.0000783 0.0006040 0.0000720 0.0000071 0.0031747 -0.0005947 -0.0002580 -0.0001654 0.0056604 -0.0097778 -0.0000953 -0.0003036 -0.0005760 0.0007491 -0.0000616 0.0008020 -0.0007265 0.0002676 -0.0001113 -0.0000186 -0.0001334 -0.0000331 -0.0000855 -0.0000164 -0.0000458 0.0002369 -0.0001895 0.0005205 0.0002691 0.0003408 0.0006638 0.0000061 -0.0000181 -0.0052820 -0.0067306 0.0086997 0.0057954 -0.0208806 0.0001543 0.0018186 -0.0006828 0.0010520 -0.0026926 0.0036401 -0.0006159 0.0009674 -0.0002090 0.0003144 0.0001033 0.0002045 0.0001044 0.0003184 0.0000609 -0.0001306 -0.0042129 0.0037731 -0.0002015 0.0005905 0.0016633 -0.0019852 0.0004943 0.0002524 0.0000427 -0.0001473 -0.0003255 0.0006491 0.0000557 -0.0004196 -0.0014060 0.0013974 -0.0000820 -0.0005694 0.0001347 -0.0004464 0.0006602 0.0000956 0.0004758 -0.0006265 -0.0005919 0.0002194 0.0008708 -0.0031844 -0.0001652 0.0002056 -0.0000140 -0.0002994 0.0003726 -0.0003349 0.0001596 -0.0003949 -0.0004138 -0.0016434 -0.0005788 0.0000764 -0.0002259 -0.0008149 0.0003581 -0.0005506 -0.0026995 0.0058857 -0.0005804 -0.0001706 -0.0001866 -0.0004758 0.0010090 -0.0016293 0.0062051 -0.0228028 0.0000188 -0.0022534 0.0003812 -0.0012750 -0.0001001 -0.0005821 -0.0000315 -0.0007457 0.0001594 -0.0002548 0.0000643 -0.0004781 0.0000375 -0.0008689
-0.0000131 -0.0001165 -0.0000783 0.0000882 0.0000285 -0.0002185 -0.0000840 -0.0004118 0.0000008 0.0000368 -0.0001041 0.0002255 -0.0002171 0.0001123 -0.0000471 0.0000054 -0.0000590 0.0003785 0.0000947 -0.0000832 -0.0000660 0.0000302 0.0001018 0.0000152 0.0000742 -0.0001319 0.0000142 0.0002998 -0.0000888 0.0002428 -0.0000156 0.0002371 -0.0001376 0.0008680 -0.0001354 0.0003892 -0.0000313 0.0002757 -0.0001463 -0.0000076 0.0000733 0.0003085 -0.0001527 -0.0002601 0.0000074 0.0000764 0.0000447 0.0003003 -0.0003728 0.0002881 -0.0000348 0.0005027 0.0000033 0.0003421 -0.0000596 -0.0000496 -0.0002374 0.0004363 0.0000853 0.0001017 -0.0000847 0.0001395 0.0001627 -0.0003476 -0.0000427 0.0001360 0.0001942 0.0002051 0.0003811 -0.0003689 0.0000830 -0.0006376 0.0001272 -0.0007509 0.0010377 -0.0019034 0.0000436 0.0001626 -0.0000351 0.0003469 -0.0004654 0.0017323 0.0002291 0.0000373 -0.0001178 -0.0003240 0.0000482 -0.0011617 0.0000956 -0.0000343 -0.0000673 -0.0006005 0.0045519 -0.0047760 -0.0006692 0.0014274 0.0010214 -0.0005489 -0.0009734 0.0011586 -0.0001041 -0.0003124 0.0093063 -0.0141727 -0.0001173 -0.0001878 -0.0005601 0.0006840 -0.0000481 0.0009172 -0.0007048 0.0003382 -0.0000963 0.0000188 0.0000378 0.0000222 -0.0000790 0.0000409 -0.0001183 0.0002838 -0.0001390 0.0004443 0.0001620 0.0001135 0.0004321 0.0000349 -0.0023078 -0.0009173 -0.0188592 0.0227151 0.0000332 -0.0110353 -0.0031715 0.0031080 -0.0006178 0.0010326 -0.0006708 0.0016926 -0.0003613 0.0008168 -0.0001677 0.0004073 0.0000826 0.0001685 -0.0000801 0.0002446 -0.0000628 -0.0001193 0.0003945 0.0017652 -0.0001223 0.0004886 0.0005133 0.0000485 -0.0009986 0.0016862 -0.0000197 -0.0000403 0.0003147 0.0004783 -0.0000909 -0.0001187 -0.0009986 0.0005011 -0.0000750 -0.0005597 0.0001348 -0.0002945 0.0019482 -0.0039823 0.0004035 -0.0005262 -0.0005803 0.0000418 0.0014412 -0.0035430 0.0000762 -0.0001884 -0.0000162 -0.0001804 0.0000383 -0.0001045 0.0002352 -0.0003635 0.0132938 -0.0183080 -0.0006306 0.0001066 -0.0001589 -0.0007098 0.0003291 -0.0006592 -0.0038427 0.0069497 0.0006227 -0.0010922 -0.0000867 -0.0003857 0.0002930 -0.0010015 -0.0006597 0.0025800 0.0021036 -0.0041965 0.0007200 -0.0016211 -0.0001059 -0.0004578 -0.0000724 -0.0006234 -0.0000517 -0.0001163 0.0000210 -0.0004096 -0.0003277 -0.0003344
0.0000128 -0.0001262 -0.0000768 0.0001057 0.0000365 -0.0001922 -0.0000761 -0.0004067 0.0000142 0.0000040 -0.0000830 0.0000980 -0.0001874 0.0001153 -0.0000279 -0.0000073 -0.0000496 0.0003912 0.0000958 -0.0000890 -0.0000361 0.0000438 0.0000813 0.0000450 0.0001281 -0.0001605 0.0000142 0.0002169 -0.0000816 0.0001953 -0.0000049 0.0001502 -0.0001589 0.0007847 -0.0000993 0.0003696 -0.0000121 0.0002695 0.0002276 -0.0003290 0.0000647 0.0002155 -0.0001865 -0.0003857 0.0000381 0.0000977 0.0000518 0.0001842 -0.0001587 0.0001005 -0.0000152 0.0004721 0.0000117 0.0002285 0.0000008 -0.0000337 -0.0002643 0.0003210 0.0000929 -0.0000461 -0.0000529 0.0002554 0.0000749 -0.0002830 0.0000068 0.0000118 0.0002963 -0.0001583 0.0002680 -0.0001594 0.0001108 -0.0004849 0.0000657 -0.0006422 -0.0006490 0.0004375 0.0002242 -0.0001571 0.0000247 0.0001236 0.0002314 0.0017502 0.0003286 -0.0001988 -0.0000585 -0.0003003 0.0005249 -0.0010338 0.0001355 -0.0003121 -0.0000084 -0.0008895 -0.0015614 0.0046502 -0.0005834 0.0003512 0.0000786 -0.0001124 -0.0016690 -0.0002980 -0.0004257 -0.0003406 0.0000994 0.0027447 -0.0001729 -0.0002483 -0.0004099 0.0004992 -0.0000151 0.0010495 -0.0002215 -0.0000208 -0.0001067 -0.0000032 -0.0000936 0.0003239 -0.0000447 -0.0000153 0.0001045 0.0000225 -0.0001616 0.0004766 0.0003191 -0.0001702 -0.0000515 0.0005679 -0.0028038 0.0032709 -0.0035143 -0.0026334 0.0014299 -0.0197940 -0.0083505 0.0042745 -0.0006193 0.0009532 0.0034929 -0.0013433 -0.0004190 0.0006358 -0.0001072 0.0003865 -0.0000394 0.0001727 -0.0001068 0.0001525 0.0000424 -0.0002264 0.0035165 -0.0017067 0.0013915 -0.0007335 0.0011835 -0.0006619 -0.0000449 0.0010774 -0.0001078 -0.0000327 0.0009590 -0.0000786 -0.0002797 0.0001057 0.0004931 -0.0008794 -0.0000239 -0.0006756 0.0001530 -0.0004971 0.0033993 -0.0042017 -0.0000239 -0.0002015 -0.0008840 0.0004440 0.0008445 -0.0028015 0.0002120 -0.0004445 -0.0000272 -0.0002202 -0.0001150 -0.0002361 0.0000582 -0.0004877 0.0069875 -0.0079936 -0.0007118 0.0001348 -0.0001122 -0.0007072 0.0001425 -0.0004551 -0.0117527 0.0147158 0.0002226 -0.0007354 -0.0000490 -0.0004103 -0.0004870 0.0001547 -0.0077637 0.0067870 0.0030924 -0.0038944 -0.0000183 -0.0009503 -0.0000427 -0.0004235 -0.0001392 -0.0005172 -0.0002056 -0.0000168 0.0000012 -0.0003386 0.0003560 -0.0002929
0.0000099 -0.0001190 -0.0000634 0.0001057 0.0000448 -0.0001489 -0.0000913 -0.0003693 0.0000283 0.0000774 -0.0000852 0.0001075 -0.0001695 0.0001638 -0.0000238 0.0000323 -0.0000392 0.0003931 0.0001241 -0.0001058 -0.0000333 0.0000880 0.0000641 0.0000775 0.0000887 -0.0001087 0.0000270 0.0002288 -0.0000658 0.0001999 0.0000266 0.0002420 -0.0001552 0.0007917 -0.0000863 0.0004310 0.0000155 0.0003573 -0.0008629 0.0004794 0.0000659 0.0002269 -0.0004180 -0.0002714 0.0000087 0.0001642 0.0000542 0.0002518 -0.0000820 -0.0000057 -0.0000248 0.0005096 0.0000070 0.0002299 0.0000424 0.0000227 -0.0002811 0.0003742 0.0000719 -0.0000238 -0.0000389 0.0003567 0.0001742 -0.0003939 0.0000320 -0.0000335 0.0002805 -0.0001618 -0.0002142 0.0005361 0.0001088 -0.0002513 0.0001677 -0.0005455 -0.0010736 0.0007216 0.0001320 -0.0000980 0.0001100 0.0000004 -0.0001003 0.0012069 0.0002597 -0.0001642 -0.0000166 -0.0001976 -0.0000296 0.0003944 -0.0003601 0.0002095 -0.0000247 -0.0008976 0.0013323 -0.0016799 -0.0005238 -0.0007401 -0.0006023 0.0003354 0.0005653 0.0022221 -0.0005508 -0.0003342 -0.0053797 0.0124300 -0.0001309 -0.0002802 -0.0004282 0.0006392 0.0000280 0.0011969 -0.0001143 0.0000317 -0.0001314 0.0000089 -0.0000801 0.0002388 -0.0000298 -0.0000516 0.0002358 -0.0000527 -0.0001607 0.0002772 0.0005598 -0.0001510 -0.0003588 0.0005325 -0.0107539 0.0076883 0.0056722 -0.0152327 -0.0182916 0.0138627 -0.0025605 0.0037795 -0.0004648 0.0005636 0.0009007 0.0001693 0.0000606 0.0011957 -0.0001174 0.0002982 -0.0000045 0.0000094 -0.0002227 0.0005716 0.0000951 -0.0003323 0.0023988 -0.0016332 -0.0002775 0.0005184 0.0000615 0.0003054 0.0008535 0.0000095 -0.0001163 -0.0001058 0.0004879 -0.0003641 -0.0000507 -0.0001782 0.0014318 -0.0015320 0.0000193 -0.0007732 0.0001207 -0.0006574 0.0053550 -0.0040428 0.0000381 -0.0004717 0.0003101 -0.0004637 -0.0019979 0.0005939 0.0001758 -0.0006848 -0.0000404 -0.0003327 -0.0001903 -0.0002213 0.0001276 -0.0009587 -0.0025592 0.0022594 -0.0004641 0.0000210 0.0000234 -0.0009365 -0.0006503 0.0000180 -0.0008788 -0.0015183 -0.0006206 -0.0000321 -0.0000227 -0.0005560 -0.0012164 0.0011220 -0.0144425 0.0175951 0.0011833 -0.0015865 -0.0001141 -0.0008249 -0.0000091 -0.0004593 -0.0001138 -0.0005819 -0.0002932 -0.0001233 0.0000295 -0.0004539 0.0002810 -0.0003704
-0.0000030 -0.0001610 -0.0000451 0.0000312 0.0000613 -0.0002220 -0.0001014 -0.0003989 0.0000209 -0.0000050 -0.0000565 0.0001085 -0.0001608 0.0000979 -0.0000168 -0.0000635 -0.0000215 0.0003494 0.0001659 -0.0001531 -0.0000205 0.0000058 0.0000946 0.0000145 0.0001157 -0.0001478 0.0000285 0.0000842 -0.0000644 0.0000927 0.0000399 0.0001720 -0.0001586 0.0006722 -0.0000824 0.0003681 0.0000124 0.0002917 -0.0009422 0.0006343 0.0000655 0.0001926 -0.0003758 -0.0002678 0.0000353 0.0000511 0.0000614 0.0002887 -0.0004804 0.0002489 -0.0000355 0.0004674 0.0000069 0.0001837 0.0000068 0.0000030 -0.0002792 0.0004704 0.0000724 -0.0000197 -0.0000551 0.0003248 0.0003129 -0.0005671 0.0000698 -0.0001886 0.0001913 -0.0000138 -0.0004182 0.0004035 0.0001376 -0.0002323 0.0000792 -0.0004404 -0.0004350 -0.0001641 0.0000609 -0.0000234 0.0001916 -0.0000798 0.0007833 -0.0013726 0.0003553 -0.0002166 -0.0000181 -0.0001481 -0.0002101 0.0005722 -0.0004767 0.0000568 -0.0000226 -0.0008926 0.0051784 -0.0085473 -0.0008409 0.0002152 -0.0004246 0.0003633 -0.0005938 0.0050411 -0.0005072 -0.0003846 -0.0127629 0.0149210 -0.0000867 -0.0002896 -0.0006371 0.0006706 0.0000396 0.0011974 -0.0000679 0.0001366 -0.0000982 0.0000074 0.0001489 0.0000848 -0.0000334 -0.0000563 0.0000691 0.0001471 -0.0002358 0.0000466 0.0002135 0.0000598 -0.0001608 -0.0002115 -0.0102407 0.0071830 0.0050019 -0.0197624 -0.0026755 0.0102730 -0.0033937 0.0041416 -0.0002484 0.0004207 0.0001438 -0.0002310 0.0009668 -0.0003158 -0.0001595 0.0003550 -0.0000098 -0.0000577 -0.0003965 0.0007183 -0.0000457 -0.0002514 0.0014245 0.0006466 -0.0009480 0.0010160 -0.0013489 0.0014087 -0.0015333 0.0011506 0.0000335 -0.0002529 -0.0009950 0.0008109 0.0001574 -0.0003228 0.0008308 -0.0012176 -0.0000035 -0.0006643 0.0000410 -0.0006525 0.0045508 -0.0039641 0.0001732 -0.0005394 0.0000218 -0.0003581 -0.0029199 0.0037417 -0.0000555 -0.0006333 -0.0000628 -0.0003473 -0.0004019 0.0000974 0.0000634 -0.0005872 -0.0000261 -0.0037777 -0.0003380 -0.0000639 -0.0001627 -0.0008135 -0.0001455 -0.0002374 0.0064396 -0.0135628 -0.0012233 0.0005401 -0.0000488 -0.0004901 -0.0004510 0.0000845 -0.0125233 0.0172536 0.0012580 -0.0019817 -0.0000156 -0.0004763 -0.0000289 -0.0002891 -0.0000871 -0.0005839 -0.0002409 0.0000467 0.0000944 -0.0004596 -0.0003225 -0.0002853
-0.0000006 -0.0001288 -0.0000522 0.0000256 0.0000744 -0.0002073 -0.0001188 -0.0004053 0.0000191 0.0000088 -0.0000558 0.0001747 -0.0001589 0.0001163 -0.0000206 -0.0000328 -0.0000340 0.0003054 0.0001488 -0.0001427 -0.0000236 0.0000000 0.0000927 0.0000188 0.0001622 -0.0002905 0.0000254 0.0000919 -0.0000743 0.0000934 0.0000431 0.0002093 -0.0001739 0.0006717 -0.0000762 0.0003288 0.0000200 0.0003167 0.0001153 -0.0007985 0.0000571 0.0001446 -0.0000249 -0.0005579 0.0000542 -0.0000075 0.0000701 0.0002856 -0.0004986 0.0003032 -0.0000533 0.0003608 -0.0000089 0.0000747 -0.0000031 -0.0000540 -0.0002778 0.0004911 0.0001020 -0.0000981 -0.0000811 0.0002813 0.0001954 -0.0005006 0.0001462 -0.0003610 0.0001468 -0.0001134 -0.0001511 -0.0001889 0.0001205 -0.0003298 0.0000420 -0.0004922 -0.0000304 -0.0003462 0.0000359 -0.0001358 0.0001566 -0.0001660 0.0029215 -0.0030371 0.0002691 -0.0001816 0.0000097 -0.0002664 0.0004612 -0.0005117 0.0000958 -0.0007880 -0.0000275 -0.0009806 -0.0054950 0.0012519 -0.0011342 0.0006896 -0.0004587 0.0002847 0.0016885 -0.0006873 -0.0001680 -0.0007151 -0.0044414 -0.0006842 -0.0001061 -0.0004333 -0.0005965 0.0003509 0.0000078 0.0010850 0.0001056 -0.0000751 -0.0000965 0.0000071 0.0001038 0.0000033 -0.0000220 -0.0001846 0.0000257 0.0000119 -0.0001153 -0.0000418 0.0001349 -0.0003204 0.0006017 -0.0006325 -0.0006263 0.0013213 -0.0001213 -0.0106534 0.0101635 -0.0112799 -0.0090096 0.0033028 -0.0003645 0.0004334 0.0030864 -0.0047314 0.0017919 -0.0018152 -0.0000880 0.0001259 -0.0000134 -0.0001547 -0.0006014 0.0005229 -0.0000131 -0.0004012 -0.0000852 0.0015513 0.0001600 -0.0002886 -0.0024911 0.0007099 -0.0020357 0.0008477 0.0001153 -0.0004123 -0.0012955 0.0011519 0.0001356 -0.0003660 0.0001892 -0.0007888 -0.0000337 -0.0006924 0.0000461 -0.0008104 -0.0003558 -0.0005404 0.0000853 -0.0005596 -0.0011919 0.0005746 -0.0016559 0.0021572 -0.0003950 -0.0002449 0.0000137 -0.0005015 0.0002569 -0.0008152 0.0002169 -0.0007994 0.0018129 -0.0198377 0.0001240 -0.0007886 -0.0002584 -0.0008601 -0.0006141 0.0003701 -0.0022256 0.0005802 -0.0017394 0.0010166 -0.0000634 -0.0005477 0.0004458 -0.0010376 -0.0032851 0.0013651 0.0006165 -0.0014638 -0.0001997 -0.0001191 -0.0000172 -0.0002609 -0.0000949 -0.0006174 -0.0003406 0.0002745 0.0000720 -0.0003968 -0.0001565 -0.0001867
-0.0000020 -0.0001222 -0.0000437 -0.0000211 0.0000813 -0.0002132 -0.0001313 -0.0004197 0.0000199 -0.0000061 -0.0000569 0.0002247 -0.0001447 0.0000834 -0.0000311 -0.0000194 -0.0000381 0.0002100 0.0001528 -0.0001614 -0.0000151 -0.0000353 0.0000869 0.0000281 0.0000311 -0.0002767 0.0000287 0.0001215 -0.0000796 0.0000862 0.0000408 0.0002562 -0.0001802 0.0006945 -0.0000705 0.0002678 0.0000277 0.0003303 0.0016185 -0.0023777 0.0000778 0.0001253 0.0000730 -0.0006448 0.0000680 -0.0000247 0.0000622 0.0003273 -0.0003488 0.0000858 -0.0000666 0.0003380 -0.0000269 0.0000760 -0.0000150 -0.0000270 -0.0002861 0.0005818 0.0001178 -0.0000499 -0.0000905 0.0002711 0.0000909 -0.0004493 0.0001331 -0.0003411 0.0001493 -0.0001978 0.0003840 -0.0005383 0.0001242 -0.0003505 0.0000988 -0.0005486 0.0002071 -0.0010243 -0.0000412 0.0000542 0.0000709 -0.0000258 0.0004625 -0.0004066 0.0000054 -0.0001320 0.0000206 -0.0002509 0.0004779 -0.0004362 -0.0000689 -0.0004494 -0.0000941 -0.0008671 -0.0038678 0.0048564 -0.0011840 0.0007149 -0.0002404 -0.0000326 -0.0019135 -0.0002272 0.0002019 -0.0008946 0.0016267 -0.0068653 -0.0000807 -0.0003693 -0.0005845 0.0005013 -0.0000371 0.0011220 -0.0000542 -0.0000873 -0.0001237 0.0000899 0.0000321 0.0000240 -0.0000017 -0.0001356 0.0001248 -0.0000645 -0.0000223 -0.0000976 -0.0001861 -0.0000677 0.0002944 -0.0000641 -0.0036764 0.0060538 -0.0032700 -0.0047587 -0.0022076 0.0032403 -0.0017376 -0.0031346 -0.0002097 0.0002995 0.0025555 -0.0033089 0.0011492 -0.0019128 -0.0000852 0.0000632 -0.0000179 -0.0000992 -0.0002777 0.0003403 0.0000824 -0.0004172 -0.0007100 0.0021454 0.0006583 -0.0005501 -0.0023639 0.0018699 0.0002354 -0.0011990 0.0000078 -0.0003350 -0.0004262 0.0002837 0.0000845 -0.0005686 0.0003070 -0.0008381 0.0000132 -0.0007542 0.0000045 -0.0008522 0.0023271 -0.0029706 0.0001711 -0.0008908 -0.0004973 -0.0006836 -0.0028635 0.0017825 0.0001195 -0.0005650 0.0001147 -0.0007058 0.0005323 -0.0014148 0.0003441 -0.0011573 0.0094329 -0.0303595 0.0006917 -0.0012649 -0.0001520 -0.0008693 -0.0004207 0.0003220 -0.0026867 -0.0014428 -0.0008817 0.0001192 -0.0000258 -0.0006366 0.0005689 -0.0015239 -0.0024809 0.0082785 0.0004920 -0.0008217 0.0001088 -0.0007467 -0.0000308 -0.0003113 -0.0000519 -0.0006539 -0.0001388 -0.0001441 0.0000114 -0.0004469 -0.0007853 0.0009461
0.0000076 -0.0001855 -0.0000179 -0.0001335 0.0000803 -0.0003012 -0.0001269 -0.0005035 0.0000103 -0.0001232 -0.0000351 0.0000982 -0.0001325 -0.0000623 -0.0000210 -0.0001491 -0.0000217 0.0001173 0.0001929 -0.0002504 0.0000172 -0.0001548 0.0001044 -0.0000574 0.0000337 -0.0003206 0.0000263 -0.0000416 -0.0000657 -0.0000830 0.0000329 0.0000890 -0.0002023 0.0004982 -0.0000632 0.0000951 0.0000121 0.0001907 0.0008314 -0.0007449 0.0001059 -0.0000061 0.0000081 -0.0006120 0.0001433 -0.0001495 0.0000601 0.0002781 -0.0004062 -0.0000250 -0.0000634 0.0002224 -0.0000376 0.0000022 -0.0000388 -0.0000179 -0.0003061 0.0006139 0.0000841 -0.0000524 -0.0000772 0.0002391 0.0002354 -0.0006274 0.0000983 -0.0004053 0.0001302 -0.0003324 0.0006442 -0.0007782 0.0000925 -0.0003010 0.0000951 -0.0005701 0.0004501 -0.0009531 0.0000333 0.0000270 0.0000469 -0.0000831 0.0003795 -0.0000950 0.0002476 -0.0005554 0.0000236 -0.0001641 -0.0001612 0.0001484 -0.0000358 -0.0006348 -0.0000134 -0.0009658 -0.0004808 0.0051103 0.0001950 -0.0005152 -0.0002436 -0.0001788 -0.0016968 0.0004840 -0.0001467 -0.0006495 0.0133231 -0.0281714 -0.0000086 -0.0003760 -0.0005127 0.0005458 -0.0000605 0.0011485 -0.0002148 0.0002043 -0.0001380 0.0001304 0.0002003 -0.0000795 -0.0000029 -0.0000827 0.0001222 -0.0000604 -0.0002600 0.0000074 0.0000454 0.0000324 -0.0002565 0.0003921 -0.0039193 0.0070724 0.0043559 -0.0116153 -0.0097883 0.0125874 0.0001755 -0.0020051 -0.0000013 0.0000945 0.0032116 -0.0032952 0.0015714 -0.0023422 -0.0001336 0.0001196 -0.0000467 -0.0000708 -0.0002105 0.0000988 0.0000727 -0.0003975 0.0013665 0.0001279 0.0008864 -0.0009839 -0.0028294 0.0025108 -0.0005535 0.0001522 -0.0000756 -0.0002292 -0.0001693 0.0000214 -0.0001586 -0.0004351 0.0003441 -0.0012023 0.0000340 -0.0006633 -0.0000402 -0.0006841 0.0019161 -0.0036014 0.0000820 -0.0009755 0.0004497 -0.0020399 -0.0016542 0.0011203 0.0010193 -0.0015527 0.0000685 -0.0007149 0.0004601 -0.0014060 0.0001727 -0.0009300 0.0036874 -0.0036896 0.0002207 -0.0006128 -0.0000409 -0.0008591 0.0005515 -0.0007544 0.0062242 -0.0080231 -0.0006105 -0.0002088 -0.0000685 -0.0005039 0.0006422 -0.0008498 -0.0037591 0.0006308 -0.0014355 0.0011818 0.0002017 -0.0009121 -0.0000413 -0.0001366 -0.0000477 -0.0005355 0.0001723 -0.0005356 0.0000480 -0.0003436 0.0000584 -0.0000152
0.0000086 -0.0001234 -0.0000108 -0.0001161 0.0000816 -0.0002502 -0.0001258 -0.0005315 -0.0000003 -0.0000709 -0.0000326 0.0001600 -0.0001233 -0.0000028 -0.0000209 -0.0000807 -0.0000316 0.0000890 0.0001891 -0.0002350 0.0000211 -0.0001064 0.0001279 -0.0000557 0.0001259 -0.0004333 0.0000193 0.0000743 -0.0000397 -0.0000501 0.0000332 0.0002074 -0.0002083 0.0005677 -0.0000649 0.0001380 0.0000045 0.0003051 -0.0010487 0.0009917 0.0001011 0.0000620 -0.0000330 -0.0004532 0.0001091 -0.0001121 0.0000552 0.0003411 -0.0002908 0.0000957 -0.0000976 0.0002239 -0.0000446 -0.0000485 -0.0000612 0.0000236 -0.0003319 0.0006919 0.0000495 -0.0000287 -0.0000933 0.0002863 0.0003793 -0.0006379 0.0001290 -0.0005220 0.0001549 -0.0003886 0.0002289 -0.0006683 0.0000350 -0.0002344 0.0000244 -0.0004722 0.0000411 -0.0004532 0.0001809 -0.0002042 0.0002564 -0.0004290 0.0025196 -0.0024728 0.0004200 -0.0007841 0.0000624 -0.0001249 -0.0004709 0.0002598 0.0000086 -0.0006670 0.0000230 -0.0009583 -0.0007297 0.0017414 0.0003576 -0.0012418 -0.0003834 0.0001961 -0.0016451 0.0030155 -0.0002308 -0.0006189 -0.0021262 0.0028274 0.0000871 -0.0004572 -0.0004811 0.0004549 -0.0000632 0.0010768 -0.0003096 0.0001251 -0.0001453 0.0001382 0.0001540 -0.0000895 -0.0000133 -0.0001957 0.0001917 -0.0002700 -0.0002439 -0.0000133 0.0010638 -0.0008187 -0.0003675 0.0005114 -0.0063947 0.0084624 0.0099257 -0.0130164 -0.0043616 0.0032466 -0.0010133 -0.0006605 -0.0000621 -0.0001092 0.0041933 -0.0044742 0.0014359 -0.0012935 -0.0000913 -0.0001135 0.0000208 -0.0002392 -0.0001657 -0.0003393 0.0003574 -0.0008441 0.0038158 -0.0024427 -0.0006008 -0.0006162 0.0001653 -0.0004819 -0.0024635 0.0018618 -0.0000997 -0.0002399 0.0001139 -0.0002882 0.0000645 -0.0006211 -0.0001345 -0.0011984 0.0000532 -0.0006733 -0.0000984 -0.0007358 -0.0014021 -0.0011467 -0.0001469 -0.0010945 0.0001714 -0.0015005 0.0016100 -0.0031404 0.0003784 -0.0008184 -0.0000395 -0.0007232 0.0004483 -0.0013813 0.0000248 -0.0009307 -0.0042170 0.0090609 -0.0004676 0.0000087 0.0000086 -0.0010030 0.0003162 -0.0008822 0.0025676 -0.0017010 -0.0004348 0.0000641 -0.0000391 -0.0005592 0.0005936 -0.0002011 0.0081964 -0.0230634 -0.0018761 0.0012353 -0.0001572 -0.0005707 -0.0000305 -0.0001065 -0.0000207 -0.0005277 0.0001690 -0.0007877 0.0000774 -0.0003603 0.0006367 -0.0012951
0.0000028 -0.0001523 0.0000045 -0.0001508 0.0000958 -0.0002765 -0.0001297 -0.0005728 -0.0000030 -0.0000976 -0.0000110 0.0001335 -0.0000940 -0.0000414 -0.0000306 -0.0000934 -0.0000342 0.0000426 0.0001897 -0.0002446 0.0000617 -0.0001769 0.0001469 -0.0000817 0.0001123 -0.0004627 0.0000135 0.0000253 -0.0000351 -0.0000550 0.0000282 0.0001990 -0.0002154 0.0005101 -0.0000400 0.0000910 -0.0000105 0.0003191 -0.0004923 0.0001011 0.0000912 0.0000371 -0.0001947 -0.0002572 0.0000685 -0.0001267 0.0000455 0.0003516 -0.0003608 0.0002274 -0.0001212 0.0002219 -0.0000593 -0.0000961 -0.0000486 0.0000292 -0.0003440 0.0007221 0.0000651 -0.0000391 -0.0000967 0.0003563 0.0003767 -0.0006307 0.0001644 -0.0006000 0.0002661 -0.0004637 0.0001292 -0.0007727 0.0000586 -0.0002120 0.0000038 -0.0004078 -0.0006277 -0.0004482 0.0001342 -0.0002109 0.0003990 -0.0005027 0.0005160 -0.0016577 0.0000587 -0.0006078 0.0000826 -0.0001109 0.0000050 -0.0003522 -0.0001114 -0.0004326 0.0000548 -0.0009242 0.0046146 -0.0054898 0.0000297 -0.0014275 0.0000908 -0.0001546 -0.0044256 0.0042753 0.0001176 -0.0008224 -0.0068804 0.0106544 0.0000726 -0.0004509 -0.0006430 0.0007047 -0.0000666 0.0011353 -0.0006540 0.0002990 -0.0001343 0.0001662 0.0000236 0.0001064 -0.0000010 -0.0001801 0.0002551 -0.0003752 -0.0001954 -0.0001855 0.0007582 -0.0009550 0.0000849 -0.0001047 0.0003461 -0.0008111 -0.0054488 0.0100920 -0.0061107 -0.0021611 -0.0056391 0.0057392 0.0000569 -0.0002081 0.0007256 -0.0006437 -0.0005049 0.0003302 -0.0000299 -0.0001741 0.0000888 -0.0002664 0.0000954 -0.0003067 0.0002635 -0.0008150 0.0033190 -0.0034496 -0.0014768 -0.0001892 0.0029916 -0.0030262 -0.0017118 0.0006360 -0.0000835 -0.0002122 0.0006133 -0.0003672 0.0004514 -0.0008798 0.0002792 -0.0017672 0.0000966 -0.0006511 -0.0002724 -0.0007918 -0.0027444 0.0001088 0.0001612 -0.0014258 0.0002107 -0.0014900 -0.0019480 -0.0016408 -0.0001590 -0.0002435 -0.0000363 -0.0007361 0.0000860 -0.0009683 0.0002346 -0.0008579 -0.0157762 0.0088056 -0.0003367 0.0000610 -0.0000025 -0.0008860 0.0001264 -0.0005854 0.0012269 -0.0027940 -0.0002436 -0.0002679 0.0000042 -0.0005259 -0.0011875 0.0004023 0.0021360 -0.0098074 0.0009280 -0.0007522 -0.0003950 -0.0001888 -0.0000419 -0.0000767 0.0000180 -0.0004600 0.0000788 -0.0006194 0.0000729 -0.0003546 0.0000818 -0.0003273
0.0000362 -0.0002259 0.0000248 -0.0002177 0.0001178 -0.0003371 -0.0001190 -0.0006481 -0.0000263 -0.0002263 0.0000143 0.0000257 -0.0000784 -0.0001235 -0.0000340 -0.0001748 -0.0000351 0.0000181 0.0002112 -0.0003012 0.0001162 -0.0002965 0.0001718 -0.0001527 0.0001056 -0.0005000 0.0000105 -0.0001432 -0.0000456 -0.0001564 0.0000199 0.0000472 -0.0002164 0.0003128 -0.0000143 -0.0000698 -0.0000326 0.0001802 -0.0006586 0.0006161 0.0001130 -0.0001712 -0.0001103 -0.0004668 0.0001546 -0.0002810 0.0000487 0.0001949 -0.0005301 0.0001442 -0.0000957 0.0000571 -0.0000564 -0.0002546 -0.0000450 -0.0000413 -0.0003437 0.0006693 0.0000778 -0.0001827 -0.0000785 0.0003371 0.0003886 -0.0008098 0.0001194 -0.0006549 0.0003392 -0.0007173 0.0000389 -0.0008467 0.0000559 -0.0002042 0.0001612 -0.0006119 0.0005837 -0.0010044 0.0000539 -0.0003159 0.0002933 -0.0004679 -0.0001182 -0.0002556 0.0000671 -0.0007095 0.0000842 -0.0001164 0.0003898 -0.0010218 0.0002352 -0.0010035 0.0000415 -0.0010466 0.0052996 -0.0025858 0.0009499 -0.0024693 0.0007097 -0.0013539 -0.0012968 -0.0015628 0.0002406 -0.0007464 0.0095183 -0.0187898 0.0001779 -0.0006430 -0.0008101 0.0008153 -0.0000787 0.0011339 -0.0006589 0.0003120 -0.0001576 0.0002087 -0.0000690 0.0001573 0.0000216 -0.0001893 0.0002811 -0.0004961 -0.0001698 -0.0003877 -0.0000482 -0.0005220 0.0002021 -0.0004192 0.0094979 -0.0143406 -0.0079171 0.0131548 -0.0024857 -0.0070145 -0.0005772 0.0059820 0.0002688 -0.0004865 -0.0008841 0.0020789 0.0007560 -0.0003357 0.0000131 -0.0002243 0.0000549 -0.0002273 -0.0002398 -0.0001239 0.0001961 -0.0007700 0.0007758 -0.0009164 -0.0010801 -0.0001382 0.0002071 -0.0011783 0.0000558 -0.0011237 -0.0000408 -0.0001891 0.0003954 -0.0000582 0.0001506 -0.0004809 0.0007924 -0.0022249 0.0000581 -0.0006246 0.0000833 -0.0010804 -0.0060075 0.0045782 0.0001081 -0.0012579 0.0000407 -0.0014816 -0.0027916 0.0007623 -0.0004665 -0.0001589 0.0000531 -0.0007896 0.0002579 -0.0011404 0.0002740 -0.0007241 0.0023570 -0.0167909 0.0001096 -0.0003651 -0.0000100 -0.0007260 0.0001981 -0.0008908 0.0030951 -0.0048053 -0.0001742 -0.0003428 -0.0000356 -0.0004417 -0.0025731 0.0015319 -0.0086680 0.0106523 -0.0004415 0.0000895 -0.0000575 -0.0003599 -0.0000469 -0.0000190 0.0000265 -0.0003936 0.0000457 -0.0003498 0.0000958 -0.0003026 -0.0004481 0.0003727
0.0000439 -0.0002171 0.0000439 -0.0002465 0.0001356 -0.0003573 -0.0001262 -0.0006501 -0.0000333 -0.0002154 0.0000274 0.0000418 -0.0000689 -0.0001153 -0.0000365 -0.0001650 -0.0000314 -0.0000043 0.0002379 -0.0003184 0.0001128 -0.0002914 0.0002090 -0.0001992 0.0001207 -0.0005405 0.0000097 -0.0001051 -0.0000483 -0.0001867 0.0000209 0.0000862 -0.0001956 0.0003308 -0.0000025 -0.0001069 -0.0000382 0.0002007 -0.0010286 0.0005950 0.0001268 -0.0001930 -0.0000440 -0.0004836 0.0001138 -0.0003204 0.0000481 0.0001884 -0.0004949 0.0001370 -0.0001016 0.0000763 -0.0000546 -0.0002609 -0.0000523 -0.0000249 -0.0003535 0.0007542 0.0000843 -0.0001742 -0.0000882 0.0003668 0.0003224 -0.0007213 0.0001203 -0.0006798 0.0003819 -0.0007342 -0.0001250 -0.0006814 0.0000541 -0.0001613 0.0002192 -0.0006481 0.0005900 -0.0011949 0.0001479 -0.0003760 0.0003191 -0.0004440 0.0002780 0.0007868 0.0003559 -0.0008762 0.0000776 -0.0000811 0.0003502 -0.0005653 0.0004140 -0.0012457 0.0000604 -0.0010410 0.0014213 0.0001803 0.0013118 -0.0020784 0.0002435 -0.0011020 -0.0129162 0.0104306 0.0001597 -0.0005669 0.0093785 -0.0316956 0.0003015 -0.0006925 -0.0005507 0.0005234 -0.0001120 0.0011220 -0.0004033 0.0002156 -0.0001716 0.0002861 0.0000675 -0.0000435 0.0000397 -0.0001349 0.0002117 -0.0003985 -0.0001757 -0.0004981 0.0001470 -0.0003998 -0.0002684 -0.0001184 0.0045231 -0.0080931 -0.0062361 0.0047295 0.0021004 -0.0012709 0.0009042 0.0013479 0.0006807 -0.0009019 0.0002651 0.0009644 0.0013454 0.0000293 0.0000150 -0.0002496 -0.0000902 -0.0001344 -0.0001218 -0.0003660 0.0001284 -0.0006413 0.0001816 -0.0008866 0.0005830 -0.0012666 -0.0026096 0.0021521 -0.0001320 -0.0012082 -0.0000061 -0.0002280 0.0005972 -0.0005226 -0.0000990 -0.0002963 0.0003701 -0.0017031 0.0000911 -0.0006614 0.0002356 -0.0012101 -0.0057645 0.0063397 -0.0002182 -0.0009970 -0.0008411 -0.0007130 0.0015231 -0.0024755 -0.0003720 -0.0003845 0.0001087 -0.0008419 0.0004437 -0.0019298 0.0001543 -0.0006718 -0.0013978 -0.0040822 -0.0000529 -0.0001201 -0.0000751 -0.0005869 -0.0000830 -0.0006902 -0.0033455 0.0031053 0.0008697 -0.0005535 -0.0000175 -0.0004733 -0.0023591 0.0007501 -0.0021315 0.0080530 -0.0016933 0.0002457 0.0003551 -0.0008423 -0.0000723 -0.0001150 0.0000180 -0.0004069 0.0000671 -0.0005429 0.0000872 -0.0003862 -0.0008870 0.0001960
0.0000589 -0.0002801 0.0000561 -0.0002906 0.0001534 -0.0004434 -0.0001298 -0.0006508 -0.0000105 -0.0001936 0.0000165 0.0000154 -0.0000499 -0.0001804 -0.0000371 -0.0002114 -0.0000064 -0.0000275 0.0002605 -0.0003508 0.0001231 -0.0003840 0.0002101 -0.0002100 0.0001450 -0.0006047 0.0000194 -0.0001361 -0.0000500 -0.0002435 0.0000272 0.0000437 -0.0001902 0.0002651 0.0000334 -0.0002349 -0.0000412 0.0001478 0.0006854 -0.0011067 0.0001440 -0.0002445 -0.0001739 -0.0003139 0.0001041 -0.0004479 0.0000506 0.0001912 -0.0004600 0.0001796 -0.0001125 0.0000976 -0.0000718 -0.0002255 0.0000104 -0.0000607 -0.0003703 0.0008341 0.0001088 -0.0001420 -0.0000981 0.0003959 0.0002665 -0.0006600 0.0002023 -0.0007909 0.0002564 -0.0006288 -0.0000465 -0.0009075 0.0000162 -0.0001246 0.0000739 -0.0004579 0.0001689 -0.0017493 0.0002337 -0.0004266 0.0003160 -0.0003239 0.0009651 -0.0013605 0.0003561 -0.0008092 0.0000389 -0.0001383 -0.0000059 -0.0001283 0.0003657 -0.0011485 0.0001488 -0.0010378 -0.0020324 -0.0018575 0.0008875 -0.0008770 0.0002081 -0.0006730 -0.0169979 0.0146648 -0.0001609 -0.0004271 -0.0140202 -0.0074954 0.0001214 -0.0005256 -0.0006021 0.0004525 -0.0001340 0.0011608 -0.0003117 0.0002677 -0.0001681 0.0003478 0.0001903 -0.0001161 0.0000275 -0.0000393 0.0001416 -0.0002615 -0.0000796 -0.0006779 0.0001545 -0.0004623 0.0001900 -0.0014813 0.0049843 -0.0062735 -0.0186802 0.0222777 -0.0083540 0.0135077 -0.0010903 -0.0025487 0.0004559 -0.0005830 -0.0008680 0.0008118 -0.0006071 0.0011049 0.0000324 -0.0001597 -0.0000371 -0.0001347 0.0001641 -0.0008068 -0.0000352 -0.0003745 0.0016748 -0.0026306 0.0024164 -0.0029251 -0.0033264 0.0029513 -0.0004327 -0.0005762 0.0000325 -0.0002593 0.0005851 -0.0008800 0.0002964 -0.0006189 0.0008107 -0.0021103 0.0000832 -0.0005625 0.0001830 -0.0012537 -0.0064040 0.0057217 -0.0000763 -0.0009578 -0.0007489 -0.0004868 0.0030037 -0.0049709 -0.0002041 -0.0008082 0.0001021 -0.0006999 -0.0000070 -0.0016373 -0.0000268 -0.0003932 -0.0049864 0.0097151 0.0001472 -0.0001757 0.0000217 -0.0006121 0.0003063 -0.0006662 -0.0128214 0.0136896 0.0000867 0.0002880 0.0000004 -0.0003874 -0.0004011 -0.0005792 -0.0030043 0.0022737 -0.0019058 0.0002654 -0.0001778 -0.0002099 -0.0000483 -0.0001351 -0.0000701 -0.0002873 -0.0000243 -0.0004480 0.0000664 -0.0003198 -0.0004353 -0.0001112
0.0000840 -0.0002800 0.0000615 -0.0002636 0.0001561 -0.0004215 -0.0001093 -0.0006385 -0.0000190 -0.0001657 -0.0000239 0.0000650 -0.0000362 -0.0001271 -0.0000489 -0.0001585 0.0000012 0.0000036 0.0002542 -0.0003397 0.0001220 -0.0003672 0.0002165 -0.0001663 0.0001785 -0.0006987 0.0000193 -0.0000291 -0.0000477 -0.0001816 0.0000149 0.0000794 -0.0001903 0.0003591 0.0000533 -0.0002378 -0.0000428 0.0001908 0.0013973 -0.0015899 0.0001654 -0.0002382 -0.0002920 -0.0002619 0.0001424 -0.0004223 0.0000418 0.0000928 -0.0003989 0.0001484 -0.0000548 0.0001401 -0.0000392 -0.0001993 0.0000097 -0.0000198 -0.0003790 0.0008497 0.0001548 -0.0001402 -0.0001136 0.0004261 0.0002906 -0.0007360 0.0002071 -0.0007600 0.0001301 -0.0004588 0.0002802 -0.0011816 -0.0000136 -0.0001587 0.0000118 -0.0002992 -0.0010552 -0.0005859 0.0001350 -0.0004408 0.0002193 -0.0002274 0.0010406 -0.0025451 0.0003394 -0.0008269 0.0000376 -0.0002824 0.0008919 -0.0013454 0.0002648 -0.0011274 0.0001270 -0.0010394 -0.0022180 0.0007557 0.0007450 -0.0014143 0.0008878 -0.0013779 -0.0056884 0.0052451 0.0000813 -0.0005837 -0.0122789 0.0065732 0.0000286 -0.0004726 -0.0007681 0.0004428 -0.0001175 0.0011326 -0.0002471 0.0002046 -0.0001629 0.0003255 -0.0000308 0.0000523 0.0000058 -0.0000663 0.0002823 -0.0004872 0.0000739 -0.0006917 0.0006509 -0.0011225 0.0005917 -0.0018231 0.0072485 -0.0082710 -0.0058550 0.0080997 -0.0163489 0.0135695 0.0005907 0.0018703 0.0002172 -0.0005202 -0.0027805 0.0028679 -0.0008598 0.0000580 0.0000185 -0.0002298 0.0001124 -0.0003592 0.0003043 -0.0013869 0.0001239 -0.0006067 0.0008689 -0.0005225 0.0026199 -0.0037635 -0.0032104 0.0027267 -0.0021563 0.0008421 -0.0000005 -0.0003917 -0.0012058 0.0000656 0.0005001 -0.0008156 0.0009906 -0.0022087 0.0000340 -0.0005561 0.0003352 -0.0015121 -0.0048131 0.0014386 0.0002965 -0.0012093 -0.0003884 -0.0013370 0.0036907 -0.0032290 -0.0001357 -0.0014349 0.0000258 -0.0006057 -0.0003072 -0.0011648 0.0001335 -0.0004531 0.0043662 -0.0029525 0.0000449 -0.0002770 0.0001625 -0.0009116 0.0007103 -0.0010361 0.0021869 0.0074825 -0.0004003 0.0001285 -0.0000481 -0.0004453 0.0004665 -0.0004559 0.0113910 -0.0122931 -0.0017168 0.0002260 -0.0001928 -0.0002766 -0.0000100 -0.0002904 -0.0000300 -0.0005041 0.0001065 -0.0006388 0.0000807 -0.0004318 -0.0004937 -0.0000777
0.0000789 -0.0003181 0.0000836 -0.0002826 0.0001684 -0.0004266 -0.0001093 -0.0006049 -0.0000094 -0.0001169 -0.0000620 -0.0000219 -0.0000040 -0.0000921 -0.0000530 -0.0001542 0.0000366 0.0000207 0.0002695 -0.0003626 0.0001447 -0.0004230 0.0002408 -0.0002268 0.0002960 -0.0007742 0.0000132 -0.0000525 -0.0000499 -0.0002147 0.0000148 0.0001013 -0.0001740 0.0003557 0.0000705 -0.0002357 -0.0000236 0.0002237 -0.0002341 -0.0005135 0.0001883 -0.0002756 -0.0003007 -0.0004663 0.0001880 -0.0004303 0.0000205 0.0001010 -0.0004882 0.0002559 -0.0000449 0.0000707 -0.0001160 -0.0000467 -0.0000459 0.0000475 -0.0004036 0.0007924 0.0001750 -0.0000601 -0.0001294 0.0004930 0.0003220 -0.0008008 0.0001422 -0.0005599 0.0002064 -0.0002850 0.0004302 -0.0008533 -0.0001137 -0.0000287 -0.0000185 -0.0001377 -0.0038663 0.0022139 0.0001206 -0.0003926 0.0002785 -0.0003699 0.0018534 -0.0013302 0.0004115 -0.0009486 0.0000081 -0.0004357 0.0010306 -0.0016530 0.0000607 -0.0012931 0.0001227 -0.0010638 -0.0091396 0.0090490 0.0008172 -0.0022497 0.0002336 -0.0010484 -0.0028406 0.0024367 -0.0001867 -0.0003306 0.0053149 -0.0112467 0.0000856 -0.0005167 -0.0005243 0.0000395 -0.0000109 0.0010241 -0.0000878 0.0002041 -0.0001851 0.0003167 -0.0001651 0.0001940 0.0000179 0.0000356 0.0003616 -0.0006321 -0.0000090 -0.0005917 0.0007220 -0.0008562 0.0001431 -0.0007908 -0.0022161 -0.0017389 -0.0007209 -0.0067787 -0.0080103 0.0105503 -0.0027873 0.0060730 0.0002648 -0.0006192 -0.0014843 0.0000171 -0.0001581 -0.0005354 0.0000235 -0.0001540 0.0001923 -0.0005597 0.0003987 -0.0015386 0.0002464 -0.0007083 0.0010171 -0.0019424 0.0008667 -0.0022247 -0.0001926 -0.0007047 -0.0005671 -0.0019799 -0.0000103 -0.0005308 -0.0009253 -0.0006010 0.0000600 -0.0004432 0.0007485 -0.0015657 0.0000618 -0.0005816 0.0001060 -0.0013455 -0.0015680 -0.0005174 0.0005740 -0.0015974 0.0006976 -0.0023972 0.0028023 -0.0023133 0.0002768 -0.0018481 0.0000698 -0.0007216 0.0000197 -0.0013085 0.0004404 -0.0002935 0.0046091 -0.0069515 0.0003300 -0.0008202 0.0000611 -0.0007543 -0.0000914 0.0000092 0.0070423 0.0008336 0.0001279 -0.0003891 -0.0000248 -0.0004417 0.0017572 -0.0012010 0.0133897 -0.0104056 -0.0002624 -0.0001318 0.0004579 -0.0010489 -0.0000700 -0.0002631 -0.0000014 -0.0005112 0.0002759 -0.0007037 0.0000256 -0.0004622 -0.0008505 -0.0001251
0.0000125 -0.0002405 0.0001047 -0.0003045 0.0001712 -0.0005007 -0.0000848 -0.0001986 0.0002192 0.0005327 -0.0002534 -0.0003555 -0.0000193 -0.0002083 0.0000363 0.0001070 0.0000064 -0.0001629 0.0003092 -0.0003675 0.0001524 -0.0006266 0.0002141 -0.0003625 0.0003028 -0.0008563 -0.0000134 -0.0002208 -0.0001115 -0.0003574 0.0000106 0.0000738 -0.0002144 0.0000126 0.0000508 -0.0005078 0.0000061 0.0002157 0.0006958 -0.0001516 0.0002344 -0.0003608 0.0002517 0.0004194 0.0002208 -0.0006226 -0.0000141 -0.0007163 0.0004585 0.0015064 -0.0003966 -0.0006969 0.0000639 0.0014211 -0.0003956 -0.0007441 -0.0003054 0.0012813 0.0001553 -0.0002276 -0.0001859 0.0002833 0.0003424 -0.0008726 0.0001442 -0.0004533 0.0002545 -0.0004395 0.0003655 -0.0013075 -0.0000629 0.0016967 0.0000723 0.0007468 -0.0004932 0.0013352 0.0002542 -0.0007060 0.0002312 -0.0007657 -0.0005557 0.0007459 0.0003912 -0.0010709 -0.0000281 -0.0006838 0.0005921 -0.0012631 0.0000806 -0.0016341 0.0001478 -0.0012417 -0.0063152 0.0029420 -0.0002606 -0.0009220 -0.0007329 -0.0005550 0.0002423 -0.0004852 -0.0002381 -0.0004142 0.0204679 -0.0438888 0.0000829 -0.0007080 -0.0000184 -0.0016500 -0.0001337 -0.0004997 0.0003951 0.0008841 -0.0002065 0.0003475 0.0000543 -0.0000590 0.0000412 0.0000882 0.0002830 -0.0007782 0.0001562 -0.0008512 0.0000608 -0.0005893 0.0001547 -0.0011556 -0.0190970 0.0134013 -0.0049327 -0.0029807 -0.0090078 0.0074476 -0.0006722 0.0004734 0.0002577 -0.0008470 0.0003939 -0.0024895 -0.0006805 -0.0000104 0.0000643 -0.0002983 0.0002136 -0.0006474 -0.0000610 -0.0009819 0.0002015 -0.0006397 0.0007752 -0.0025868 0.0002527 -0.0018556 0.0009547 -0.0016168 -0.0005638 -0.0024694 0.0001212 -0.0006058 0.0003738 -0.0009713 -0.0001992 -0.0004131 0.0007402 -0.0011459 0.0001037 -0.0006250 0.0000043 -0.0012649 0.0008476 -0.0001098 0.0003420 -0.0015263 0.0009757 -0.0025228 0.0018505 -0.0042768 0.0001492 -0.0010428 0.0001132 -0.0006642 -0.0000669 -0.0011827 0.0002938 0.0000183 -0.0033334 0.0038704 0.0007380 -0.0013964 -0.0001345 -0.0004934 -0.0002005 0.0001065 -0.0032837 -0.0001480 -0.0002179 0.0005806 0.0001627 -0.0000730 0.0023409 -0.0011667 0.0035968 -0.0038894 0.0007822 -0.0000399 0.0002100 -0.0005957 -0.0000307 -0.0001218 0.0001495 -0.0001667 0.0001013 -0.0002501 0.0000342 -0.0002998 -0.0011228 -0.0007748
-0.0002197 -0.0001866 0.0000918 -0.0003273 0.0002136 -0.0003774 0.0004466 0.0030562 0.0004374 0.0021084 -0.0007641 -0.0012919 -0.0000710 -0.0002503 0.0009133 0.0033330 0.0000116 -0.0000081 0.0003233 -0.0003076 0.0001763 -0.0004559 0.0001993 -0.0003496 0.0001890 -0.0011288 -0.0001242 -0.0002924 -0.0000856 -0.0000760 -0.0001376 -0.0002811 -0.0003374 -0.0004717 -0.0000328 -0.0007774 0.0000448 0.0005438 0.0021374 0.0005914 0.0002434 -0.0004811 0.0008285 0.0021354 0.0001188 -0.0004213 -0.0002627 -0.0027408 0.0018822 0.0042025 -0.0010939 -0.0014369 0.0010828 0.0028119 -0.0010279 -0.0021409 -0.0001305 0.0021985 0.0000827 -0.0005132 -0.0003030 -0.0000226 0.0002534 -0.0008404 0.0002948 -0.0004790 0.0003095 -0.0005415 0.0001556 -0.0018804 0.0002973 0.0038667 0.0006171 0.0025187 0.0030661 0.0006471 0.0002142 -0.0006928 0.0000118 -0.0011864 -0.0018025 0.0007611 0.0002420 -0.0012228 -0.0000651 -0.0010193 0.0007421 -0.0015126 -0.0001832 -0.0018525 0.0000828 -0.0014245 -0.0049493 -0.0000753 -0.0007433 -0.0004950 0.0000466 -0.0012600 0.0004913 0.0014175 0.0003866 -0.0008239 0.0080987 -0.0140921 0.0000614 -0.0005520 0.0008358 -0.0039497 -0.0003261 -0.0023615 0.0007167 0.0020351 -0.0002676 0.0001748 0.0001228 -0.0003197 0.0001104 0.0003214 0.0002195 -0.0008739 0.0002249 -0.0010270 -0.0001345 -0.0010090 -0.0000672 -0.0013272 -0.0025283 0.0058695 -0.0043435 -0.0020307 0.0045271 -0.0219704 -0.0005352 0.0010999 0.0004568 -0.0011274 0.0026329 -0.0027262 -0.0001649 -0.0004116 0.0000036 -0.0005457 0.0001429 -0.0006673 -0.0000716 -0.0006099 0.0002006 -0.0005962 0.0004806 -0.0004439 0.0002788 -0.0020970 0.0008075 -0.0013874 -0.0007474 -0.0004228 0.0000859 -0.0006988 0.0003044 0.0002450 0.0001649 -0.0006419 0.0005285 -0.0009389 0.0000226 -0.0006248 0.0001369 -0.0013211 0.0032169 -0.0013569 -0.0000325 -0.0014596 -0.0000563 -0.0021732 0.0026098 -0.0049632 0.0003050 -0.0006909 0.0001026 -0.0005180 0.0002123 -0.0019011 0.0002840 -0.0003839 -0.0130841 0.0096308 0.0000488 -0.0006705 -0.0002005 -0.0007149 -0.0001705 -0.0002695 -0.0145114 0.0150318 0.0003251 -0.0000511 0.0002966 0.0002861 0.0005300 -0.0000702 0.0037314 -0.0101979 0.0010073 0.0001583 0.0000571 -0.0007656 0.0000808 -0.0003214 0.0002187 -0.0000267 0.0002425 -0.0003883 0.0001081 -0.0003095 -0.0003861 -0.0017295
-0.0003306 -0.0003779 0.0000551 -0.0004505 0.0004807 0.0003668 0.0015767 0.0072293 0.0001423 0.0017650 -0.0009997 -0.0021385 0.0001518 0.0004748 0.0014283 0.0049201 -0.0001769 -0.0008753 0.0002604 -0.0005248 0.0004634 0.0003126 0.0002094 -0.0003879 0.0001808 -0.0015316 -0.0005708 -0.0019224 0.0001622 0.0009341 -0.0003996 -0.0013671 -0.0004256 -0.0010087 0.0001715 -0.0004933 0.0002638 0.0012836 0.0024350 0.0024376 0.0001236 -0.0011428 0.0008076 0.0023643 0.0002044 0.0001183 -0.0002662 -0.0023960 0.0018111 0.0051621 -0.0009342 -0.0006451 0.0015124 0.0017620 -0.0008025 -0.0013582 -0.0001962 0.0020223 0.0000121 -0.0003958 -0.0002522 0.0002751 0.0002618 -0.0007268 0.0001887 -0.0007440 0.0002643 -0.0007305 -0.0006444 -0.0006945 0.0001912 0.0038481 0.0007174 0.0029843 0.0006891 0.0023318 0.0001740 -0.0003424 -0.0000389 -0.0014299 0.0007597 -0.0001885 0.0000279 -0.0012741 -0.0000892 -0.0012643 0.0004230 -0.0024080 -0.0003992 -0.0024817 -0.0000950 -0.0022620 -0.0018125 -0.0009388 0.0001471 -0.0014374 0.0006359 -0.0019255 0.0024967 -0.0004018 0.0000687 -0.0018349 0.0014564 0.0081942 0.0000708 -0.0008398 0.0006694 -0.0038469 -0.0004129 -0.0020472 0.0003971 0.0025125 -0.0003881 -0.0001233 -0.0000230 -0.0004906 0.0001632 0.0005049 0.0002172 -0.0009651 0.0001693 -0.0011471 -0.0000478 -0.0008209 -0.0004844 -0.0003984 0.0075644 -0.0096225 -0.0021312 0.0002610 0.0021856 0.0035804 -0.0006285 -0.0004347 0.0003994 -0.0011035 0.0024185 -0.0021097 -0.0020138 0.0012444 0.0000358 -0.0005528 0.0000839 -0.0009042 0.0001319 -0.0007297 0.0002537 -0.0005438 0.0031602 -0.0026743 0.0009975 -0.0024034 -0.0011154 -0.0008450 0.0005256 -0.0017042 -0.0001418 -0.0008979 0.0002647 -0.0000348 0.0004238 -0.0006447 -0.0005510 -0.0003280 -0.0000518 -0.0007905 0.0001425 -0.0010968 0.0010220 -0.0006051 -0.0000326 -0.0012377 0.0001245 -0.0014900 -0.0016902 0.0004398 0.0003832 -0.0009511 0.0001939 -0.0004149 0.0004811 -0.0017750 0.0001314 -0.0005018 -0.0218838 0.0146609 -0.0002973 -0.0001908 -0.0000994 -0.0008854 -0.0005282 0.0004504 -0.0112326 0.0117379 0.0012437 -0.0010417 0.0002733 0.0003379 0.0011117 -0.0017301 -0.0064303 0.0047614 0.0010454 -0.0002898 0.0002065 -0.0007025 0.0001056 -0.0002292 0.0001528 -0.0000086 0.0003010 -0.0004825 0.0000941 -0.0001731 0.0000981 -0.0013399
0.0001141 0.0002082 0.0000808 -0.0004210 0.0006769 0.0010412 0.0015931 0.0062654 -0.0003346 0.0001253 -0.0004510 -0.0010886 0.0004118 0.0012528 0.0009502 0.0031184 -0.0005056 -0.0023669 0.0002146 -0.0007647 0.0006160 0.0010406 0.0002185 -0.0004679 0.0001327 -0.0014109 -0.0008333 -0.0029956 0.0002457 0.0011512 -0.0005015 -0.0018371 -0.0003931 -0.0010084 0.0004128 -0.0000880 0.0004190 0.0017172 0.0024214 0.0043930 0.0000328 -0.0014602 0.0006362 0.0017897 0.0003694 0.0004540 0.0000843 -0.0004866 0.0006507 0.0034213 -0.0002416 0.0005354 0.0009972 -0.0001714 -0.0001130 0.0005215 -0.0004056 0.0012746 0.0000290 0.0000517 -0.0000777 0.0009126 0.0002607 -0.0004787 -0.0000371 -0.0008058 0.0000771 -0.0008479 -0.0001884 -0.0003908 -0.0004213 0.0029656 -0.0000109 0.0028314 -0.0009465 0.0032718 0.0002906 0.0000380 0.0000705 -0.0009429 -0.0001180 0.0021907 0.0002902 -0.0010823 -0.0000379 -0.0010634 0.0002759 -0.0028061 -0.0001871 -0.0025676 -0.0003019 -0.0027670 0.0019693 -0.0010807 0.0011493 -0.0018331 -0.0002097 -0.0013548 0.0066957 -0.0052698 -0.0003790 -0.0030404 0.0076524 0.0005735 0.0000735 -0.0015654 -0.0005791 -0.0020072 -0.0008071 -0.0006440 -0.0000401 0.0019195 -0.0004068 -0.0001387 -0.0000641 -0.0004357 0.0001488 0.0004146 0.0002729 -0.0009738 0.0000834 -0.0010992 0.0000715 -0.0005593 0.0000975 -0.0002111 0.0007695 -0.0096825 0.0141736 -0.0163556 0.0035132 0.0091999 -0.0067196 0.0051748 0.0001880 -0.0009927 0.0000137 -0.0013603 -0.0024512 0.0012758 0.0001175 -0.0005075 -0.0000419 -0.0010073 0.0003145 -0.0011028 0.0002637 -0.0005036 0.0026500 -0.0039715 0.0014585 -0.0025305 -0.0005669 -0.0023155 0.0000518 -0.0020340 -0.0002371 -0.0008775 -0.0003599 -0.0004385 0.0006455 -0.0006854 -0.0015065 0.0008960 -0.0000572 -0.0010204 -0.0001616 -0.0005983 -0.0029907 0.0026465 -0.0000106 -0.0008870 0.0009052 -0.0010484 -0.0000861 -0.0008535 0.0004065 -0.0013262 0.0001788 -0.0001113 0.0003484 -0.0010788 -0.0001370 -0.0003733 -0.0032593 -0.0029438 -0.0004075 -0.0000022 -0.0001958 -0.0007213 -0.0002356 0.0006156 -0.0000279 -0.0036238 0.0021061 -0.0017931 0.0002259 0.0002627 0.0015836 -0.0024657 -0.0125567 0.0085677 0.0008419 -0.0005348 -0.0008977 0.0010168 0.0001723 0.0000114 0.0001886 0.0001052 0.0000293 -0.0001501 0.0000652 -0.0000594 0.0003401 -0.0014163
0.0004512 0.0007689 0.0001791 -0.0002873 0.0007576 0.0012934 0.0009573 0.0034581 -0.0003171 -0.0001403 -0.0000013 -0.0000893 0.0006036 0.0016583 0.0008327 0.0028358 -0.0004863 -0.0023199 0.0002668 -0.0007104 0.0007410 0.0013612 0.0002340 -0.0003478 0.0001635 -0.0013828 -0.0011469 -0.0040876 0.0004729 0.0020966 -0.0006285 -0.0021232 -0.0003192 -0.0007164 0.0005986 0.0003361 0.0006065 0.0023745 0.0029616 0.0047962 0.0000565 -0.0013491 0.0008994 0.0018131 0.0003877 0.0005443 0.0003067 0.0001357 0.0003874 0.0021981 0.0000026 0.0005853 0.0004757 -0.0008818 0.0001676 0.0011537 -0.0004450 0.0011662 -0.0000297 0.0000416 0.0000078 0.0012730 0.0002990 -0.0004889 -0.0001020 -0.0009083 -0.0002585 -0.0011156 0.0008769 -0.0015249 -0.0007403 0.0028511 -0.0004747 0.0032385 -0.0011125 0.0027253 0.0003252 0.0002379 0.0000598 -0.0006755 -0.0005139 0.0012250 0.0003776 -0.0008952 0.0001459 -0.0003114 -0.0001346 -0.0014312 0.0001731 -0.0017969 -0.0003144 -0.0022074 -0.0059381 0.0050773 0.0009297 -0.0014091 -0.0000613 -0.0016674 0.0035753 -0.0000333 -0.0005217 -0.0024804 0.0041401 0.0054549 -0.0000271 -0.0011832 -0.0011590 -0.0008122 -0.0009438 0.0001731 -0.0001931 0.0018402 -0.0004010 -0.0001060 0.0000549 -0.0002567 0.0001255 0.0003877 0.0001264 -0.0009436 0.0000000 -0.0011944 0.0001489 -0.0002290 -0.0000729 0.0000171 -0.0035160 -0.0024611 0.0144644 -0.0119150 0.0051609 0.0072814 -0.0050342 0.0021522 0.0001445 -0.0008433 -0.0000510 -0.0015716 0.0001338 -0.0005226 0.0001586 -0.0000862 -0.0000781 -0.0009258 0.0004231 -0.0010213 0.0002203 -0.0005591 -0.0007046 -0.0009428 0.0009794 -0.0014371 0.0007923 -0.0030649 -0.0000907 -0.0006812 -0.0001235 -0.0004022 -0.0007836 0.0001481 0.0004643 0.0002086 0.0001748 0.0005931 -0.0000841 -0.0005512 -0.0000067 -0.0002919 0.0026987 -0.0030708 0.0004341 -0.0011733 0.0015898 -0.0012443 0.0021852 -0.0009117 0.0003483 -0.0003717 0.0002386 0.0004014 0.0003062 -0.0006215 -0.0003222 0.0004300 -0.0009755 -0.0075010 0.0002032 0.0000926 -0.0000484 -0.0000908 -0.0001462 0.0008189 -0.0014854 0.0012879 0.0020008 -0.0004457 0.0004215 0.0006141 0.0008055 0.0000049 0.0006563 -0.0042817 0.0008677 0.0005566 -0.0004404 0.0014368 0.0003588 0.0008279 0.0002638 0.0007062 0.0001025 0.0002490 0.0001160 0.0002128 0.0008421 -0.0007998
0.0009466 0.0022097 0.0003296 0.0001006 0.0010119 0.0020602 0.0016675 0.0059032 -0.0003722 -0.0007369 0.0006280 0.0016841 0.0009509 0.0026867 0.0013089 0.0046112 -0.0002845 -0.0016712 0.0003013 -0.0006353 0.0009944 0.0020192 0.0002058 -0.0002969 -0.0000249 -0.0020675 -0.0022180 -0.0078736 0.0008790 0.0041116 -0.0011123 -0.0032775 -0.0003015 -0.0007060 0.0008939 0.0010287 0.0009819 0.0036527 0.0040466 0.0062233 0.0000611 -0.0015877 0.0014654 0.0025503 0.0004025 0.0005621 0.0004477 0.0003116 0.0010732 0.0028407 0.0006617 0.0017342 0.0000678 -0.0004548 0.0008763 0.0021721 -0.0003974 0.0012530 -0.0002387 -0.0005310 -0.0000016 0.0013217 0.0002295 -0.0009993 -0.0001638 -0.0014963 -0.0007151 -0.0021233 0.0007008 -0.0019811 -0.0007153 0.0037167 -0.0004108 0.0036072 -0.0015993 0.0020321 0.0002505 0.0000805 -0.0000528 -0.0013676 0.0012167 -0.0009223 0.0000860 -0.0007805 0.0003604 0.0005589 -0.0005452 0.0006091 0.0003517 -0.0009053 -0.0000980 -0.0014200 -0.0055025 0.0048280 0.0002745 -0.0009919 0.0002065 -0.0022887 0.0028806 -0.0004797 -0.0001355 -0.0002247 0.0012236 0.0070009 0.0001071 -0.0001210 -0.0008512 -0.0008744 -0.0007567 0.0003431 0.0000911 0.0024558 -0.0004340 -0.0002299 0.0001525 -0.0003302 0.0000858 0.0002303 -0.0001573 -0.0012723 -0.0000388 -0.0015147 0.0001629 -0.0003378 -0.0006414 0.0005219 -0.0003964 0.0012233 0.0044401 0.0002643 -0.0020684 0.0043015 0.0040115 -0.0088068 0.0002971 -0.0014695 -0.0007264 -0.0013840 0.0006899 -0.0013914 0.0002010 0.0000441 -0.0002128 -0.0008790 -0.0000450 -0.0001498 -0.0001062 -0.0004132 -0.0003986 -0.0008114 0.0006975 -0.0007027 -0.0016783 0.0008108 -0.0012818 0.0004907 0.0001198 0.0001819 -0.0009261 0.0012396 0.0003906 0.0009997 0.0012811 0.0003025 0.0000207 0.0002508 0.0004403 -0.0002237 0.0042550 -0.0083869 0.0008487 -0.0011077 0.0007058 -0.0002182 -0.0007176 0.0036016 0.0000938 0.0009431 0.0004055 0.0010150 0.0007455 -0.0007499 -0.0001553 0.0009814 -0.0090226 0.0028825 0.0008408 0.0003982 0.0003523 0.0007295 0.0004626 0.0007641 -0.0110611 0.0042125 0.0014162 0.0016417 0.0006504 0.0012846 0.0001861 0.0026619 -0.0027360 0.0098917 0.0025759 0.0014999 0.0006922 0.0015866 0.0006665 0.0019687 0.0005048 0.0012979 0.0001925 0.0007187 0.0001996 0.0006995 0.0007533 0.0014596
