-0.0000000 -0.0000000 -0.0000000 -0.0000000 -0.0000000 -0.0000000 -0.0000000 -0.0000000 -0.0000000 -0.0000000 -0.0000000 -0.0000000 -0.0000000 -0.0000000 -0.0000000 -0.0000000 -0.0000000 -0.0000000 -0.0000000 -0.0000000 -0.0000000 -0.0000000 -0.0000000 -0.0000000 -0.0000000 -0.0000000 -0.0000000 -0.0000000 -0.0000000 -0.0000000 -0.0000000 -0.0000000 -0.0000000 -0.0000000 -0.0000000 -0.0000000 -0.0000000 -0.0000000 -0.0000000 -0.0000000 -0.0000000 -0.0000000 -0.0000000 -0.0000000 -0.0000000 -0.0000000 -0.0000000 -0.0000000 -0.0000000 -0.0000000 -0.0000000 -0.0000000 -0.0000000 -0.0000000 -0.0000000 -0.0000000 -0.0000000 -0.0000000 -0.0000000 -0.0000000 -0.0000000 -0.0000000 -0.0000000 -0.0000000 -0.0000000 -0.0000000 -0.0000000 -0.0000000 -0.0000000 -0.0000000 -0.0000000 -0.0000000 -0.0000000 -0.0000000 -0.0000000 -0.0000000 -0.0000000 -0.0000000 -0.0000000 -0.0000000 -0.0000000 -0.0000000 -0.0000000 -0.0000000 -0.0000000 -0.0000000 -0.0000000 -0.0000000 -0.0000000 -0.0000000 -0.0000000 -0.0000000 -0.0000000 -0.0000000 -0.0000000 -0.0000000 -0.0000000 -0.0000000 -0.0000000 -0.0000000 -0.0000000 -0.0000000 -0.0000000 -0.0000000 -0.0000000 -0.0000000 -0.0000000 -0.0000000 -0.0000000 -0.0000000 -0.0000000 -0.0000000 -0.0000000 -0.0000000 -0.0000000 -0.0000000 -0.0000000 -0.0000000 -0.0000000 -0.0000000 -0.0000000 -0.0000000 -0.0000000 -0.0000000 -0.0000000 -0.0000000 -0.0000000 -0.0000000 -0.0000000 -0.0000000 -0.0000000 -0.0000000 -0.0000000 -0.0000000 -0.0000000 -0.0000000 -0.0000000 -0.0000000 -0.0000000 -0.0000000
-0.0000000 -0.0000000 -0.0000000 -0.0000000 -0.0000000 -0.0000000 -0.0000000 -0.0000000 -0.0000000 -0.0000000 -0.0000000 -0.0000000 -0.0000000 -0.0000000 -0.0000000 -0.0000000 -0.0000000 -0.0000000 -0.0000000 -0.0000000 -0.0000000 -0.0000000 -0.0000000 -0.0000000 -0.0000000 -0.0000000 -0.0000000 -0.0000000 -0.0000000 -0.0000000 -0.0000000 -0.0000000 -0.0000000 -0.0000000 -0.0000000 -0.0000000 -0.0000000 -0.0000000 -0.0000000 -0.0000000 -0.0000000 -0.0000000 -0.0000000 -0.0000000 -0.0000000 -0.0000000 -0.0000000 -0.0000000 -0.0000000 -0.0000000 -0.0000000 -0.0000000 -0.0000000 -0.0000000 -0.0000000 -0.0000000 -0.0000000 -0.0000000 -0.0000000 -0.0000000 -0.0000000 -0.0000000 -0.0000000 -0.0000000 -0.0000000 -0.0000000 -0.0000000 -0.0000000 -0.0000000 -0.0000000 -0.0000000 -0.0000000 -0.0000000 -0.0000000 -0.0000000 -0.0000000 -0.0000000 -0.0000000 -0.0000000 -0.0000000 -0.0000000 -0.0000000 -0.0000000 -0.0000000 -0.0000000 -0.0000000 -0.0000000 -0.0000000 -0.0000000 -0.0000000 -0.0000000 -0.0000000 -0.0000000 -0.0000000 -0.0000000 -0.0000000 -0.0000000 -0.0000000 -0.0000000 -0.0000000 -0.0000000 -0.0000000 -0.0000000 -0.0000000 -0.0000000 -0.0000000 -0.0000000 -0.0000000 -0.0000000 -0.0000000 -0.0000000 -0.0000000 -0.0000000 -0.0000000 -0.0000000 -0.0000000 -0.0000000 -0.0000000 -0.0000000 -0.0000000 -0.0000000 -0.0000000 -0.0000000 -0.0000000 -0.0000000 -0.0000000 -0.0000000 -0.0000000 -0.0000000 -0.0000000 -0.0000000 -0.0000000 -0.0000000 -0.0000000 -0.0000000 -0.0000000 -0.0000000 -0.0000000 -0.0000000 -0.0000000
0.0000202 -0.0000549 0.0000027 0.0000116 0.0000002 -0.0000856 0.0000168 0.0000026 0.0000424 -0.0000911 -0.0000341 0.0000090 0.0000049 -0.0000787 -0.0000017 0.0000040 -0.0000190 0.0000080 0.0000089 -0.0000126 0.0000231 -0.0000472 -0.0001684 0.0003931 -0.0000044 -0.0000841 0.0000135 -0.0000467 0.0000002 -0.0000823 0.0000141 -0.0000485 -0.0000092 -0.0000474 0.0000039 -0.0000849 0.0000075 -0.0000669 0.0000003 -0.0000800 -0.0000087 -0.0000288 0.0000070 -0.0000819 -0.0000046 -0.0000344 0.0000464 -0.0000804 -0.0001442 0.0000808 0.0000125 -0.0000180 0.0000166 0.0000124 0.0000010 0.0000576 -0.0000293 0.0000644 -0.0000253 -0.0000296 -0.0001829 0.0002328 0.0001696 0.0000563 0.0001025 0.0000101 -0.0000264 0.0000428 -0.0000210 0.0000961 -0.0000008 -0.0000234 -0.0000027 -0.0000036 0.0000009 -0.0000111 0.0000034 0.0000098 -0.0000074 0.0000020 -0.0000310 0.0000770 0.0000014 -0.0000032 -0.0000095 -0.0000124 0.0000093 0.0000313 -0.0000176 0.0000314 0.0000188 0.0000053 -0.0001071 0.0000506 0.0000041 0.0000134 -0.0000068 -0.0000119 0.0000088 0.0000944 0.0000069 0.0000205 0.0000087 0.0000176 -0.0000056 -0.0000200 0.0000014 0.0000017 -0.0000087 0.0000296 -0.0000008 -0.0000057 -0.0000151 -0.0000238 -0.0000106 -0.0000090 -0.0000010 0.0000537 0.0000131 0.0000439 -0.0000175 0.0000340 0.0001015 -0.0001910 -0.0000372 0.0001158 -0.0001758 0.0001834 0.0000359 0.0001000 -0.0000343 -0.0000598 0.0000265 0.0000284 0.0001347 -0.0000592 -0.0000161 -0.0001279 -0.0000711 0.0001134
0.0000031 0.0000355 0.0000144 0.0000561 -0.0000138 0.0000035 0.0000231 0.0001744 0.0000057 0.0000253 -0.0000398 0.0000433 -0.0000029 0.0000433 0.0000130 0.0000448 -0.0000091 0.0000448 -0.0000009 0.0000544 -0.0000016 0.0000816 -0.0001371 0.0003287 -0.0000048 -0.0000134 -0.0000052 0.0000107 -0.0000024 0.0000118 0.0000095 -0.0000178 0.0000043 -0.0000059 0.0000048 -0.0000126 0.0000110 -0.0000218 0.0000165 -0.0000194 -0.0000196 0.0000247 0.0000062 -0.0000092 0.0000032 0.0000280 0.0000139 0.0000869 -0.0001673 0.0001428 0.0000489 0.0000228 0.0000822 0.0000454 -0.0000069 0.0000763 -0.0000006 0.0001025 -0.0000717 -0.0000131 -0.0001142 0.0000874 0.0001285 0.0000440 0.0000087 0.0001182 0.0000672 -0.0000281 0.0000180 0.0001260 0.0000029 -0.0000643 0.0000416 -0.0000527 0.0000085 -0.0000192 0.0000087 -0.0000387 -0.0000020 -0.0000237 0.0000061 0.0000367 0.0000195 -0.0000268 -0.0000152 -0.0000433 -0.0000283 0.0000025 -0.0000148 -0.0000105 0.0000332 -0.0000640 -0.0000418 -0.0000361 -0.0000064 -0.0000024 -0.0000117 -0.0000205 0.0000179 0.0001106 0.0000130 0.0000130 0.0000143 0.0000068 -0.0000067 -0.0000558 -0.0000096 -0.0000361 0.0000122 -0.0000048 -0.0000008 -0.0000348 -0.0000306 -0.0000301 -0.0000221 0.0000016 0.0000162 0.0000867 0.0000100 0.0001327 -0.0000051 0.0000935 0.0003735 -0.0002039 0.0000697 0.0000900 -0.0002528 0.0003397 0.0000759 0.0002420 -0.0000652 -0.0000883 0.0000533 0.0001180 0.0000068 0.0001031 -0.0000493 -0.0002559 0.0000276 0.0000975
-0.0000104 0.0000695 0.0000260 0.0000654 -0.0000185 -0.0000275 0.0000261 0.0002089 0.0000140 0.0000224 0.0000284 0.0000140 -0.0000120 0.0000474 -0.0000044 0.0000644 0.0000014 0.0000578 0.0000032 0.0000647 0.0000408 0.0000814 -0.0001134 0.0002905 -0.0000079 -0.0000390 -0.0000134 0.0000177 -0.0000058 -0.0000220 -0.0000028 -0.0000082 0.0000055 -0.0000056 0.0000164 -0.0000515 -0.0000101 0.0000032 0.0000418 -0.0000449 0.0000050 0.0000045 0.0000063 -0.0000552 0.0000030 0.0000181 0.0000315 -0.0000132 0.0003069 -0.0002640 0.0000090 0.0000040 -0.0000006 0.0000556 -0.0000441 0.0000345 0.0000191 0.0000362 0.0000147 -0.0001433 0.0002235 -0.0002576 0.0000484 -0.0000288 -0.0000159 0.0001257 0.0000589 -0.0000819 -0.0000059 0.0001247 0.0000198 -0.0000294 0.0000359 0.0000034 0.0000352 0.0001190 0.0000224 -0.0000941 0.0000031 -0.0000301 -0.0000164 0.0000395 0.0000556 0.0000768 -0.0000179 -0.0000374 -0.0000427 0.0000334 0.0000020 -0.0000088 0.0000115 -0.0000549 -0.0000361 -0.0000751 -0.0000102 0.0000064 -0.0000209 0.0000232 0.0000139 0.0000713 0.0000123 0.0000522 0.0000123 0.0000345 -0.0000133 -0.0000179 -0.0000101 -0.0000306 -0.0000024 0.0000187 -0.0000006 -0.0000041 -0.0000418 -0.0000570 -0.0000164 0.0000389 0.0000298 0.0001013 0.0000114 0.0001729 0.0000871 0.0000861 0.0002251 -0.0002214 0.0000229 0.0001694 -0.0001840 0.0002120 0.0001091 0.0004272 -0.0000314 -0.0001891 0.0000663 0.0001774 -0.0000659 0.0001149 -0.0000963 -0.0004298 0.0002065 -0.0000733
-0.0000153 0.0000078 0.0000265 0.0000223 -0.0000170 -0.0001091 0.0000250 0.0001242 0.0000246 -0.0000302 0.0000064 0.0000130 -0.0000130 0.0000020 0.0000130 0.0000256 -0.0000218 0.0000764 0.0000337 0.0000330 0.0000526 0.0001280 0.0004279 -0.0002565 0.0000013 0.0000084 -0.0000071 0.0000057 -0.0000054 0.0000347 -0.0000070 0.0000139 0.0000116 0.0000889 -0.0000256 0.0000485 -0.0000147 0.0000360 0.0000632 0.0000605 0.0000016 0.0000456 0.0000041 0.0001086 -0.0000022 0.0001020 0.0000150 0.0001399 0.0001519 0.0000050 -0.0000588 0.0002231 -0.0000405 0.0002360 -0.0000701 0.0001526 0.0000111 0.0001955 -0.0000123 -0.0000664 0.0002288 -0.0003669 -0.0000403 0.0001692 -0.0000838 0.0003144 0.0000349 0.0000565 -0.0000067 0.0001537 0.0000255 -0.0000151 0.0000219 0.0000183 0.0000608 0.0002091 0.0000466 -0.0001313 -0.0000093 -0.0000530 0.0000438 -0.0000306 0.0000757 0.0001755 -0.0000182 -0.0000409 -0.0000303 -0.0000362 0.0000159 -0.0000205 0.0000185 -0.0000806 -0.0000374 -0.0000182 -0.0000224 0.0000618 -0.0000182 0.0000596 0.0000084 -0.0000250 0.0000221 0.0000692 0.0000171 0.0000279 0.0000070 -0.0000137 -0.0000091 -0.0000564 -0.0000126 0.0000182 0.0000025 -0.0000038 -0.0000437 -0.0000635 -0.0000091 0.0000545 0.0000502 0.0000896 -0.0000264 0.0002173 0.0000148 0.0002636 0.0001910 -0.0001309 -0.0000382 0.0003854 0.0003194 -0.0002483 0.0001453 0.0005718 -0.0001933 -0.0001184 0.0000770 0.0002490 -0.0001029 0.0000806 -0.0001306 -0.0004904 -0.0000192 0.0000909
-0.0000010 0.0000121 0.0000256 0.0000373 -0.0000124 -0.0000791 0.0000183 0.0001109 0.0000182 -0.0000066 0.0000254 -0.0000059 -0.0000105 0.0000167 0.0000226 0.0000146 -0.0000034 0.0000926 0.0000380 0.0000210 -0.0000020 0.0001989 0.0004910 -0.0002713 -0.0000008 0.0000205 -0.0000022 0.0000057 -0.0000101 0.0000372 -0.0000140 -0.0000085 0.0000069 0.0001011 -0.0000381 0.0000682 0.0000024 0.0000195 0.0000428 0.0000847 0.0000065 0.0000429 0.0000084 0.0001216 0.0000002 0.0001191 0.0000318 0.0001975 0.0003715 -0.0000873 -0.0000235 0.0002026 0.0000104 0.0002258 -0.0000409 0.0001285 0.0000315 0.0001541 -0.0000053 0.0000361 -0.0000563 -0.0001037 -0.0000854 0.0001647 -0.0000881 0.0002343 0.0000158 0.0000754 -0.0000418 0.0001679 0.0000206 -0.0000304 0.0000294 -0.0000061 0.0000751 0.0001950 0.0000593 -0.0000829 0.0000111 -0.0000605 -0.0000231 0.0000864 0.0000757 0.0002171 -0.0000193 0.0000209 0.0000207 -0.0000984 0.0000177 0.0000325 -0.0000250 -0.0000323 0.0000636 0.0000470 -0.0000278 0.0001521 -0.0000170 0.0001289 0.0000072 -0.0000603 0.0000316 0.0001339 0.0000213 0.0000578 0.0000170 0.0000349 -0.0000063 -0.0000117 -0.0000121 0.0000284 0.0000019 0.0000249 -0.0000484 -0.0000295 -0.0000148 0.0000741 0.0000603 0.0001484 -0.0000318 0.0002671 0.0000330 0.0003690 -0.0002508 0.0003667 0.0000923 0.0003276 0.0000716 0.0000540 0.0001554 0.0004926 -0.0001866 -0.0001239 0.0000815 0.0002694 0.0000551 -0.0002354 -0.0001454 -0.0004397 -0.0000052 0.0000495
0.0000120 -0.0000606 0.0000003 -0.0000070 -0.0000140 -0.0000876 0.0000010 -0.0000205 0.0000171 -0.0000793 0.0000145 -0.0000616 -0.0000242 -0.0000150 0.0000348 -0.0000004 -0.0000047 0.0000574 0.0000387 0.0000057 -0.0000195 0.0001543 -0.0001180 0.0002314 0.0000003 -0.0000355 -0.0000024 0.0000040 -0.0000037 -0.0000255 -0.0000149 -0.0000347 -0.0000084 0.0000407 -0.0000064 -0.0000266 0.0000022 -0.0000133 -0.0000658 0.0001087 0.0000164 0.0000285 0.0000070 0.0000103 -0.0000080 0.0000875 0.0000142 0.0000170 0.0003062 -0.0003087 -0.0000331 0.0001642 -0.0000167 0.0002320 -0.0000534 0.0000741 -0.0000044 0.0001102 0.0000570 0.0001161 -0.0000695 0.0000640 0.0001320 0.0001165 -0.0000655 0.0003468 0.0000088 0.0003098 -0.0000222 0.0003132 0.0000121 -0.0000295 0.0000185 0.0000127 0.0000772 0.0002043 0.0000749 -0.0000756 0.0000278 -0.0000788 -0.0000655 0.0000961 0.0000928 0.0002418 -0.0000059 0.0000396 0.0000388 -0.0001384 0.0000142 0.0000395 -0.0000486 -0.0000359 0.0001824 -0.0001745 -0.0000057 0.0001783 -0.0000182 0.0001735 0.0000074 -0.0000288 0.0000473 0.0001173 0.0000305 0.0000309 0.0000311 0.0000625 0.0000024 -0.0000296 -0.0000065 0.0000020 0.0000001 -0.0000068 -0.0000453 -0.0000041 -0.0000148 0.0000546 0.0000701 0.0001918 -0.0000054 0.0002933 0.0001338 0.0003262 0.0000074 0.0000750 0.0001207 0.0003152 0.0002256 -0.0001417 0.0001441 0.0004821 -0.0001090 -0.0000790 0.0000736 0.0003308 0.0000977 -0.0001746 -0.0001505 -0.0004357 0.0001899 -0.0000300
-0.0000052 -0.0000095 0.0000183 0.0000528 -0.0000263 -0.0001324 0.0000142 0.0000480 -0.0000124 -0.0001133 -0.0000360 -0.0000493 -0.0000199 0.0000039 0.0000194 0.0000673 -0.0000401 0.0001026 0.0000207 0.0000498 0.0000135 0.0001968 -0.0003778 0.0003830 0.0000006 -0.0000187 -0.0000235 -0.0000213 -0.0000110 0.0000009 -0.0000432 -0.0000613 -0.0000345 0.0000681 0.0000193 -0.0000269 -0.0000030 -0.0000132 -0.0000777 0.0000497 0.0000185 0.0000628 -0.0000135 -0.0001000 -0.0000127 0.0000684 0.0000001 0.0002214 0.0001668 -0.0007449 0.0000450 0.0004765 -0.0000100 0.0003706 -0.0000879 -0.0000491 -0.0000551 0.0001551 0.0000188 0.0000737 0.0000485 -0.0000117 0.0002841 -0.0001848 -0.0001329 0.0004788 0.0000589 0.0001829 0.0000008 0.0003027 0.0000035 -0.0000341 -0.0000051 0.0000462 0.0000723 0.0001907 0.0000725 -0.0000521 0.0000258 -0.0000588 -0.0000459 0.0000396 0.0000809 0.0002549 0.0000009 0.0000459 0.0000334 -0.0000841 -0.0000046 0.0000637 -0.0000301 -0.0000230 0.0002034 -0.0002027 0.0000070 0.0002364 -0.0000181 0.0001802 0.0000115 0.0000865 0.0000509 0.0001298 0.0000275 0.0000242 0.0000176 0.0000793 0.0000044 -0.0000275 0.0000089 -0.0000278 -0.0000060 -0.0000231 -0.0000471 0.0000591 -0.0000207 0.0000536 0.0000482 0.0002174 -0.0000156 0.0004196 0.0001697 0.0002802 0.0000680 0.0000140 0.0001852 0.0003675 -0.0000514 0.0002502 0.0001096 0.0003052 -0.0000928 0.0000107 0.0000631 0.0003395 0.0000073 0.0000115 -0.0001211 -0.0003288 -0.0000147 0.0001646
0.0000055 -0.0000043 0.0000388 0.0001361 -0.0000473 -0.0002190 0.0000283 0.0000581 -0.0000297 -0.0001846 -0.0000193 -0.0001150 0.0000004 -0.0000692 -0.0000001 0.0001197 -0.0000185 0.0000992 -0.0000023 0.0000881 0.0000497 0.0002876 -0.0000778 0.0001777 -0.0000111 -0.0000993 -0.0000428 -0.0001132 -0.0000330 -0.0000949 -0.0000644 -0.0001458 -0.0000359 0.0000347 0.0000263 -0.0000594 -0.0000010 -0.0000399 0.0000139 -0.0000598 0.0000264 0.0000426 -0.0000259 -0.0002557 -0.0000000 0.0000065 0.0000674 0.0003759 0.0001112 -0.0013483 0.0001232 0.0006904 0.0000721 0.0003994 -0.0001246 -0.0001807 -0.0000894 0.0001743 -0.0000484 0.0000008 -0.0001676 0.0001061 -0.0000192 -0.0001692 -0.0001794 0.0003581 -0.0000764 0.0001210 -0.0000695 0.0001817 0.0000026 -0.0000305 0.0000200 0.0000340 0.0000652 0.0001553 0.0000454 -0.0000332 0.0000213 -0.0000348 0.0000208 -0.0000360 0.0000785 0.0002182 0.0000110 0.0000697 0.0000218 0.0000205 -0.0000004 0.0000121 0.0000671 -0.0000746 0.0001924 -0.0000817 0.0000081 0.0002569 -0.0000048 0.0001987 0.0000034 0.0001223 0.0000269 0.0000976 0.0000026 -0.0000200 0.0000084 0.0001111 -0.0000079 -0.0000407 -0.0000083 -0.0000515 -0.0000171 -0.0000402 -0.0000546 0.0001083 -0.0000237 0.0000385 0.0000061 0.0001512 -0.0000122 0.0005182 0.0001305 0.0002348 0.0002953 -0.0003456 0.0000107 0.0004756 -0.0005205 0.0004863 0.0000192 -0.0001079 0.0001277 0.0000903 0.0000445 0.0002062 0.0000967 -0.0000462 -0.0000168 0.0000450 -0.0000810 0.0001794
0.0000204 0.0000762 0.0000431 0.0001835 -0.0000618 -0.0000966 -0.0000037 0.0000847 -0.0000331 -0.0000863 -0.0000556 -0.0000001 -0.0000105 0.0000655 -0.0000375 0.0001582 -0.0000297 0.0001498 0.0000033 0.0001208 0.0000551 0.0005230 0.0002494 -0.0000600 -0.0000293 -0.0000348 -0.0000566 -0.0001057 -0.0000595 -0.0000325 -0.0000704 -0.0001445 0.0000001 0.0001091 0.0000099 0.0000336 0.0000026 0.0000351 -0.0000188 0.0000375 0.0000185 0.0000624 -0.0000373 -0.0002828 -0.0000071 -0.0000078 0.0000877 0.0003135 -0.0000120 -0.0013380 0.0000821 0.0005808 0.0000669 0.0003917 -0.0000801 -0.0001791 -0.0000817 0.0001182 0.0000344 -0.0001445 -0.0003100 0.0002546 -0.0003309 0.0000995 0.0000768 0.0001229 0.0001016 -0.0000663 -0.0001209 0.0001266 0.0000095 -0.0000091 0.0000316 0.0000589 0.0000381 0.0001267 0.0000234 0.0000146 0.0000193 0.0000130 0.0000252 -0.0000188 0.0000572 0.0001389 0.0000097 0.0001345 0.0000276 0.0000108 -0.0000103 0.0000220 0.0000665 -0.0000460 -0.0000662 0.0002757 0.0000046 0.0002579 0.0000156 0.0002856 -0.0000161 -0.0000045 -0.0000090 0.0000499 -0.0000082 -0.0000829 0.0000026 0.0001452 -0.0000213 0.0000080 -0.0000185 -0.0000657 -0.0000234 -0.0000189 -0.0000492 0.0001853 -0.0000203 0.0000575 -0.0000246 -0.0000118 0.0000180 0.0005831 0.0000701 0.0003032 0.0004466 -0.0005233 -0.0000510 0.0004803 -0.0005412 0.0004486 -0.0000821 -0.0004438 0.0003319 0.0001304 -0.0000036 0.0000268 0.0000711 -0.0000231 0.0000860 0.0004034 0.0000327 0.0001333
0.0000320 0.0000459 -0.0000219 -0.0000259 0.0000344 0.0002580 -0.0000862 -0.0002627 0.0000233 0.0001772 -0.0000058 0.0000906 -0.0000482 -0.0000804 -0.0000917 -0.0003775 -0.0000417 0.0000709 -0.0000150 0.0000650 0.0000681 0.0004588 -0.0000271 0.0000155 -0.0000549 -0.0001770 -0.0000486 -0.0001610 -0.0000761 -0.0001100 -0.0000627 -0.0002150 -0.0000046 0.0000769 0.0000091 0.0000304 -0.0000278 0.0000465 -0.0000437 -0.0000623 0.0000248 -0.0000045 -0.0000511 -0.0004048 -0.0000151 -0.0001183 0.0000218 0.0001052 -0.0001975 -0.0014564 0.0001184 0.0004867 0.0000365 0.0002416 -0.0001041 -0.0004320 -0.0000514 0.0000746 0.0000183 -0.0002967 -0.0004587 -0.0000959 -0.0003238 -0.0003143 0.0003373 -0.0002660 0.0000374 -0.0004913 -0.0000148 -0.0001506 0.0000215 0.0000257 0.0000249 0.0000694 0.0000224 0.0001184 0.0000113 0.0000473 0.0000389 0.0000360 0.0000183 -0.0000304 0.0000355 0.0000536 0.0000145 0.0001717 0.0000433 -0.0000613 -0.0000309 0.0000648 0.0000433 -0.0000005 -0.0000918 0.0002444 0.0000000 0.0002423 0.0000256 0.0003380 -0.0000190 0.0000042 -0.0000298 0.0000418 -0.0000265 -0.0000763 -0.0000112 0.0001605 -0.0000148 0.0000354 -0.0000272 -0.0000568 -0.0000262 0.0000018 -0.0000522 0.0002185 -0.0000236 0.0000573 -0.0000787 -0.0001536 0.0000394 0.0006176 -0.0001294 0.0004934 0.0006199 -0.0004924 0.0000659 0.0002800 0.0003654 -0.0001812 -0.0001143 -0.0005096 0.0003165 0.0002257 -0.0000267 -0.0001091 -0.0000591 0.0000645 0.0000954 0.0005611 -0.0000170 0.0001373
0.0000455 0.0000312 -0.0000466 -0.0001474 0.0000739 0.0003195 -0.0001227 -0.0005554 0.0000475 0.0001911 0.0000297 0.0000036 -0.0000654 -0.0002233 -0.0000928 -0.0005851 -0.0000287 -0.0000670 -0.0000084 0.0000247 0.0000613 0.0003831 -0.0000436 0.0001241 -0.0000960 -0.0005202 -0.0000448 -0.0002464 -0.0000947 -0.0003200 -0.0000635 -0.0002157 -0.0000201 0.0000792 -0.0000134 0.0000407 -0.0000402 0.0000448 -0.0000024 0.0000144 0.0000269 -0.0000146 -0.0000571 -0.0003163 -0.0000098 -0.0001578 0.0000462 0.0004355 -0.0005517 -0.0016433 0.0001574 0.0008779 0.0000074 0.0005092 -0.0001763 -0.0005262 -0.0000803 0.0003116 -0.0000859 -0.0006153 -0.0008608 -0.0003780 -0.0003062 -0.0008957 0.0002303 -0.0004363 -0.0001321 -0.0007385 -0.0000753 -0.0002668 0.0000238 0.0000676 0.0000521 0.0000648 0.0000313 0.0001491 -0.0000245 -0.0000278 0.0000562 0.0000491 -0.0000478 -0.0000547 0.0000563 0.0001091 0.0000257 0.0001626 -0.0000522 0.0000067 -0.0000292 0.0000462 0.0000481 -0.0000257 0.0001853 0.0000628 -0.0000037 0.0001364 0.0000353 0.0004101 -0.0000321 -0.0001016 -0.0000453 0.0000184 -0.0000564 -0.0000632 0.0000000 0.0001770 -0.0000145 0.0000371 -0.0000187 -0.0000786 -0.0000299 0.0000382 -0.0000586 0.0001493 -0.0000096 0.0001139 -0.0001714 -0.0004494 0.0001291 0.0006714 -0.0001973 0.0002973 0.0003414 0.0000105 0.0000213 0.0000104 0.0007947 -0.0005702 -0.0001579 -0.0005750 0.0003468 0.0003945 -0.0000601 -0.0002797 0.0000159 -0.0001496 0.0001007 0.0006662 -0.0001368 0.0001531
0.0000345 0.0001329 0.0000388 0.0000522 -0.0000121 -0.0000168 -0.0000758 -0.0004128 0.0000085 -0.0000556 0.0000312 -0.0001467 -0.0000347 -0.0001029 -0.0000379 -0.0001085 -0.0000354 -0.0000490 0.0000138 0.0000465 0.0001138 0.0003472 0.0004088 -0.0000056 -0.0001371 -0.0008572 -0.0000502 -0.0003020 -0.0001026 -0.0005592 -0.0000740 -0.0001274 -0.0000173 0.0000623 -0.0000076 -0.0000189 -0.0000274 0.0000287 0.0000678 0.0000505 0.0000195 -0.0000268 -0.0000524 -0.0003380 -0.0000004 -0.0002746 0.0001140 0.0007546 -0.0003730 -0.0021475 0.0001130 0.0009086 0.0000334 0.0005856 -0.0001881 -0.0004324 -0.0001011 0.0003397 -0.0001313 -0.0007150 -0.0008203 -0.0004905 -0.0000684 -0.0012826 0.0000475 -0.0003359 -0.0001266 -0.0006715 -0.0001808 -0.0001614 0.0000751 0.0001033 0.0000416 0.0001335 -0.0000296 0.0001244 -0.0002146 -0.0002292 0.0000573 0.0000838 -0.0000472 -0.0001906 0.0000851 0.0002768 0.0000414 0.0000949 -0.0000826 -0.0001191 -0.0000516 0.0000234 0.0000007 -0.0000673 0.0000308 0.0003569 -0.0000203 -0.0000704 0.0000575 0.0005216 -0.0000679 -0.0004634 -0.0000583 -0.0000753 -0.0000682 -0.0001311 0.0000334 0.0001927 -0.0000123 -0.0000051 -0.0000037 -0.0001479 -0.0000254 0.0000283 -0.0000361 0.0000678 0.0000181 0.0001394 -0.0002639 -0.0008310 0.0001754 0.0006537 -0.0003661 0.0000570 -0.0001781 0.0005649 -0.0001291 -0.0001968 -0.0001698 -0.0000972 -0.0002136 -0.0007537 0.0004158 0.0003625 -0.0001239 -0.0004579 0.0000442 -0.0002643 0.0001396 0.0007932 -0.0001333 0.0001002
0.0000346 0.0000624 0.0000436 0.0000515 -0.0000471 -0.0001281 -0.0000703 -0.0004276 -0.0000350 -0.0000721 0.0000553 -0.0002045 -0.0000302 -0.0000942 -0.0000175 0.0000413 -0.0000287 -0.0000359 -0.0000117 0.0000592 0.0000862 0.0002434 0.0003264 -0.0000552 -0.0001439 -0.0010352 -0.0000419 -0.0003229 -0.0000834 -0.0006922 -0.0000490 -0.0000736 0.0000149 -0.0000340 -0.0000018 -0.0000867 -0.0000083 -0.0000183 0.0000580 0.0000017 -0.0000169 -0.0000345 -0.0000465 -0.0004015 -0.0000055 -0.0003769 0.0000753 0.0006598 -0.0008285 -0.0016193 0.0000539 0.0006789 0.0000078 0.0005664 -0.0001504 -0.0003194 -0.0001337 0.0003833 -0.0002265 -0.0004820 -0.0007070 -0.0004054 -0.0001089 -0.0011238 -0.0000329 -0.0001737 -0.0002864 -0.0005618 -0.0001339 -0.0002312 0.0001160 0.0001114 0.0000138 0.0001716 -0.0000994 0.0000329 -0.0003545 -0.0003981 0.0000369 0.0000859 0.0000185 -0.0003475 0.0000953 0.0003115 0.0000444 0.0000812 -0.0000068 -0.0003163 -0.0000388 -0.0000120 0.0000062 -0.0001396 -0.0003249 0.0005772 -0.0000222 -0.0002015 0.0000698 0.0005197 -0.0000797 -0.0006020 -0.0000730 -0.0001042 -0.0000744 -0.0001629 0.0000478 0.0001673 -0.0000058 -0.0000184 -0.0000017 -0.0001841 -0.0000271 0.0000251 -0.0000236 0.0000706 0.0000163 0.0001098 -0.0002379 -0.0009237 0.0001527 0.0004726 -0.0004072 -0.0001299 -0.0001131 0.0003934 -0.0002080 -0.0003077 -0.0011283 0.0004888 -0.0002242 -0.0007205 0.0003242 0.0003313 -0.0001324 -0.0004990 -0.0000793 -0.0000658 0.0001519 0.0007251 -0.0000538 0.0000491
0.0000283 0.0001042 0.0000247 0.0000587 -0.0000560 -0.0001810 -0.0000676 -0.0003488 -0.0000580 0.0000087 0.0000598 -0.0001807 -0.0000321 -0.0000395 -0.0000196 0.0001930 0.0000054 -0.0000553 -0.0000205 0.0000807 0.0000051 0.0002245 -0.0000769 0.0002159 -0.0001688 -0.0011392 -0.0000503 -0.0002531 -0.0000801 -0.0006936 -0.0000353 0.0000300 -0.0000056 -0.0000277 0.0000070 -0.0000602 0.0000030 -0.0000008 0.0000109 0.0000161 -0.0000012 -0.0000161 -0.0000486 -0.0003833 -0.0000293 -0.0003625 0.0000806 0.0005832 -0.0008845 -0.0011795 -0.0000044 0.0004167 -0.0001227 0.0006167 -0.0001292 -0.0002304 -0.0001967 0.0003565 -0.0003030 -0.0005102 -0.0008026 -0.0003946 -0.0002627 -0.0009319 -0.0000913 -0.0001544 -0.0002740 -0.0006798 -0.0001117 -0.0003218 0.0000899 0.0000831 -0.0000136 0.0001170 -0.0001136 -0.0000205 -0.0003275 -0.0004627 0.0000123 0.0000578 -0.0001018 -0.0002632 0.0000857 0.0002384 0.0000366 0.0001013 -0.0000478 -0.0003110 -0.0000220 -0.0000237 -0.0000263 -0.0000864 0.0000469 0.0002942 -0.0000131 -0.0002629 0.0000600 0.0004645 -0.0000748 -0.0006368 -0.0000808 -0.0001052 -0.0000728 -0.0001633 0.0000422 0.0001102 -0.0000106 -0.0000039 0.0000034 -0.0001857 -0.0000294 0.0000307 -0.0000199 0.0000517 0.0000100 0.0000698 -0.0002338 -0.0010267 0.0001799 0.0003297 -0.0002871 -0.0003243 0.0000028 0.0002062 -0.0001360 -0.0006073 -0.0005803 0.0003579 -0.0001813 -0.0003167 0.0003747 0.0004758 -0.0000456 -0.0001460 0.0000315 -0.0002724 0.0000680 0.0004474 -0.0002455 0.0003090
0.0000095 0.0001433 0.0000428 0.0000274 -0.0000670 -0.0002440 -0.0000674 -0.0003243 -0.0000195 0.0000166 0.0000252 -0.0001053 -0.0000470 -0.0000075 -0.0000261 0.0002896 0.0000108 -0.0000458 -0.0000032 0.0000883 -0.0000124 0.0001611 -0.0001079 0.0002950 -0.0002056 -0.0013139 -0.0000389 -0.0002314 -0.0000782 -0.0007375 -0.0000368 0.0001479 -0.0000379 0.0000089 0.0000109 -0.0000503 0.0000201 -0.0000091 0.0000493 0.0000120 0.0000294 -0.0000104 -0.0000467 -0.0003638 -0.0000370 -0.0003509 0.0000730 0.0003349 -0.0002786 -0.0015862 -0.0001025 -0.0000206 -0.0001054 0.0004066 -0.0001455 -0.0001592 -0.0001666 0.0001528 -0.0003571 -0.0003447 -0.0008251 -0.0002920 -0.0000308 -0.0008314 -0.0001869 -0.0000385 -0.0001211 -0.0005989 -0.0000994 -0.0001845 0.0000540 -0.0000035 0.0000554 0.0000884 -0.0001834 -0.0002055 -0.0003786 -0.0005642 -0.0000247 0.0000492 -0.0000561 -0.0001865 0.0000565 0.0000945 0.0000568 0.0001727 -0.0000508 -0.0003313 -0.0000499 0.0000621 -0.0000536 -0.0000166 0.0003327 0.0001635 -0.0000255 -0.0002846 0.0000411 0.0004663 -0.0000988 -0.0008974 -0.0000972 -0.0000650 -0.0000608 -0.0001562 0.0000048 0.0000794 -0.0000128 0.0000483 -0.0000067 -0.0001787 -0.0000312 0.0000571 -0.0000157 0.0000130 0.0000119 0.0000325 -0.0003081 -0.0011652 0.0000308 0.0000881 -0.0004494 -0.0004718 0.0002521 0.0004221 -0.0001185 -0.0010525 0.0004679 -0.0004554 -0.0000341 0.0005483 0.0002683 0.0006165 0.0000585 0.0002717 0.0002192 -0.0006317 -0.0000920 -0.0000708 -0.0002127 0.0002488
0.0000129 0.0002280 0.0000363 0.0000737 -0.0000818 -0.0001804 -0.0000776 -0.0001928 -0.0000104 0.0001063 -0.0000166 0.0000104 -0.0000340 0.0000853 -0.0000166 0.0003861 -0.0000113 0.0000498 -0.0000026 0.0001510 0.0000034 0.0001842 -0.0002846 0.0003925 -0.0002152 -0.0012803 -0.0000458 -0.0001729 -0.0000892 -0.0006930 -0.0000369 0.0001899 -0.0000597 0.0000732 -0.0000040 0.0000509 -0.0000038 0.0000462 -0.0000311 0.0000924 -0.0000060 0.0000976 -0.0000545 -0.0003128 -0.0000312 -0.0002800 0.0000536 0.0002592 -0.0003965 -0.0015999 -0.0001538 -0.0000509 -0.0000279 0.0003415 -0.0001331 -0.0001229 -0.0001336 0.0000414 -0.0002106 -0.0004717 -0.0010070 -0.0001946 0.0000311 -0.0009135 -0.0002123 -0.0000920 -0.0001580 -0.0005048 -0.0001625 -0.0000375 0.0000028 -0.0002192 0.0002177 0.0001349 -0.0002516 -0.0005447 -0.0004846 -0.0007896 -0.0000203 -0.0000783 0.0001682 -0.0002422 0.0000484 -0.0000128 0.0001249 0.0003100 -0.0000333 -0.0004409 -0.0000512 0.0000782 -0.0000708 -0.0000629 0.0003744 0.0001585 -0.0000232 -0.0003350 0.0000356 0.0004812 -0.0001253 -0.0012368 -0.0000973 -0.0000956 -0.0000605 -0.0001676 0.0000041 0.0000579 0.0000001 0.0000401 -0.0000274 -0.0002047 -0.0000351 0.0000381 -0.0000005 -0.0000803 0.0000285 -0.0000596 -0.0003692 -0.0012784 -0.0001976 -0.0003252 -0.0005542 -0.0008486 0.0003294 0.0007108 -0.0003870 -0.0015331 0.0004523 -0.0006047 -0.0000014 0.0007397 -0.0000302 0.0005993 0.0000374 0.0001236 0.0004825 -0.0008264 -0.0002088 -0.0003404 -0.0000929 0.0001387
0.0000135 0.0002600 0.0000166 0.0001671 -0.0000981 -0.0001673 -0.0000820 -0.0001260 -0.0000470 0.0001337 -0.0000002 -0.0000104 -0.0000209 0.0001234 -0.0000046 0.0004050 -0.0000237 0.0001129 -0.0000270 0.0002080 0.0000299 0.0002670 -0.0004320 0.0005318 -0.0002240 -0.0012575 -0.0000910 -0.0001657 -0.0001133 -0.0006970 -0.0000560 0.0001234 -0.0000567 0.0000888 -0.0000117 0.0000976 -0.0000312 0.0000776 -0.0000463 0.0000917 -0.0000018 0.0001178 -0.0000642 -0.0003132 -0.0000110 -0.0002574 0.0001011 0.0003268 -0.0008520 -0.0013048 -0.0001208 0.0000429 -0.0000914 0.0005086 -0.0001835 -0.0000575 -0.0001736 0.0000557 -0.0001132 -0.0005297 -0.0008865 -0.0003364 -0.0001617 -0.0006239 -0.0002168 0.0000348 -0.0002382 -0.0003412 -0.0001232 -0.0000174 -0.0000362 -0.0004005 0.0003297 0.0002257 -0.0002873 -0.0007201 -0.0005802 -0.0008463 -0.0000068 -0.0001627 0.0001489 -0.0002205 0.0000779 0.0000372 0.0001889 0.0004972 -0.0001280 -0.0002737 -0.0000616 0.0001738 -0.0001280 -0.0000339 0.0002726 0.0003919 -0.0000283 -0.0003899 0.0000293 0.0005411 -0.0001525 -0.0014913 -0.0001155 -0.0000938 -0.0000993 -0.0001486 0.0000301 0.0000925 0.0000001 0.0001119 -0.0000419 -0.0002064 -0.0000411 0.0000724 0.0000038 -0.0001297 0.0000479 -0.0000621 -0.0004385 -0.0013985 -0.0003461 -0.0005513 -0.0004000 -0.0012790 -0.0002066 0.0009661 -0.0005535 -0.0017951 0.0002301 -0.0003748 -0.0000520 0.0006484 -0.0001427 0.0004810 0.0000245 0.0000728 0.0004139 -0.0007512 -0.0002274 -0.0003396 -0.0000701 0.0000594
0.0000023 0.0003152 0.0000075 0.0002257 -0.0001106 -0.0001149 -0.0000851 -0.0000315 0.0000260 0.0001508 -0.0000404 0.0001210 -0.0000634 0.0002760 -0.0000392 0.0004692 -0.0000131 0.0001579 -0.0000568 0.0003193 0.0000176 0.0004046 -0.0000776 0.0002012 -0.0002191 -0.0011144 -0.0001076 -0.0000883 -0.0001164 -0.0006163 -0.0000893 0.0001955 -0.0000293 0.0001640 -0.0000337 0.0001542 -0.0000254 0.0001439 0.0000113 0.0002039 0.0000069 0.0001166 -0.0000565 -0.0002065 -0.0000049 -0.0001980 0.0001224 0.0004330 -0.0008315 -0.0009908 -0.0001774 0.0000297 -0.0000976 0.0004057 -0.0001840 0.0000749 -0.0001639 0.0001356 -0.0000102 -0.0004248 -0.0005388 -0.0003240 -0.0001762 -0.0003139 -0.0002909 0.0002924 -0.0001424 -0.0002229 -0.0001165 0.0000236 -0.0000636 -0.0005266 0.0003462 0.0002415 -0.0003103 -0.0008849 -0.0006102 -0.0007700 -0.0000256 -0.0002239 0.0000419 -0.0001587 0.0000861 0.0000183 0.0002239 0.0005394 -0.0001250 -0.0002129 -0.0000891 0.0001610 -0.0001479 -0.0000307 -0.0000380 0.0006453 -0.0000260 -0.0004428 0.0000231 0.0005094 -0.0001752 -0.0016378 -0.0001488 -0.0001090 -0.0001148 -0.0001998 0.0000426 0.0000936 0.0000090 0.0000657 -0.0000413 -0.0002406 -0.0000459 0.0000059 0.0000040 -0.0001770 0.0000608 -0.0001045 -0.0004950 -0.0015709 -0.0004117 -0.0007432 -0.0004582 -0.0013297 -0.0009436 0.0015641 -0.0004319 -0.0020083 0.0004348 -0.0007491 0.0000185 0.0009872 -0.0000854 0.0003183 0.0000648 0.0002833 0.0001527 -0.0006983 -0.0001992 -0.0004586 -0.0000094 0.0000029
0.0000178 0.0003007 -0.0000013 0.0001639 -0.0000975 -0.0000996 -0.0000854 -0.0000318 0.0000515 0.0002118 -0.0001047 0.0002492 -0.0000825 0.0003231 -0.0000443 0.0005810 -0.0000151 0.0001685 -0.0000484 0.0003444 -0.0000161 0.0003096 -0.0000519 0.0000685 -0.0001882 -0.0008889 -0.0000732 0.0001187 -0.0000914 -0.0004682 -0.0000735 0.0004218 -0.0000327 0.0001765 -0.0000342 0.0001944 -0.0000487 0.0002313 0.0000752 0.0002330 -0.0000098 0.0001652 -0.0000348 -0.0000877 -0.0000092 -0.0001458 0.0000628 0.0003830 -0.0004060 -0.0008880 -0.0002450 -0.0001344 -0.0000726 0.0001475 -0.0001157 0.0001211 -0.0001079 0.0001271 0.0000858 -0.0003417 -0.0006328 0.0000593 -0.0002028 0.0001261 -0.0000956 0.0001615 -0.0000470 -0.0001415 -0.0000290 -0.0000257 -0.0000740 -0.0006290 0.0002977 0.0001772 -0.0003152 -0.0010682 -0.0005880 -0.0007379 -0.0000149 -0.0002803 0.0000709 -0.0002177 0.0000840 -0.0000031 0.0002225 0.0004875 -0.0000805 -0.0002579 -0.0000742 0.0000889 -0.0001005 -0.0001148 0.0000011 0.0005478 -0.0000165 -0.0005163 0.0000082 0.0004140 -0.0001705 -0.0016037 -0.0001443 -0.0000700 -0.0001074 -0.0001839 0.0000498 0.0000806 0.0000173 0.0000537 -0.0000197 -0.0002263 -0.0000433 0.0000030 0.0000050 -0.0002091 0.0000492 -0.0000688 -0.0005188 -0.0015807 -0.0003614 -0.0009497 -0.0004774 -0.0012789 -0.0002972 0.0011416 -0.0005702 -0.0018768 0.0002865 -0.0008390 0.0000301 0.0008546 -0.0001167 0.0002264 0.0000487 0.0002094 -0.0000853 -0.0003303 -0.0002108 -0.0005818 -0.0001985 0.0003390
0.0000263 0.0002496 -0.0000195 0.0000850 -0.0000933 -0.0000846 -0.0000883 -0.0000446 -0.0000155 0.0003303 -0.0000002 0.0002070 -0.0000940 0.0003600 -0.0000300 0.0006584 -0.0000046 0.0001827 -0.0000292 0.0003325 -0.0000681 0.0002255 -0.0002791 0.0003842 -0.0001753 -0.0007218 -0.0000433 0.0002999 -0.0000699 -0.0003000 -0.0000330 0.0006129 -0.0000332 0.0002006 -0.0000168 0.0002509 -0.0000516 0.0003154 0.0000694 0.0003074 -0.0000063 0.0002042 -0.0000178 0.0000171 -0.0000204 -0.0000971 0.0000116 0.0002868 -0.0004215 -0.0005850 -0.0001988 -0.0003995 -0.0001178 -0.0000201 -0.0000983 0.0002372 -0.0001341 0.0000757 0.0000902 0.0000433 -0.0006605 0.0000567 0.0000549 0.0009314 0.0001677 0.0000204 0.0000270 0.0002159 -0.0000244 0.0000698 -0.0000731 -0.0006450 0.0002694 0.0001275 -0.0003122 -0.0010527 -0.0006002 -0.0008001 0.0000015 -0.0002849 0.0000980 -0.0003013 0.0000894 0.0000475 0.0002003 0.0004246 -0.0000587 -0.0002851 -0.0000748 0.0000468 -0.0001130 -0.0001556 -0.0000777 0.0005225 -0.0000480 -0.0007452 -0.0000147 0.0003005 -0.0001576 -0.0014810 -0.0001322 -0.0000813 -0.0000846 -0.0001615 0.0000425 0.0000170 0.0000035 0.0000093 -0.0000074 -0.0002266 -0.0000327 0.0000306 -0.0000413 -0.0004360 0.0000687 0.0000228 -0.0005031 -0.0015312 -0.0002866 -0.0010651 -0.0004272 -0.0013167 -0.0001662 0.0010877 -0.0006124 -0.0018735 0.0007314 -0.0011267 0.0000193 0.0006928 -0.0003090 -0.0001314 0.0000411 0.0002500 -0.0000805 -0.0000103 -0.0003324 -0.0008650 -0.0002218 0.0004378
0.0000306 0.0002373 -0.0000357 0.0000422 -0.0000804 -0.0001037 -0.0001140 -0.0001753 -0.0000071 0.0003576 0.0000346 0.0002433 -0.0000908 0.0003369 -0.0000492 0.0006460 0.0000222 0.0001379 -0.0000343 0.0003178 -0.0000843 0.0000758 -0.0002992 0.0003650 -0.0002116 -0.0009437 -0.0000551 0.0003307 -0.0000632 -0.0003222 -0.0000082 0.0006356 -0.0000315 0.0001933 -0.0000287 0.0002150 -0.0000128 0.0003032 0.0000500 0.0003627 0.0000194 0.0001756 -0.0000026 0.0000592 -0.0000323 -0.0001074 -0.0000246 0.0000787 -0.0007276 -0.0000401 -0.0002116 -0.0007245 -0.0001688 -0.0003773 -0.0000906 0.0002611 -0.0001796 -0.0002045 0.0002524 0.0003920 -0.0005870 -0.0001888 0.0005366 0.0015093 0.0002554 0.0000067 0.0000417 0.0005850 -0.0001560 0.0002881 -0.0000671 -0.0006019 0.0003187 0.0000930 -0.0002636 -0.0007612 -0.0005781 -0.0008867 0.0000137 -0.0003294 0.0000711 -0.0003380 0.0001316 0.0002826 0.0001721 0.0003504 -0.0000080 -0.0003858 -0.0000789 0.0000117 -0.0001860 -0.0001519 -0.0000277 0.0002835 -0.0000812 -0.0008922 -0.0000354 0.0002519 -0.0001589 -0.0014542 -0.0001134 -0.0000801 -0.0000413 -0.0001319 0.0000491 0.0000119 -0.0000219 0.0000010 -0.0000443 -0.0001909 -0.0000308 0.0001076 -0.0000706 -0.0005450 0.0001054 0.0002262 -0.0004945 -0.0014562 -0.0002853 -0.0010268 -0.0004838 -0.0009965 -0.0003637 0.0012713 -0.0003741 -0.0019873 0.0008204 -0.0009723 0.0000573 0.0009888 -0.0003731 -0.0004625 0.0000714 0.0004903 0.0002241 -0.0000620 -0.0004461 -0.0011640 -0.0000748 0.0005038
0.0000291 0.0002271 -0.0000583 -0.0000452 -0.0000731 -0.0001330 -0.0001487 -0.0003917 0.0000520 0.0003074 0.0000217 0.0002689 -0.0000858 0.0002956 -0.0000659 0.0005917 0.0000112 0.0000843 -0.0000764 0.0003097 -0.0000799 -0.0000663 -0.0003134 0.0002751 -0.0002548 -0.0012205 -0.0000831 0.0003146 -0.0000641 -0.0003284 -0.0000188 0.0006423 -0.0000362 0.0002578 -0.0000517 0.0002644 0.0000040 0.0003109 0.0000277 0.0004574 0.0000284 0.0002218 0.0000062 0.0001471 -0.0000276 -0.0000699 -0.0000612 -0.0001409 -0.0005717 0.0000012 -0.0002350 -0.0009117 -0.0001766 -0.0006940 -0.0000890 0.0001978 -0.0001610 -0.0005198 0.0002219 0.0006409 -0.0005058 -0.0001833 0.0005716 0.0019643 0.0002619 0.0000874 0.0002078 0.0006570 0.0000300 0.0002247 -0.0000817 -0.0005503 0.0003478 0.0000824 -0.0002395 -0.0005961 -0.0005231 -0.0008419 0.0000075 -0.0003409 0.0000514 -0.0003065 0.0001592 0.0004027 0.0001515 0.0003442 0.0000204 -0.0003607 -0.0000704 0.0000056 -0.0001842 -0.0001716 0.0001090 0.0001875 -0.0000804 -0.0008002 -0.0000571 0.0002447 -0.0001527 -0.0013091 -0.0000955 -0.0000336 -0.0000376 -0.0000956 0.0000448 0.0000185 -0.0000281 0.0000060 -0.0000532 -0.0001549 -0.0000376 0.0000772 -0.0000411 -0.0003518 0.0000873 0.0001655 -0.0004751 -0.0014446 -0.0002617 -0.0011199 -0.0004253 -0.0009393 -0.0005624 0.0011805 -0.0001301 -0.0019925 0.0002403 -0.0003957 0.0001031 0.0013323 -0.0004573 -0.0005028 0.0000776 0.0005961 -0.0000214 0.0004877 -0.0004570 -0.0014039 0.0002297 0.0005027
0.0000138 0.0002476 -0.0000844 -0.0000661 -0.0000742 -0.0001214 -0.0001742 -0.0005438 0.0000261 0.0003334 -0.0000025 0.0003000 -0.0000883 0.0002857 -0.0000708 0.0005495 -0.0000022 0.0000510 -0.0000904 0.0003041 -0.0001126 -0.0000924 -0.0001812 0.0001992 -0.0002732 -0.0013117 -0.0000863 0.0002877 -0.0000783 -0.0003654 -0.0000329 0.0006447 -0.0000424 0.0002569 -0.0000398 0.0002447 -0.0000427 0.0003797 0.0000209 0.0004622 0.0000185 0.0002917 0.0000130 0.0001859 -0.0000194 -0.0000299 -0.0000380 -0.0003751 -0.0001507 -0.0004954 -0.0002626 -0.0009720 -0.0002555 -0.0007435 -0.0001417 0.0001981 -0.0001694 -0.0006595 0.0003617 0.0006169 -0.0002217 -0.0005306 0.0006083 0.0022865 0.0001903 0.0001247 0.0004770 0.0005294 0.0000634 0.0003302 -0.0001057 -0.0005652 0.0003155 0.0000412 -0.0002498 -0.0006725 -0.0005019 -0.0007764 0.0000114 -0.0003243 0.0000178 -0.0002175 0.0001240 0.0003230 0.0001352 0.0003366 -0.0000038 -0.0002288 -0.0000906 0.0000083 -0.0001204 -0.0001837 0.0000248 0.0003452 -0.0000750 -0.0007501 -0.0000754 0.0001584 -0.0001264 -0.0009949 -0.0000795 0.0000067 -0.0000550 -0.0000827 0.0000133 -0.0000261 -0.0000126 -0.0000521 -0.0000413 -0.0001341 -0.0000449 -0.0000310 -0.0000296 -0.0001940 0.0000459 0.0000183 -0.0004534 -0.0015032 -0.0001961 -0.0012917 -0.0003725 -0.0008936 -0.0003639 0.0008637 -0.0003671 -0.0016116 -0.0004889 0.0000686 0.0001243 0.0015964 -0.0005250 -0.0005139 0.0000744 0.0007322 0.0000171 0.0007548 -0.0004372 -0.0013927 0.0003063 0.0005316
0.0000257 0.0002296 -0.0000899 -0.0000537 -0.0000685 -0.0001178 -0.0001820 -0.0005982 -0.0000790 0.0004179 -0.0000309 0.0003385 -0.0000905 0.0002816 -0.0000552 0.0004590 -0.0000123 0.0000586 -0.0001081 0.0003031 -0.0001368 -0.0000651 -0.0001782 0.0002458 -0.0002229 -0.0010232 -0.0000807 0.0003240 -0.0000816 -0.0003161 -0.0000465 0.0006336 -0.0000546 0.0002998 -0.0000308 0.0002191 -0.0000429 0.0004028 0.0000719 0.0005222 0.0000050 0.0003706 0.0000361 0.0004104 -0.0000232 0.0001299 -0.0000693 -0.0003323 -0.0001575 -0.0003294 -0.0002590 -0.0008864 -0.0003103 -0.0005599 -0.0000736 0.0002261 -0.0002002 -0.0005560 0.0003740 0.0007852 -0.0000771 -0.0008399 0.0009281 0.0024271 0.0002320 0.0001744 0.0005294 0.0005996 -0.0000277 0.0005915 -0.0001209 -0.0005883 0.0002760 0.0000965 -0.0002324 -0.0005919 -0.0004817 -0.0006118 -0.0000041 -0.0002938 0.0000576 -0.0001567 0.0000958 0.0003972 0.0000969 0.0003219 -0.0000167 -0.0000872 -0.0000987 0.0000332 -0.0000846 -0.0001080 0.0002205 0.0000985 -0.0000608 -0.0006510 -0.0001069 0.0000859 -0.0001043 -0.0006762 -0.0000563 0.0001021 -0.0000494 -0.0000260 -0.0000121 -0.0000135 0.0000038 -0.0001046 -0.0000586 -0.0000796 -0.0000555 -0.0000628 -0.0000451 -0.0001036 0.0000236 -0.0000016 -0.0004510 -0.0014469 -0.0001337 -0.0013844 -0.0002394 -0.0005486 0.0006762 -0.0002585 -0.0005709 -0.0010893 -0.0008653 0.0003943 0.0000724 0.0014398 -0.0004602 -0.0004851 0.0000728 0.0007135 0.0001862 0.0006559 -0.0003268 -0.0010192 0.0000146 0.0007102
0.0000264 0.0002200 -0.0000557 -0.0000283 -0.0000626 -0.0000462 -0.0001577 -0.0004421 -0.0000948 0.0004257 0.0000057 0.0003593 -0.0000854 0.0003060 -0.0000393 0.0004237 -0.0000254 0.0001051 -0.0001341 0.0003344 -0.0001157 -0.0000458 -0.0001654 0.0003691 -0.0000975 -0.0002261 -0.0000600 0.0004885 -0.0000579 -0.0001003 -0.0000684 0.0006716 -0.0000375 0.0003320 -0.0000207 0.0002105 -0.0000101 0.0003906 0.0000525 0.0006362 0.0000128 0.0003879 0.0000661 0.0005023 0.0000147 0.0002543 -0.0000355 -0.0000820 -0.0002792 -0.0005465 -0.0002136 -0.0007451 -0.0002815 -0.0004483 -0.0000311 0.0001832 -0.0001579 -0.0004446 0.0001899 0.0008502 -0.0002486 -0.0008904 0.0008353 0.0025798 0.0000887 0.0003082 0.0004781 0.0007845 0.0000100 0.0008293 -0.0001372 -0.0005928 0.0002102 0.0001701 -0.0002183 -0.0005135 -0.0004476 -0.0004245 -0.0000227 -0.0002718 0.0001118 -0.0001284 0.0000840 0.0004203 0.0000741 0.0002893 -0.0000001 0.0000281 -0.0000864 0.0000160 -0.0000533 -0.0000916 0.0001227 0.0001403 -0.0000389 -0.0005195 -0.0001144 0.0000445 -0.0000764 -0.0003767 -0.0000429 0.0000907 -0.0000366 -0.0000357 -0.0000114 0.0000000 -0.0000066 -0.0001655 -0.0000451 -0.0001105 -0.0000591 -0.0001116 -0.0000648 -0.0000322 0.0000114 -0.0000284 -0.0004151 -0.0012200 -0.0000598 -0.0014570 -0.0002432 -0.0001422 -0.0000880 0.0001558 -0.0004999 -0.0007888 -0.0001179 -0.0001024 -0.0000435 0.0008811 -0.0003195 -0.0002634 0.0000559 0.0005759 0.0000057 0.0008592 -0.0001632 -0.0003802 0.0001978 0.0006048
0.0000365 0.0002674 -0.0000048 0.0000826 -0.0000479 0.0000587 -0.0001256 -0.0002935 -0.0000641 0.0004146 0.0000692 0.0004107 -0.0000727 0.0002935 -0.0000606 0.0006127 -0.0000495 0.0001414 -0.0000798 0.0003905 -0.0000731 0.0000698 0.0000114 0.0003794 0.0000452 0.0006794 -0.0000226 0.0006806 -0.0000060 0.0002176 -0.0000543 0.0007487 0.0000026 0.0004428 -0.0000097 0.0001920 0.0000154 0.0004280 0.0000353 0.0007893 0.0000188 0.0004217 0.0000822 0.0005240 0.0000547 0.0003622 0.0001011 0.0001592 -0.0002716 -0.0010741 -0.0001578 -0.0004514 -0.0002670 -0.0002273 -0.0001038 0.0004263 -0.0001486 -0.0001707 0.0002504 0.0007036 -0.0006165 -0.0003130 0.0007037 0.0022850 0.0000622 0.0004423 0.0002866 0.0010106 0.0000691 0.0010241 -0.0001497 -0.0004923 0.0001635 0.0002154 -0.0001958 -0.0004275 -0.0003836 -0.0001923 -0.0000463 -0.0001663 0.0000412 -0.0000715 0.0000700 0.0004331 0.0000627 0.0003280 0.0000137 0.0001459 -0.0001007 0.0000728 0.0000011 -0.0000729 -0.0003558 0.0004522 -0.0000149 -0.0002630 -0.0000888 0.0001052 -0.0000491 -0.0001355 -0.0000488 0.0000602 -0.0000530 -0.0000194 -0.0000084 0.0000108 -0.0000150 -0.0001521 -0.0000414 -0.0000913 -0.0000591 -0.0001014 -0.0000750 0.0000560 -0.0000013 0.0000110 -0.0003174 -0.0009507 -0.0000468 -0.0014068 -0.0002251 -0.0000293 -0.0009038 0.0008676 -0.0002587 -0.0006543 0.0003922 -0.0006187 -0.0001064 0.0005126 -0.0002681 -0.0001268 0.0000360 0.0004891 0.0000496 0.0008003 -0.0001275 -0.0001276 0.0001669 0.0005760
0.0000313 0.0003967 0.0000120 0.0003070 -0.0000301 0.0001600 -0.0000813 -0.0000274 0.0000073 0.0003603 0.0000779 0.0005118 -0.0000812 0.0003373 -0.0000599 0.0008960 -0.0000485 0.0002169 -0.0000557 0.0005443 -0.0000228 0.0002616 0.0000816 0.0004081 0.0001177 0.0012073 -0.0000266 0.0008134 0.0000309 0.0005714 -0.0000430 0.0007915 -0.0000117 0.0005309 -0.0000137 0.0002657 0.0000087 0.0004421 0.0000288 0.0007321 0.0000315 0.0004782 0.0000606 0.0004307 0.0000524 0.0003913 0.0000869 0.0001914 -0.0002811 -0.0014477 -0.0000583 -0.0003208 -0.0001081 -0.0002445 -0.0000994 0.0003731 -0.0002261 -0.0002096 0.0000544 0.0002201 -0.0005167 0.0003025 0.0002277 0.0006545 0.0003141 -0.0000250 -0.0001115 0.0006777 0.0000135 0.0008004 -0.0001627 -0.0003941 0.0001257 0.0002307 -0.0001396 -0.0002603 -0.0002683 0.0000435 -0.0000379 -0.0000974 -0.0000085 0.0000012 0.0000724 0.0004591 0.0000458 0.0003228 0.0001065 0.0001634 -0.0001020 0.0001188 -0.0000693 0.0000290 -0.0003521 0.0003253 0.0000277 0.0000784 -0.0000702 0.0001669 -0.0000150 0.0001824 -0.0000587 0.0001053 -0.0000507 0.0000487 -0.0000237 -0.0000245 -0.0000082 -0.0001482 -0.0000411 -0.0000084 -0.0000556 -0.0000767 -0.0000822 0.0001142 -0.0000089 0.0000506 -0.0002089 -0.0007228 -0.0000489 -0.0013704 -0.0001222 0.0001252 0.0000036 -0.0001846 -0.0001383 -0.0004484 0.0004317 -0.0005393 -0.0000487 0.0008048 -0.0002858 -0.0002290 0.0000132 0.0005131 0.0000587 0.0006449 -0.0001926 -0.0002931 0.0000527 0.0006627
0.0000313 0.0004947 0.0000618 0.0005606 -0.0000814 0.0000645 0.0000031 0.0003851 0.0000508 0.0002000 0.0000210 0.0005594 -0.0000736 0.0002776 0.0000082 0.0012316 -0.0001007 0.0002571 -0.0000062 0.0008310 0.0000990 0.0007199 0.0000694 0.0002395 0.0001041 0.0011904 -0.0000532 0.0007988 0.0000091 0.0007820 -0.0000864 0.0008204 -0.0000524 0.0005629 0.0000004 0.0003273 0.0000213 0.0004872 0.0000209 0.0008419 0.0001732 0.0007540 0.0000124 0.0001510 0.0001123 0.0005313 0.0003686 0.0014028 -0.0008381 -0.0028083 0.0000534 0.0004965 0.0000602 0.0002909 -0.0002415 -0.0002101 -0.0002348 -0.0002334 -0.0006092 -0.0010953 -0.0005828 0.0010127 -0.0009282 -0.0020706 0.0001485 -0.0007995 -0.0006395 -0.0009839 -0.0002029 -0.0000791 -0.0001814 -0.0002855 0.0001240 0.0001780 -0.0000612 0.0000808 -0.0000998 0.0001526 -0.0000334 0.0000009 0.0000091 0.0002136 0.0000735 0.0005330 0.0000281 0.0003171 0.0001164 0.0002539 -0.0000891 0.0002576 -0.0000318 0.0000156 -0.0000660 0.0000945 0.0000388 0.0004013 -0.0000720 0.0002024 0.0000213 0.0004569 -0.0000395 0.0002671 -0.0000029 0.0001975 -0.0000489 -0.0000685 -0.0000253 -0.0000289 -0.0000439 0.0001299 -0.0000421 0.0000299 -0.0000903 0.0001722 -0.0000143 0.0001378 -0.0001338 -0.0003174 -0.0000790 -0.0013182 -0.0001626 0.0004544 0.0002118 -0.0003437 -0.0002625 -0.0001151 0.0004444 -0.0001539 0.0000374 0.0012908 -0.0003114 -0.0002718 0.0000069 0.0005780 0.0000508 0.0004898 -0.0003075 -0.0006758 -0.0000262 0.0007790
0.0000951 0.0008992 0.0001875 0.0010146 -0.0001245 0.0002254 0.0000280 0.0008739 -0.0000063 0.0003654 0.0000007 0.0007570 -0.0000931 0.0004271 0.0000456 0.0016638 -0.0001741 0.0004277 0.0000597 0.0012151 0.0002301 0.0013757 -0.0000919 0.0002909 0.0000632 0.0011968 -0.0000869 0.0008436 -0.0000635 0.0010074 -0.0001555 0.0008430 -0.0000776 0.0006565 0.0000053 0.0004957 0.0000702 0.0006285 0.0000551 0.0011330 0.0002929 0.0011274 -0.0000325 0.0000023 0.0001994 0.0008156 0.0005742 0.0025151 -0.0013778 -0.0043844 -0.0000094 0.0008308 0.0000838 0.0009546 -0.0004765 -0.0006862 -0.0001530 -0.0002182 -0.0009301 -0.0019978 -0.0011030 0.0012391 -0.0013976 -0.0035589 -0.0001918 -0.0012815 -0.0010719 -0.0023779 -0.0004559 -0.0008275 -0.0001945 -0.0002270 0.0001200 0.0001768 -0.0000059 0.0003263 0.0000280 0.0001683 -0.0000290 0.0000236 0.0000053 0.0003515 0.0000941 0.0006075 0.0000091 0.0003192 0.0000269 0.0004138 -0.0000442 0.0003086 -0.0000026 -0.0000001 0.0001886 -0.0002956 0.0000437 0.0006347 -0.0000819 0.0002303 0.0000436 0.0005615 -0.0000015 0.0003946 0.0000190 0.0003406 -0.0000364 -0.0000561 -0.0000354 0.0000130 -0.0000320 0.0001891 -0.0000345 0.0000946 -0.0001086 0.0001780 -0.0000063 0.0002292 -0.0000486 -0.0000139 -0.0000756 -0.0012944 -0.0001568 0.0006639 -0.0007249 0.0007426 -0.0001415 -0.0000138 0.0000083 0.0003051 0.0001144 0.0015810 -0.0004412 -0.0001035 0.0000215 0.0007001 -0.0001018 0.0006276 -0.0004043 -0.0010833 0.0000710 0.0007384
0.0001466 0.0011316 0.0002690 0.0012322 -0.0001498 0.0003551 -0.0000416 0.0008002 -0.0000558 0.0005327 0.0000586 0.0008458 -0.0001217 0.0004427 0.0000361 0.0016795 -0.0001567 0.0005681 0.0000724 0.0013059 0.0002700 0.0014133 0.0000428 0.0001125 0.0000483 0.0011710 -0.0001120 0.0008944 -0.0000925 0.0011273 -0.0001756 0.0008029 -0.0000912 0.0005781 -0.0000136 0.0005869 0.0000372 0.0006837 0.0001757 0.0010422 0.0003142 0.0011915 -0.0000491 -0.0000643 0.0002277 0.0008433 0.0004335 0.0020803 -0.0013343 -0.0051682 -0.0002103 -0.0000723 0.0000396 0.0007833 -0.0006052 -0.0007989 -0.0002048 -0.0006196 -0.0008917 -0.0018316 -0.0009469 0.0007690 -0.0010024 -0.0032955 -0.0001411 -0.0017101 -0.0011703 -0.0024841 -0.0005529 -0.0011290 -0.0001935 -0.0002328 0.0000915 0.0002281 0.0000144 0.0004129 0.0000633 0.0002102 -0.0000511 0.0000017 -0.0000125 0.0003839 0.0000968 0.0007054 -0.0000104 0.0003201 0.0000032 0.0005233 -0.0000511 0.0003427 -0.0000358 0.0000532 0.0002309 -0.0004670 0.0000546 0.0007511 -0.0000983 0.0002399 0.0000538 0.0005921 0.0000158 0.0004632 0.0000056 0.0004224 -0.0000202 -0.0000042 -0.0000443 0.0000176 -0.0000336 0.0002021 -0.0000347 0.0001144 -0.0001417 0.0001190 0.0000135 0.0003271 -0.0000074 0.0000775 -0.0000686 -0.0012979 -0.0002178 0.0008715 -0.0004636 0.0003700 -0.0002100 0.0001709 -0.0006644 0.0007747 0.0001460 0.0016717 -0.0005110 0.0000136 0.0000125 0.0007954 -0.0001054 0.0006804 -0.0004565 -0.0012259 -0.0000007 0.0008746
0.0001287 0.0011797 0.0002848 0.0012101 -0.0002327 0.0004147 -0.0001470 0.0006569 -0.0000203 0.0006228 0.0000835 0.0009202 -0.0001511 0.0004478 0.0000123 0.0015791 -0.0000943 0.0005066 0.0000482 0.0013584 0.0002841 0.0014783 -0.0000857 0.0000029 0.0000198 0.0011036 -0.0001300 0.0009228 -0.0001003 0.0013145 -0.0001983 0.0008453 -0.0000934 0.0007414 -0.0000519 0.0007765 0.0000499 0.0008547 0.0002609 0.0013953 0.0004124 0.0013368 -0.0000670 0.0000212 0.0002477 0.0009363 0.0003905 0.0018776 -0.0019406 -0.0060862 -0.0003687 -0.0007471 0.0000196 0.0004012 -0.0007003 -0.0010672 -0.0004148 -0.0010329 -0.0007996 -0.0018500 -0.0009465 0.0007354 -0.0007554 -0.0031543 -0.0002293 -0.0019809 -0.0012239 -0.0026832 -0.0006412 -0.0015431 -0.0001812 -0.0002614 0.0000936 0.0002334 0.0000274 0.0004931 0.0001025 0.0001963 -0.0000919 -0.0000564 0.0000303 0.0003236 0.0001181 0.0008719 -0.0000233 0.0002935 0.0000113 0.0004508 -0.0000709 0.0003536 -0.0000891 0.0000856 -0.0000806 -0.0001870 0.0000180 0.0007858 -0.0001135 0.0004645 -0.0000429 0.0000260 0.0000450 0.0004581 0.0000604 0.0005665 0.0000646 0.0003020 -0.0000890 -0.0000390 -0.0000493 0.0002285 -0.0000193 0.0001985 -0.0001016 0.0003160 0.0001263 0.0010816 -0.0000064 0.0002230 -0.0001398 -0.0012737 -0.0002769 0.0009907 0.0000214 0.0000098 -0.0002910 0.0004102 -0.0004214 0.0006565 0.0001018 0.0014730 -0.0005276 -0.0001011 0.0000193 0.0008781 -0.0000001 0.0007329 -0.0004923 -0.0011667 -0.0002599 0.0010922
0.0001242 0.0012414 0.0002824 0.0012338 -0.0003416 0.0005710 -0.0003372 0.0005356 0.0000112 0.0006892 0.0001097 0.0009267 -0.0001847 0.0003907 0.0000140 0.0015887 -0.0000749 0.0004449 0.0000487 0.0013884 0.0002991 0.0015419 -0.0003150 0.0001314 -0.0000847 0.0005691 -0.0001425 0.0008510 -0.0001627 0.0010510 -0.0002254 0.0008180 -0.0001331 0.0007623 -0.0000491 0.0008015 0.0001014 0.0008755 0.0003139 0.0015459 0.0005130 0.0014217 -0.0000910 -0.0000980 0.0002736 0.0008646 0.0003582 0.0018656 -0.0027871 -0.0078315 -0.0005180 -0.0009535 0.0000264 0.0000662 -0.0008038 -0.0013781 -0.0005898 -0.0013496 -0.0005267 -0.0020558 -0.0013794 0.0010732 -0.0009346 -0.0028021 -0.0001576 -0.0021421 -0.0011540 -0.0028344 -0.0006941 -0.0018677 -0.0000585 -0.0001255 -0.0000070 0.0003179 -0.0004756 0.0001249 -0.0002579 0.0007876 -0.0001019 -0.0000954 0.0001090 0.0004566 0.0002220 0.0018639 -0.0000385 0.0001630 -0.0002711 -0.0004871 -0.0001858 0.0003650 0.0000600 0.0002305 -0.0002455 -0.0000625 -0.0002486 0.0015198 -0.0000657 0.0025127 -0.0007064 -0.0039630 0.0000533 0.0005389 0.0003753 0.0015765 0.0003019 0.0014387 -0.0002601 -0.0004673 0.0001715 0.0004999 -0.0000695 0.0002234 0.0003409 0.0026639 0.0002773 0.0023884 0.0000429 0.0004679 -0.0001577 -0.0010240 -0.0000846 0.0012076 0.0000139 -0.0003110 -0.0001518 0.0005428 -0.0000845 0.0008782 -0.0000805 0.0006846 -0.0004933 0.0003056 -0.0000039 0.0008375 0.0000682 0.0002718 -0.0005367 -0.0012284 -0.0003415 0.0009683
0.0001304 0.0012146 0.0002710 0.0012474 -0.0004269 0.0005900 -0.0004978 0.0004215 -0.0000204 0.0007155 0.0000416 0.0009312 -0.0001827 0.0003174 0.0000391 0.0015233 -0.0000937 0.0004892 0.0000580 0.0013507 0.0002682 0.0015908 -0.0002159 0.0001558 -0.0001782 -0.0000447 -0.0001629 0.0007185 -0.0002226 0.0006899 -0.0002303 0.0007282 -0.0001479 0.0006933 -0.0000455 0.0008005 0.0000733 0.0008521 0.0003073 0.0015000 0.0004955 0.0014402 -0.0000995 -0.0001155 0.0002725 0.0007913 0.0003132 0.0020435 -0.0027608 -0.0089330 -0.0005793 -0.0005874 0.0000033 0.0001851 -0.0008118 -0.0012528 -0.0005959 -0.0012530 -0.0005712 -0.0017616 -0.0014392 0.0014256 -0.0009594 -0.0026870 0.0000657 -0.0023130 -0.0010368 -0.0027984 -0.0006938 -0.0019781 0.0003150 0.0002040 0.0001776 0.0004911 -0.0008584 0.0001294 0.0002407 0.0038322 -0.0001023 -0.0000586 0.0000957 0.0007237 0.0002606 0.0028699 -0.0000125 0.0000326 -0.0006774 -0.0018473 -0.0003718 0.0003152 0.0004147 0.0002514 -0.0000240 -0.0002017 -0.0004851 0.0024250 0.0000792 0.0045574 -0.0013152 -0.0089282 0.0000826 0.0007466 0.0006644 0.0024822 0.0005186 0.0022899 -0.0004390 -0.0008253 0.0003715 0.0007210 -0.0001805 0.0000378 0.0008146 0.0050228 0.0003939 0.0032596 0.0000577 0.0004691 -0.0001186 -0.0008240 0.0001714 0.0011973 0.0001891 -0.0009070 -0.0000704 0.0005136 0.0004022 0.0011397 -0.0002165 0.0001062 -0.0002355 0.0004542 -0.0000558 0.0006447 0.0001294 -0.0002898 -0.0006282 -0.0014306 -0.0002575 0.0007325
0.0001154 0.0011986 0.0002444 0.0012515 -0.0004394 0.0004985 -0.0005232 0.0003056 0.0000113 0.0006633 0.0000369 0.0008855 -0.0001825 0.0003081 0.0000401 0.0014242 -0.0001017 0.0005039 0.0000439 0.0012899 0.0002472 0.0016061 -0.0000500 0.0000095 -0.0002697 -0.0005642 -0.0001948 0.0005672 -0.0002670 0.0004368 -0.0002524 0.0006537 -0.0001430 0.0006268 -0.0000592 0.0007858 0.0000419 0.0008327 0.0003208 0.0014327 0.0004645 0.0014215 -0.0001117 -0.0002337 0.0002750 0.0006879 0.0003011 0.0020235 -0.0030122 -0.0085391 -0.0005348 -0.0005884 0.0000279 0.0000862 -0.0007626 -0.0013003 -0.0006359 -0.0012214 -0.0004870 -0.0016644 -0.0008484 0.0010414 -0.0007474 -0.0026040 -0.0000557 -0.0022086 -0.0008875 -0.0028233 -0.0007134 -0.0020897 0.0006497 0.0004498 0.0005954 0.0005158 0.0000209 0.0014785 0.0016883 0.0071013 -0.0000492 0.0000494 0.0001765 0.0009116 0.0001595 0.0026683 0.0000573 0.0001454 -0.0006552 -0.0019691 -0.0003393 0.0002872 0.0006654 0.0005886 -0.0000780 0.0000546 -0.0004371 0.0023085 0.0000705 0.0039364 -0.0011180 -0.0076036 0.0001585 0.0010645 0.0007390 0.0025208 0.0004801 0.0017887 -0.0004229 -0.0004827 0.0003952 0.0008094 -0.0002342 0.0000195 0.0008229 0.0047408 0.0003735 0.0030486 0.0000659 0.0005273 0.0000106 -0.0007313 0.0002896 0.0012224 0.0003139 -0.0013400 -0.0002049 0.0006631 0.0002503 0.0013154 -0.0001954 0.0002192 -0.0000589 0.0003458 -0.0000420 0.0005405 0.0000186 -0.0002085 -0.0006014 -0.0013992 0.0001708 0.0002873
0.0001400 0.0011373 0.0002482 0.0011668 -0.0004340 0.0004394 -0.0005224 0.0000327 0.0000838 0.0007069 0.0001402 0.0008684 -0.0001997 0.0001665 0.0000074 0.0012199 -0.0001073 0.0004372 0.0000389 0.0013276 0.0002866 0.0016104 -0.0000555 -0.0000301 -0.0003486 -0.0010832 -0.0002064 0.0004281 -0.0002778 0.0002489 -0.0002780 0.0006446 -0.0001552 0.0006172 -0.0000590 0.0007421 0.0000630 0.0008266 0.0003226 0.0014445 0.0005136 0.0014249 -0.0001252 -0.0003677 0.0002980 0.0006702 0.0003364 0.0020674 -0.0032221 -0.0083514 -0.0004375 -0.0002202 0.0001532 -0.0000489 -0.0008001 -0.0013095 -0.0006514 -0.0010353 -0.0002497 -0.0016869 -0.0006061 0.0013509 -0.0010264 -0.0021647 -0.0000435 -0.0016379 -0.0008891 -0.0027708 -0.0005900 -0.0018738 0.0006030 0.0004960 0.0007278 0.0004198 0.0004537 0.0018070 0.0020496 0.0070161 -0.0000055 0.0001460 0.0003147 0.0010351 0.0001090 0.0019231 0.0001146 0.0003332 -0.0002726 -0.0010844 -0.0001933 0.0003338 0.0009296 0.0012686 0.0000433 -0.0000476 -0.0003292 0.0014606 -0.0000667 0.0020548 -0.0006617 -0.0042112 0.0002094 0.0011632 0.0007085 0.0022617 0.0003330 0.0009494 -0.0003161 -0.0001839 0.0003802 0.0008689 -0.0002488 0.0000380 0.0006638 0.0034457 0.0002780 0.0023073 0.0001059 0.0006214 0.0000986 -0.0006508 0.0001998 0.0013781 -0.0000138 -0.0012222 -0.0002574 0.0008318 0.0001274 0.0011805 -0.0001936 0.0001633 0.0000142 0.0005471 -0.0000548 0.0004942 0.0000352 -0.0002336 -0.0005321 -0.0013608 0.0001600 0.0001333
0.0001936 0.0013522 0.0002820 0.0012046 -0.0004044 0.0006978 -0.0005364 -0.0001178 0.0001312 0.0008630 0.0001835 0.0009609 -0.0002043 0.0002315 0.0000073 0.0011369 -0.0000990 0.0005249 0.0000442 0.0015372 0.0003765 0.0018163 0.0000998 -0.0001511 -0.0002621 -0.0005823 -0.0001717 0.0005651 -0.0002635 0.0003768 -0.0002635 0.0006676 -0.0001072 0.0006899 -0.0000541 0.0007765 0.0000454 0.0008598 0.0002731 0.0015444 0.0005457 0.0014798 -0.0001031 -0.0002908 0.0003073 0.0008233 0.0003735 0.0020361 -0.0029473 -0.0091784 -0.0004138 -0.0000573 0.0001687 0.0000978 -0.0009335 -0.0012628 -0.0005366 -0.0008607 -0.0000546 -0.0018274 -0.0008126 0.0016568 -0.0008692 -0.0021972 -0.0000199 -0.0014111 -0.0011165 -0.0026443 -0.0004848 -0.0016892 0.0004431 0.0003587 0.0006994 0.0004195 0.0000808 0.0008981 0.0016303 0.0052961 -0.0000136 0.0000488 0.0002965 0.0008813 0.0001269 0.0014169 0.0001009 0.0003883 -0.0000158 -0.0003699 -0.0001340 0.0002857 0.0010647 0.0015413 0.0000617 -0.0003070 -0.0002527 0.0008332 -0.0001146 0.0010311 -0.0003741 -0.0027346 0.0002020 0.0010673 0.0006253 0.0018891 0.0002734 0.0006679 -0.0002725 -0.0000974 0.0003316 0.0007005 -0.0002716 0.0000475 0.0005789 0.0028158 0.0002536 0.0021811 0.0001168 0.0005736 0.0000163 -0.0007242 0.0001737 0.0012895 0.0002650 -0.0009081 -0.0000548 0.0007278 0.0004486 0.0008748 -0.0002169 -0.0000609 0.0000337 0.0005495 -0.0000980 0.0004866 0.0000572 -0.0001248 -0.0005334 -0.0013849 -0.0000691 0.0002449
0.0002091 0.0014333 0.0002988 0.0012392 -0.0003749 0.0008176 -0.0004897 -0.0000825 0.0001086 0.0008369 0.0001518 0.0008917 -0.0001701 0.0002733 0.0000157 0.0012635 -0.0000492 0.0005846 0.0000916 0.0015359 0.0003721 0.0018783 0.0002308 -0.0001074 -0.0000928 0.0004159 -0.0001309 0.0008048 -0.0002284 0.0006867 -0.0002403 0.0006709 -0.0000738 0.0006242 -0.0000449 0.0007666 0.0000306 0.0008444 0.0002968 0.0014330 0.0005574 0.0014488 -0.0000697 -0.0001911 0.0002957 0.0009409 0.0002754 0.0017487 -0.0036686 -0.0089665 -0.0005007 -0.0004343 0.0000352 0.0001587 -0.0009880 -0.0013281 -0.0006094 -0.0008659 -0.0000815 -0.0018374 -0.0007475 0.0013089 -0.0005182 -0.0020567 0.0002366 -0.0016367 -0.0010003 -0.0027248 -0.0005210 -0.0019352 0.0003887 0.0002100 0.0006648 0.0004411 -0.0001091 0.0005081 0.0013905 0.0044646 -0.0000339 -0.0000826 0.0002152 0.0007162 0.0001026 0.0012362 0.0000595 0.0003427 0.0000409 -0.0002025 -0.0001232 0.0001767 0.0010615 0.0015424 -0.0000032 -0.0001989 -0.0001944 0.0006503 -0.0001125 0.0007492 -0.0003392 -0.0025445 0.0001592 0.0009530 0.0005797 0.0016204 0.0002350 0.0004768 -0.0002754 -0.0001329 0.0003104 0.0005540 -0.0002944 -0.0000324 0.0005525 0.0025361 0.0002197 0.0019753 0.0001157 0.0006140 -0.0000236 -0.0008225 0.0000809 0.0013281 0.0002421 -0.0008972 0.0000557 0.0006095 -0.0003526 0.0014792 -0.0002109 -0.0002541 -0.0000526 0.0005192 -0.0000848 0.0004197 -0.0002154 0.0000638 -0.0005446 -0.0013806 -0.0001978 0.0002453
0.0001830 0.0013148 0.0002811 0.0012283 -0.0003887 0.0008259 -0.0004143 0.0003630 0.0000479 0.0008636 -0.0000066 0.0009716 -0.0001843 0.0004088 0.0000219 0.0013547 -0.0000399 0.0006159 0.0000815 0.0015067 0.0003184 0.0019685 0.0002447 -0.0001563 -0.0000334 0.0009971 -0.0001450 0.0009771 -0.0001972 0.0012131 -0.0002573 0.0007059 -0.0001216 0.0007219 -0.0000663 0.0009722 0.0000317 0.0009547 0.0002800 0.0014701 0.0005569 0.0014760 -0.0000782 -0.0000725 0.0002808 0.0010382 0.0001644 0.0018304 -0.0039607 -0.0087245 -0.0005334 -0.0004585 0.0000341 0.0000798 -0.0009379 -0.0013909 -0.0007065 -0.0008346 -0.0003343 -0.0016054 -0.0010771 0.0016061 -0.0006643 -0.0017881 0.0001776 -0.0015503 -0.0009806 -0.0026932 -0.0005851 -0.0020200 0.0003071 0.0001237 0.0006095 0.0004345 -0.0001910 0.0002491 0.0012161 0.0037240 -0.0000530 -0.0001311 0.0001723 0.0007261 0.0000504 0.0009339 0.0000697 0.0002787 0.0000976 -0.0000429 -0.0001066 0.0001648 0.0009123 0.0015606 0.0000577 -0.0002830 -0.0001551 0.0004181 -0.0001055 0.0004143 -0.0002685 -0.0022133 0.0001440 0.0008720 0.0004925 0.0013458 0.0001402 0.0000305 -0.0002717 -0.0000893 0.0002438 0.0004794 -0.0003076 -0.0000943 0.0005247 0.0021779 0.0001381 0.0015052 0.0001255 0.0007972 -0.0000496 -0.0008194 0.0000417 0.0014307 0.0000106 -0.0008200 -0.0000256 0.0008172 -0.0000342 0.0012317 -0.0001493 -0.0000689 -0.0001154 0.0003237 -0.0000387 0.0004328 -0.0001831 0.0000102 -0.0005680 -0.0013214 -0.0003981 0.0004725
0.0001609 0.0012177 0.0002520 0.0011784 -0.0003869 0.0006745 -0.0003794 0.0004937 0.0000811 0.0007302 0.0000414 0.0008242 -0.0002037 0.0003201 0.0000208 0.0012743 -0.0000912 0.0005778 0.0000464 0.0014113 0.0003206 0.0018580 -0.0001046 0.0000408 -0.0000886 0.0006229 -0.0001443 0.0008143 -0.0002059 0.0010700 -0.0002648 0.0006022 -0.0001337 0.0006709 -0.0000742 0.0009075 0.0000194 0.0008753 0.0002230 0.0014194 0.0005220 0.0014049 -0.0001007 -0.0002052 0.0002771 0.0008436 0.0001939 0.0018526 -0.0039110 -0.0091754 -0.0005143 -0.0004435 0.0000144 0.0000804 -0.0009616 -0.0013553 -0.0005868 -0.0010311 -0.0004660 -0.0014398 -0.0010129 0.0014452 -0.0004933 -0.0019789 -0.0000066 -0.0016164 -0.0009422 -0.0027458 -0.0004910 -0.0020778 0.0001657 0.0001277 0.0005096 0.0004572 -0.0007062 -0.0006522 0.0004404 0.0016634 -0.0000756 -0.0000443 0.0002007 0.0008549 -0.0000448 0.0002630 0.0000549 0.0002517 0.0001912 0.0004123 -0.0000904 0.0002309 0.0008775 0.0015288 0.0000939 -0.0007489 -0.0000610 0.0001477 -0.0000923 -0.0002018 -0.0000768 -0.0009249 0.0001211 0.0008180 0.0003428 0.0010285 -0.0000613 -0.0006208 -0.0002473 0.0000850 0.0001584 0.0004839 -0.0003225 -0.0002040 0.0002741 0.0008494 0.0000063 0.0006748 0.0001668 0.0010076 -0.0000711 -0.0006722 -0.0000126 0.0015709 -0.0000681 -0.0005250 0.0000190 0.0009753 0.0005121 0.0005708 -0.0000603 0.0001652 -0.0001529 0.0001796 -0.0000176 0.0005033 -0.0000590 0.0001791 -0.0005126 -0.0013258 -0.0002614 0.0006244
0.0001269 0.0011661 0.0002546 0.0010984 -0.0003791 0.0004241 -0.0003642 0.0004251 0.0000406 0.0006469 0.0000944 0.0006529 -0.0001850 0.0001271 0.0000073 0.0012575 -0.0001123 0.0004559 0.0000832 0.0013418 0.0003192 0.0018387 -0.0007660 0.0006938 -0.0001792 -0.0001540 -0.0001541 0.0005516 -0.0002248 0.0006135 -0.0002653 0.0005589 -0.0001300 0.0007074 -0.0000706 0.0007699 0.0000387 0.0008149 0.0002827 0.0015094 0.0005322 0.0013547 -0.0001302 -0.0002387 0.0002686 0.0007391 0.0002867 0.0022047 -0.0043250 -0.0094937 -0.0004595 -0.0000699 0.0000533 0.0004982 -0.0010305 -0.0012786 -0.0004978 -0.0008540 -0.0004607 -0.0014341 -0.0002761 0.0010571 -0.0006615 -0.0021884 -0.0000151 -0.0017693 -0.0009168 -0.0031782 -0.0003960 -0.0022458 0.0000513 0.0000988 0.0003669 0.0004452 -0.0012616 -0.0016967 -0.0006549 -0.0009020 -0.0000943 -0.0000442 0.0002007 0.0007232 -0.0001038 -0.0002987 0.0000137 0.0001662 0.0003547 0.0009190 -0.0000410 0.0001203 0.0009036 0.0015185 0.0000345 -0.0006886 0.0000622 -0.0001454 -0.0000995 -0.0007953 0.0000973 0.0002638 0.0000469 0.0005579 0.0001901 0.0007037 -0.0001695 -0.0009827 -0.0002161 0.0000892 0.0000889 0.0004405 -0.0003473 -0.0003775 -0.0000506 -0.0008324 -0.0000683 -0.0000116 0.0000931 0.0006598 -0.0001273 -0.0004087 -0.0002494 0.0015629 -0.0008352 0.0003101 -0.0000649 0.0008262 -0.0004742 0.0009406 -0.0001155 0.0000035 -0.0001573 0.0005819 -0.0000760 0.0003480 -0.0000241 0.0004525 -0.0003932 -0.0010071 -0.0000284 0.0007026
0.0001194 0.0012164 0.0003030 0.0011409 -0.0003899 0.0002487 -0.0003938 0.0002127 0.0000032 0.0005722 0.0000606 0.0006647 -0.0001921 0.0000191 0.0000382 0.0013177 -0.0000857 0.0004035 0.0001215 0.0014635 0.0003842 0.0020151 -0.0003623 0.0005070 -0.0002971 -0.0009658 -0.0001836 0.0003108 -0.0002812 0.0000735 -0.0002725 0.0005632 -0.0001258 0.0007757 -0.0000665 0.0006636 0.0000564 0.0007300 0.0003092 0.0016563 0.0005318 0.0012930 -0.0001566 -0.0004636 0.0002826 0.0006323 0.0004188 0.0026146 -0.0042130 -0.0120728 -0.0004941 -0.0000490 0.0000935 0.0006245 -0.0010877 -0.0015665 -0.0006109 -0.0009455 -0.0001407 -0.0017598 0.0003286 0.0015412 -0.0009020 -0.0026968 -0.0002169 -0.0020244 -0.0010234 -0.0038268 -0.0005302 -0.0026548 0.0000010 0.0000740 0.0002418 0.0005374 -0.0011094 -0.0017419 -0.0010093 -0.0018798 -0.0001259 -0.0000568 0.0001648 0.0005388 -0.0001118 -0.0004247 -0.0000172 0.0001053 0.0004346 0.0012043 -0.0000621 0.0000850 0.0008046 0.0015854 -0.0002574 -0.0000580 0.0000735 -0.0004421 -0.0001328 -0.0009731 0.0001213 0.0004093 -0.0000305 0.0003100 0.0000878 0.0005661 -0.0001843 -0.0009477 -0.0002242 0.0000865 0.0000274 0.0003823 -0.0003475 -0.0003235 -0.0001601 -0.0014771 -0.0000709 -0.0001597 -0.0000126 0.0002092 -0.0001354 -0.0003637 -0.0003161 0.0012950 -0.0004370 0.0001609 -0.0003044 0.0006524 -0.0006561 0.0008802 -0.0002032 -0.0000816 0.0000113 0.0007171 -0.0001443 0.0001363 -0.0000609 0.0005701 -0.0003556 -0.0007337 -0.0000264 0.0006855
0.0001252 0.0012350 0.0003442 0.0011776 -0.0003905 0.0001209 -0.0005275 -0.0003270 0.0000068 0.0004786 0.0000771 0.0006848 -0.0002289 -0.0000994 0.0000790 0.0013377 -0.0000593 0.0003409 0.0001271 0.0015244 0.0004157 0.0020805 -0.0002613 0.0004695 -0.0004440 -0.0018779 -0.0002188 0.0000209 -0.0003590 -0.0005661 -0.0002745 0.0005227 -0.0001093 0.0007078 -0.0000856 0.0005739 0.0000617 0.0005976 0.0003379 0.0017037 0.0005731 0.0011978 -0.0002233 -0.0008303 0.0002715 0.0002650 0.0004411 0.0028306 -0.0038170 -0.0144625 -0.0006001 -0.0002851 -0.0000120 0.0005120 -0.0012729 -0.0016084 -0.0008158 -0.0011815 0.0002370 -0.0018352 0.0007932 0.0024994 -0.0005065 -0.0028098 -0.0002073 -0.0023492 -0.0009211 -0.0040685 -0.0006808 -0.0029463 -0.0000097 0.0000802 0.0002145 0.0005874 -0.0009239 -0.0015106 -0.0009687 -0.0022014 -0.0001576 -0.0000270 0.0000944 0.0005586 -0.0001184 -0.0004994 -0.0000162 0.0000705 0.0003914 0.0012670 -0.0000919 0.0001100 0.0007579 0.0015798 -0.0000650 -0.0003461 0.0000679 -0.0007174 -0.0001385 -0.0010530 0.0000982 0.0002350 -0.0000655 0.0001914 0.0000589 0.0005359 -0.0001656 -0.0009077 -0.0002351 0.0000761 -0.0000068 0.0003551 -0.0003348 -0.0002556 -0.0001863 -0.0017817 -0.0000596 -0.0001968 0.0000219 0.0002976 -0.0000831 -0.0005180 -0.0002468 0.0012469 0.0001152 -0.0002906 -0.0002968 0.0006416 -0.0005749 0.0007081 -0.0002009 0.0000136 0.0000445 0.0006302 -0.0001593 0.0001582 -0.0001900 0.0007111 -0.0003458 -0.0006790 0.0002159 0.0003603
0.0001261 0.0013012 0.0003451 0.0012657 -0.0003183 -0.0002619 -0.0007485 -0.0012460 -0.0000589 0.0005674 0.0000922 0.0007400 -0.0002485 -0.0001467 0.0000707 0.0014080 -0.0000437 0.0002933 0.0001283 0.0015576 0.0003940 0.0021020 -0.0002229 0.0002924 -0.0005854 -0.0026428 -0.0002625 -0.0002276 -0.0004265 -0.0010459 -0.0002857 0.0004805 -0.0001414 0.0006826 -0.0000799 0.0004961 0.0000522 0.0005186 0.0004655 0.0016726 0.0006173 0.0011396 -0.0003313 -0.0011908 0.0002044 -0.0002688 0.0004080 0.0028841 -0.0039302 -0.0143672 -0.0005899 -0.0004439 -0.0000340 0.0004102 -0.0013379 -0.0016105 -0.0008398 -0.0013122 0.0004168 -0.0017429 0.0009901 0.0027611 -0.0001276 -0.0026793 -0.0001994 -0.0026520 -0.0010084 -0.0039066 -0.0006502 -0.0031148 -0.0000045 0.0001518 0.0002138 0.0006004 -0.0009264 -0.0013522 -0.0008820 -0.0022515 -0.0002202 0.0000723 0.0000411 0.0006089 -0.0001199 -0.0004364 -0.0000190 0.0001126 0.0003449 0.0014108 -0.0000944 0.0002495 0.0006831 0.0016863 -0.0000698 -0.0004816 0.0000642 -0.0007877 -0.0001381 -0.0010443 0.0000834 0.0001521 -0.0000938 0.0002153 0.0000617 0.0006254 -0.0001595 -0.0008005 -0.0002609 0.0001970 0.0000056 0.0003805 -0.0003314 -0.0001066 -0.0001862 -0.0018971 -0.0000616 -0.0001499 0.0000546 0.0005474 -0.0000342 -0.0004838 -0.0001687 0.0012526 0.0000232 -0.0005288 -0.0003241 0.0008227 -0.0007924 0.0009073 -0.0002296 0.0000108 -0.0000058 0.0006295 -0.0002088 0.0000649 -0.0002898 0.0006498 -0.0002995 -0.0007086 0.0003266 0.0001929
0.0001450 0.0013346 0.0003600 0.0013225 -0.0002477 -0.0008973 -0.0008692 -0.0021197 -0.0000676 0.0005198 0.0001094 0.0008456 -0.0002478 -0.0002375 0.0000670 0.0014243 -0.0000727 0.0003334 0.0001631 0.0016698 0.0004523 0.0022409 -0.0000635 0.0003274 -0.0006882 -0.0032777 -0.0002919 -0.0004777 -0.0004717 -0.0014261 -0.0002752 0.0004432 -0.0001465 0.0007504 -0.0000633 0.0003526 0.0000384 0.0004001 0.0004834 0.0018145 0.0006162 0.0010702 -0.0004091 -0.0014887 0.0001543 -0.0006755 0.0004645 0.0029294 -0.0050879 -0.0147422 -0.0006156 -0.0004266 -0.0000226 0.0005679 -0.0013536 -0.0017619 -0.0007281 -0.0013281 0.0007996 -0.0017687 0.0012959 0.0026493 -0.0003453 -0.0020919 -0.0002226 -0.0026168 -0.0008565 -0.0040164 -0.0006897 -0.0031597 0.0000026 0.0002318 0.0001881 0.0005683 -0.0008636 -0.0011223 -0.0007680 -0.0022555 -0.0002155 0.0000980 0.0000043 0.0006181 -0.0001147 -0.0004386 -0.0000401 0.0000953 0.0003332 0.0015019 -0.0000850 0.0002866 0.0005918 0.0017406 -0.0005422 -0.0000970 0.0000749 -0.0008814 -0.0001362 -0.0011547 0.0000973 0.0003694 -0.0000972 0.0001722 0.0000540 0.0007050 -0.0001672 -0.0007886 -0.0002752 0.0002242 0.0000203 0.0004280 -0.0003197 -0.0000774 -0.0001813 -0.0019904 -0.0000627 -0.0001839 0.0000393 0.0006004 0.0001191 -0.0003630 -0.0002396 0.0012106 -0.0001020 -0.0005758 -0.0002348 0.0007991 -0.0005979 0.0008014 -0.0002826 0.0000410 0.0000158 0.0005423 -0.0003067 -0.0001529 -0.0003339 0.0008374 -0.0003149 -0.0006656 0.0000172 0.0005794
0.0001506 0.0014504 0.0004063 0.0014368 -0.0002023 -0.0011127 -0.0009143 -0.0024014 -0.0000280 0.0005195 0.0001472 0.0010110 -0.0002611 -0.0001287 0.0000746 0.0014240 -0.0001087 0.0004900 0.0002507 0.0017745 0.0005377 0.0024815 -0.0002309 0.0007141 -0.0007473 -0.0035965 -0.0003091 -0.0005824 -0.0005053 -0.0015964 -0.0002778 0.0005020 -0.0001056 0.0008651 -0.0000797 0.0003357 0.0000610 0.0003007 0.0004344 0.0020373 0.0006270 0.0009859 -0.0004521 -0.0016015 0.0001198 -0.0009064 0.0005053 0.0028883 -0.0049812 -0.0161760 -0.0007374 -0.0005254 -0.0000607 0.0006298 -0.0013807 -0.0019547 -0.0006993 -0.0013645 0.0009096 -0.0018424 0.0017357 0.0024511 -0.0002589 -0.0019424 -0.0000520 -0.0027055 -0.0007889 -0.0040990 -0.0005927 -0.0035497 0.0000114 0.0003245 0.0001224 0.0005671 -0.0007770 -0.0009143 -0.0006452 -0.0022518 -0.0002172 0.0001216 -0.0000252 0.0005344 -0.0001094 -0.0004144 -0.0000615 0.0000860 0.0003705 0.0015558 -0.0000661 0.0002520 0.0005778 0.0016902 -0.0006232 0.0001633 0.0001020 -0.0009083 -0.0001400 -0.0012234 0.0001051 0.0005387 -0.0001149 0.0001709 0.0000392 0.0007578 -0.0001691 -0.0007445 -0.0002722 0.0002442 0.0000161 0.0004555 -0.0003193 -0.0000238 -0.0001908 -0.0019615 -0.0000720 -0.0000650 0.0000594 0.0007395 0.0001898 -0.0002390 -0.0002540 0.0012689 -0.0007218 0.0001589 -0.0002637 0.0008754 -0.0002311 0.0004676 -0.0003459 -0.0003066 0.0000312 0.0007443 -0.0003539 -0.0002972 -0.0001290 0.0009041 -0.0003237 -0.0004897 -0.0001590 0.0007505
0.0001563 0.0014043 0.0004204 0.0014507 -0.0001604 -0.0013066 -0.0009935 -0.0028816 -0.0000454 0.0004805 0.0002280 0.0009100 -0.0002626 -0.0002111 0.0000539 0.0013738 -0.0000839 0.0004475 0.0002369 0.0017628 0.0005035 0.0024264 -0.0004186 0.0007448 -0.0008066 -0.0039847 -0.0003570 -0.0007301 -0.0005367 -0.0018273 -0.0002907 0.0004792 -0.0001040 0.0007900 -0.0000652 0.0002330 0.0000930 0.0001357 0.0004290 0.0019311 0.0006242 0.0008151 -0.0004663 -0.0017035 0.0000927 -0.0011713 0.0004828 0.0028832 -0.0044029 -0.0171760 -0.0007729 -0.0006325 -0.0001805 0.0005947 -0.0013379 -0.0020671 -0.0007849 -0.0013946 0.0009180 -0.0020707 0.0019012 0.0023693 0.0000510 -0.0023145 0.0000349 -0.0031344 -0.0008984 -0.0042291 -0.0005955 -0.0039849 0.0000076 0.0003711 0.0001181 0.0006180 -0.0007683 -0.0008904 -0.0006068 -0.0022304 -0.0002885 0.0001327 0.0000053 0.0003548 -0.0001112 -0.0003388 -0.0000913 0.0000997 0.0004321 0.0015383 -0.0001070 0.0002268 0.0005771 0.0016549 -0.0003876 0.0000124 0.0001173 -0.0008521 -0.0001434 -0.0011666 0.0000932 0.0004389 -0.0001441 0.0001052 0.0000188 0.0007079 -0.0002082 -0.0007106 -0.0003049 0.0002152 -0.0000105 0.0004119 -0.0003221 -0.0000442 -0.0001796 -0.0020138 -0.0000694 -0.0000831 0.0000511 0.0008631 0.0001088 -0.0002133 -0.0002741 0.0014166 -0.0012004 0.0008162 -0.0004812 0.0012209 0.0000936 0.0001619 -0.0003772 -0.0007477 0.0001541 0.0008403 -0.0003572 -0.0002860 -0.0001708 0.0009338 -0.0003381 -0.0003929 -0.0000978 0.0005647
0.0001455 0.0013846 0.0004080 0.0014379 -0.0002042 -0.0013945 -0.0011309 -0.0032600 -0.0000705 0.0004415 0.0001884 0.0009316 -0.0002792 -0.0002758 0.0000660 0.0013121 -0.0000537 0.0004232 0.0002112 0.0018221 0.0004808 0.0025078 -0.0005822 0.0009273 -0.0008392 -0.0041198 -0.0003992 -0.0008014 -0.0005517 -0.0018597 -0.0002892 0.0005306 -0.0000764 0.0009416 -0.0000948 0.0003137 0.0000732 0.0001667 0.0004442 0.0021462 0.0006140 0.0008223 -0.0004724 -0.0015793 0.0000846 -0.0011261 0.0004559 0.0030682 -0.0055640 -0.0172127 -0.0007668 -0.0007546 -0.0001731 0.0006000 -0.0013976 -0.0020968 -0.0007781 -0.0013008 0.0008022 -0.0017328 0.0021273 0.0020480 0.0000725 -0.0019181 -0.0000612 -0.0031277 -0.0008118 -0.0042522 -0.0008356 -0.0038013 0.0000070 0.0003266 0.0001312 0.0006062 -0.0007859 -0.0009129 -0.0005922 -0.0022334 -0.0003178 0.0001079 -0.0000502 0.0003715 -0.0001223 -0.0003218 -0.0001125 0.0000753 0.0004038 0.0014747 -0.0001571 0.0002487 0.0005589 0.0016338 -0.0003129 0.0000150 0.0001151 -0.0008109 -0.0001499 -0.0010972 0.0000855 0.0003469 -0.0001519 0.0000874 0.0000039 0.0007127 -0.0002260 -0.0007295 -0.0003286 0.0002383 -0.0000370 0.0004340 -0.0003103 -0.0000239 -0.0001738 -0.0020729 -0.0000559 -0.0000569 0.0000076 0.0009636 0.0000646 -0.0001047 -0.0002448 0.0015218 -0.0007430 0.0009200 -0.0003086 0.0012402 0.0002974 0.0001929 -0.0003661 -0.0005648 0.0002132 0.0007726 -0.0003743 -0.0001293 -0.0005748 0.0012806 -0.0003684 -0.0003567 -0.0000329 0.0005126
0.0001479 0.0014416 0.0004390 0.0015074 -0.0002272 -0.0014051 -0.0012213 -0.0034502 -0.0000019 0.0003764 0.0001601 0.0010542 -0.0002630 -0.0003307 0.0000751 0.0012862 -0.0000483 0.0005064 0.0002295 0.0018745 0.0005238 0.0025894 -0.0003221 0.0008525 -0.0007682 -0.0038137 -0.0003298 -0.0006429 -0.0005460 -0.0018578 -0.0002781 0.0005690 -0.0000665 0.0010176 -0.0001157 0.0002969 0.0000585 0.0002358 0.0004041 0.0024102 0.0006226 0.0009907 -0.0003600 -0.0012495 0.0001752 -0.0005954 0.0005040 0.0032289 -0.0055808 -0.0182138 -0.0007850 -0.0009223 -0.0001182 0.0005372 -0.0014740 -0.0022006 -0.0007682 -0.0012898 0.0005959 -0.0019808 0.0019892 0.0006994 -0.0000049 -0.0015218 -0.0001485 -0.0028131 -0.0008741 -0.0041948 -0.0008765 -0.0036704 0.0000083 0.0003473 0.0001103 0.0006391 -0.0007763 -0.0008195 -0.0005618 -0.0022233 -0.0003191 0.0001195 -0.0001025 0.0004531 -0.0001202 -0.0002760 -0.0001328 0.0000808 0.0003261 0.0015311 -0.0001803 0.0003125 0.0005931 0.0015765 -0.0002320 0.0000453 0.0000995 -0.0007433 -0.0001606 -0.0009944 0.0000794 0.0003030 -0.0001522 0.0001476 -0.0000059 0.0007947 -0.0002233 -0.0007076 -0.0003310 0.0003134 -0.0000306 0.0004739 -0.0002907 0.0000788 -0.0001924 -0.0020951 -0.0000264 0.0000519 0.0000332 0.0010283 0.0000928 -0.0000641 -0.0001912 0.0014603 -0.0004818 0.0006978 -0.0002726 0.0012353 0.0003332 0.0004672 -0.0003323 -0.0003662 0.0002448 0.0006432 -0.0003642 -0.0000222 -0.0005777 0.0013223 -0.0003818 -0.0003752 -0.0001291 0.0006022
0.0001717 0.0014552 0.0004641 0.0015274 -0.0001603 -0.0011023 -0.0011247 -0.0031054 0.0000329 0.0004654 0.0002251 0.0010561 -0.0002112 -0.0002728 0.0001262 0.0013372 -0.0000200 0.0005653 0.0002274 0.0018305 0.0005718 0.0024840 0.0000363 0.0005634 -0.0006162 -0.0030939 -0.0002322 -0.0003042 -0.0005277 -0.0016784 -0.0002749 0.0005486 -0.0000815 0.0009162 -0.0000922 0.0003086 0.0000390 0.0003353 0.0003384 0.0023588 0.0006765 0.0012544 -0.0001975 -0.0006937 0.0002326 0.0001756 0.0004956 0.0034137 -0.0059187 -0.0183732 -0.0008009 -0.0006485 -0.0000185 0.0006846 -0.0015600 -0.0020303 -0.0007887 -0.0010217 0.0007475 -0.0022448 0.0019864 -0.0000496 -0.0002832 -0.0009528 -0.0003848 -0.0023154 -0.0006020 -0.0043099 -0.0009257 -0.0035932 0.0000143 0.0003745 0.0001190 0.0006603 -0.0007373 -0.0007050 -0.0005285 -0.0022252 -0.0003024 0.0000998 -0.0001720 0.0004913 -0.0000960 -0.0001939 -0.0001319 0.0000888 0.0003191 0.0015083 -0.0001907 0.0003327 0.0005450 0.0015770 -0.0002025 -0.0001164 0.0001025 -0.0007056 -0.0001610 -0.0008874 0.0000658 0.0002130 -0.0001562 0.0001629 -0.0000136 0.0008218 -0.0002212 -0.0006285 -0.0003324 0.0003238 -0.0000192 0.0004596 -0.0002798 0.0001225 -0.0001728 -0.0020717 0.0000074 0.0001075 0.0000164 0.0010860 0.0001004 -0.0000115 -0.0002528 0.0015371 -0.0003534 0.0001846 -0.0003112 0.0013581 -0.0002292 0.0009264 -0.0003242 -0.0003286 0.0001944 0.0006790 -0.0003430 0.0000934 -0.0003645 0.0012603 -0.0003910 -0.0002051 -0.0001431 0.0006407
0.0001756 0.0014593 0.0004739 0.0015047 -0.0000922 -0.0006526 -0.0010147 -0.0025691 0.0000287 0.0005902 0.0002365 0.0009933 -0.0001946 -0.0001240 0.0001737 0.0013187 0.0000151 0.0005731 0.0002127 0.0017375 0.0005553 0.0024323 0.0002439 0.0002660 -0.0005520 -0.0028199 -0.0001989 -0.0002037 -0.0005348 -0.0016314 -0.0002544 0.0004382 -0.0000851 0.0008216 -0.0000844 0.0003150 0.0000284 0.0004317 0.0003352 0.0021842 0.0007005 0.0014206 -0.0001391 -0.0005628 0.0002370 0.0004920 0.0004134 0.0032430 -0.0060215 -0.0193310 -0.0008018 -0.0007767 0.0000118 0.0007115 -0.0016441 -0.0020870 -0.0008398 -0.0009353 0.0009068 -0.0016419 0.0021139 0.0001694 0.0000287 -0.0007671 -0.0004261 -0.0019179 -0.0005054 -0.0041434 -0.0007911 -0.0036323 0.0000262 0.0004054 0.0001118 0.0007195 -0.0007147 -0.0006523 -0.0005069 -0.0021478 -0.0002994 0.0001317 -0.0001972 0.0005232 -0.0000877 -0.0001469 -0.0001320 0.0001461 0.0003044 0.0015443 -0.0001975 0.0003619 0.0004076 0.0017067 -0.0002252 0.0000530 0.0001147 -0.0006348 -0.0001631 -0.0008013 0.0000577 0.0002746 -0.0001762 0.0002051 -0.0000411 0.0008546 -0.0002386 -0.0005574 -0.0003272 0.0003632 -0.0000092 0.0004479 -0.0002762 0.0001529 -0.0001383 -0.0019524 0.0000158 0.0001072 -0.0000019 0.0012090 0.0000339 0.0001843 -0.0002580 0.0016184 -0.0003112 0.0001103 -0.0002217 0.0013933 -0.0004552 0.0009997 -0.0003386 -0.0003661 0.0002035 0.0006848 -0.0003362 0.0001058 -0.0003093 0.0011599 -0.0003682 -0.0001332 -0.0001806 0.0005734
0.0001753 0.0014398 0.0004694 0.0014712 -0.0000715 -0.0004581 -0.0009707 -0.0023690 0.0000036 0.0006286 0.0002418 0.0009499 -0.0002086 -0.0001399 0.0001437 0.0012223 0.0000186 0.0005290 0.0002083 0.0016681 0.0004918 0.0024896 0.0000361 0.0004197 -0.0005463 -0.0028760 -0.0002158 -0.0002747 -0.0005368 -0.0016713 -0.0002352 0.0003377 -0.0001029 0.0008223 -0.0000958 0.0002546 0.0000334 0.0005276 0.0003018 0.0021865 0.0006521 0.0014929 -0.0001354 -0.0005889 0.0002680 0.0006210 0.0004854 0.0030603 -0.0055333 -0.0210299 -0.0007896 -0.0008860 -0.0000524 0.0008067 -0.0015750 -0.0021373 -0.0009392 -0.0008608 0.0009513 -0.0016446 0.0020364 0.0001685 0.0001174 -0.0009185 -0.0002211 -0.0019220 -0.0008266 -0.0039862 -0.0007265 -0.0037120 0.0000322 0.0003809 0.0001219 0.0006942 -0.0007161 -0.0007297 -0.0004823 -0.0021062 -0.0002967 0.0001355 -0.0001496 0.0005182 -0.0001041 -0.0002428 -0.0001499 0.0001741 0.0002672 0.0016138 -0.0002055 0.0003749 0.0004724 0.0016694 -0.0002206 0.0002214 0.0001172 -0.0005340 -0.0001633 -0.0007416 0.0000614 0.0003730 -0.0001815 0.0002032 -0.0000458 0.0008331 -0.0002501 -0.0005702 -0.0003287 0.0004147 -0.0000122 0.0004676 -0.0002629 0.0001508 -0.0001082 -0.0017994 0.0000140 0.0000687 -0.0000018 0.0013242 -0.0000118 0.0002999 -0.0003202 0.0017060 -0.0000420 0.0003477 -0.0002313 0.0014652 -0.0002591 0.0008694 -0.0003456 -0.0003479 0.0002879 0.0006834 -0.0003462 0.0001443 -0.0001046 0.0010357 -0.0003613 -0.0000565 -0.0004841 0.0007703
0.0001761 0.0014559 0.0004703 0.0014530 -0.0000590 -0.0003122 -0.0009390 -0.0022634 -0.0000374 0.0006765 0.0001720 0.0010115 -0.0002274 -0.0001479 0.0001067 0.0011850 0.0000046 0.0004763 0.0002259 0.0015833 0.0004991 0.0023767 -0.0002016 0.0005365 -0.0005555 -0.0029215 -0.0002167 -0.0003439 -0.0005352 -0.0016705 -0.0002543 0.0002951 -0.0001034 0.0007631 -0.0001167 0.0002319 -0.0000041 0.0005643 0.0003146 0.0020972 0.0006665 0.0014685 -0.0001479 -0.0006323 0.0002419 0.0006721 0.0004736 0.0028275 -0.0056009 -0.0210431 -0.0008191 -0.0010342 -0.0000706 0.0006681 -0.0016531 -0.0021033 -0.0009640 -0.0010315 0.0010118 -0.0018855 0.0018676 0.0001886 -0.0000528 -0.0010376 -0.0002514 -0.0020213 -0.0008641 -0.0040350 -0.0008900 -0.0037461 0.0000335 0.0003899 0.0001224 0.0006994 -0.0007193 -0.0007088 -0.0004672 -0.0020084 -0.0003004 0.0002193 -0.0001539 0.0006025 -0.0001263 -0.0002282 -0.0001572 0.0002596 0.0002565 0.0017119 -0.0002109 0.0005379 0.0005402 0.0016679 -0.0001512 0.0001424 0.0001179 -0.0003458 -0.0001596 -0.0005743 0.0000649 0.0003738 -0.0001835 0.0003094 -0.0000437 0.0009059 -0.0002671 -0.0004769 -0.0003325 0.0005459 -0.0000441 0.0005630 -0.0002472 0.0002615 -0.0000820 -0.0016531 0.0000194 0.0001348 -0.0000530 0.0014318 0.0000127 0.0003853 -0.0002344 0.0015434 -0.0004459 0.0006798 -0.0002519 0.0014962 -0.0003242 0.0008914 -0.0003433 -0.0002841 0.0002721 0.0006882 -0.0003444 0.0002195 -0.0001344 0.0011271 -0.0003423 0.0000171 -0.0003453 0.0006090
0.0001734 0.0013472 0.0004464 0.0013293 -0.0000608 -0.0003159 -0.0009308 -0.0022495 -0.0000698 0.0006340 0.0001633 0.0008852 -0.0002168 -0.0001846 0.0000874 0.0010614 0.0000125 0.0003519 0.0001849 0.0014331 0.0004674 0.0020873 -0.0004305 0.0004971 -0.0005938 -0.0031555 -0.0002455 -0.0004777 -0.0005437 -0.0017530 -0.0002937 0.0002005 -0.0001044 0.0005658 -0.0001213 0.0001639 -0.0000323 0.0005257 0.0003785 0.0017985 0.0007115 0.0013581 -0.0001642 -0.0007318 0.0002004 0.0005685 0.0003270 0.0026121 -0.0048232 -0.0210384 -0.0008792 -0.0011586 -0.0001547 0.0004075 -0.0017224 -0.0020843 -0.0009806 -0.0012058 0.0010162 -0.0021673 0.0016746 0.0005614 -0.0000287 -0.0010587 -0.0005020 -0.0017958 -0.0009081 -0.0039913 -0.0009268 -0.0036895 0.0000338 0.0004088 0.0001031 0.0007273 -0.0006926 -0.0006828 -0.0004348 -0.0019719 -0.0003058 0.0002416 -0.0001073 0.0005517 -0.0001204 -0.0002093 -0.0001650 0.0002856 0.0002153 0.0016885 -0.0002066 0.0005603 0.0004867 0.0016528 -0.0001822 0.0002140 0.0001219 -0.0002508 -0.0001588 -0.0004713 0.0000671 0.0003900 -0.0001896 0.0003616 -0.0000428 0.0009263 -0.0002697 -0.0004458 -0.0003203 0.0005604 -0.0000286 0.0005540 -0.0002314 0.0002999 -0.0000591 -0.0015802 0.0000313 0.0001684 -0.0000347 0.0014451 0.0000487 0.0004129 -0.0001480 0.0014546 -0.0003314 0.0000372 -0.0003969 0.0016229 -0.0000171 0.0005442 -0.0003223 -0.0001916 0.0002461 0.0006286 -0.0003307 0.0002748 -0.0003401 0.0012181 -0.0003109 -0.0000430 0.0000158 0.0004046
0.0001358 0.0013518 0.0004076 0.0012812 -0.0000766 -0.0002578 -0.0009280 -0.0020728 -0.0000439 0.0006423 0.0002217 0.0007876 -0.0002051 -0.0000765 0.0000936 0.0009917 -0.0000111 0.0003177 0.0001683 0.0013290 0.0004304 0.0019374 -0.0005371 0.0004410 -0.0006189 -0.0032231 -0.0002889 -0.0005160 -0.0005518 -0.0017444 -0.0003111 0.0001275 -0.0001047 0.0004567 -0.0001048 0.0001551 -0.0000236 0.0005202 0.0003630 0.0016080 0.0006725 0.0013363 -0.0001795 -0.0007662 0.0001819 0.0005087 0.0003039 0.0024683 -0.0051429 -0.0205656 -0.0008748 -0.0011775 -0.0002780 0.0003964 -0.0016597 -0.0020701 -0.0009536 -0.0012981 0.0009756 -0.0023451 0.0016088 0.0005649 -0.0001597 -0.0012173 -0.0004451 -0.0019847 -0.0008702 -0.0042402 -0.0009938 -0.0038125 0.0000408 0.0004026 0.0000929 0.0007248 -0.0006557 -0.0006672 -0.0003954 -0.0019518 -0.0003066 0.0002318 -0.0000781 0.0005734 -0.0001028 -0.0002402 -0.0001689 0.0002822 0.0001927 0.0016507 -0.0002154 0.0006082 0.0004574 0.0016365 -0.0002327 0.0003847 0.0001086 -0.0001323 -0.0001646 -0.0003851 0.0000737 0.0004378 -0.0001924 0.0004518 -0.0000576 0.0009866 -0.0002638 -0.0004142 -0.0003205 0.0006552 0.0000005 0.0005917 -0.0002201 0.0003963 -0.0000381 -0.0014085 0.0000404 0.0002750 -0.0000067 0.0015333 0.0000541 0.0005149 -0.0001615 0.0015903 0.0003965 -0.0006173 -0.0003509 0.0016004 -0.0003665 0.0008039 -0.0002978 -0.0000434 0.0001489 0.0006570 -0.0003068 0.0003169 -0.0004699 0.0012053 -0.0003369 -0.0000868 -0.0001798 0.0005915
0.0001167 0.0013125 0.0003959 0.0011819 -0.0000851 -0.0003415 -0.0009306 -0.0021471 -0.0000684 0.0006426 0.0001877 0.0007472 -0.0002265 -0.0000545 0.0000518 0.0009461 -0.0000350 0.0002356 0.0001553 0.0012399 0.0004199 0.0018071 -0.0004110 -0.0000526 -0.0006768 -0.0035090 -0.0003221 -0.0006746 -0.0005699 -0.0018537 -0.0002973 0.0000283 -0.0001113 0.0003834 -0.0001171 0.0001340 -0.0000189 0.0004704 0.0002935 0.0015492 0.0006675 0.0012725 -0.0002059 -0.0008850 0.0001733 0.0003911 0.0003286 0.0024274 -0.0062545 -0.0201571 -0.0008384 -0.0011503 -0.0002972 0.0004391 -0.0016500 -0.0020732 -0.0008865 -0.0013205 0.0008346 -0.0022088 0.0017147 0.0001385 0.0000205 -0.0012756 -0.0003088 -0.0021482 -0.0006204 -0.0044458 -0.0010467 -0.0037850 0.0000503 0.0003799 0.0000898 0.0007168 -0.0006338 -0.0006443 -0.0003728 -0.0018889 -0.0003098 0.0002177 -0.0001681 0.0006705 -0.0000927 -0.0002536 -0.0001511 0.0002562 0.0002120 0.0016381 -0.0002206 0.0006214 0.0004806 0.0016237 -0.0001031 0.0001392 0.0001113 -0.0000362 -0.0001596 -0.0003549 0.0000841 0.0005099 -0.0001806 0.0004440 -0.0000698 0.0010003 -0.0002734 -0.0003985 -0.0003238 0.0006858 -0.0000201 0.0006538 -0.0002178 0.0004110 -0.0000218 -0.0013138 0.0000503 0.0002812 -0.0000084 0.0015953 0.0000023 0.0006287 -0.0001610 0.0015910 -0.0006402 0.0004155 -0.0004053 0.0015973 -0.0008913 0.0012752 -0.0003055 -0.0000712 0.0001039 0.0006280 -0.0002888 0.0002513 -0.0004857 0.0012031 -0.0003675 -0.0001215 -0.0002500 0.0005951
0.0001146 0.0013425 0.0003927 0.0011781 -0.0001052 -0.0005258 -0.0009579 -0.0022558 -0.0000969 0.0006986 0.0001821 0.0008451 -0.0002553 0.0000232 0.0000107 0.0009449 -0.0000008 0.0002817 0.0001402 0.0013421 0.0004425 0.0019885 -0.0006377 0.0005098 -0.0006445 -0.0032492 -0.0003236 -0.0006110 -0.0005668 -0.0017330 -0.0003049 0.0000612 -0.0001411 0.0005680 -0.0001462 0.0002026 -0.0000342 0.0005631 0.0003002 0.0017595 0.0006628 0.0012887 -0.0001995 -0.0007909 0.0001904 0.0005083 0.0003036 0.0024720 -0.0063731 -0.0202471 -0.0008495 -0.0010628 -0.0001810 0.0004697 -0.0015310 -0.0020373 -0.0008858 -0.0009936 0.0008349 -0.0029247 0.0016448 -0.0010185 0.0003847 -0.0009389 -0.0003900 -0.0015953 -0.0004742 -0.0043954 -0.0008625 -0.0034063 0.0000510 0.0003462 0.0000973 0.0006770 -0.0006133 -0.0006507 -0.0003415 -0.0018705 -0.0002924 0.0001651 -0.0002482 0.0006251 -0.0000923 -0.0002582 -0.0001546 0.0002374 0.0002624 0.0016465 -0.0002474 0.0005928 0.0004653 0.0016274 -0.0001482 0.0000493 0.0001309 -0.0000272 -0.0001549 -0.0004039 0.0000913 0.0006889 -0.0001809 0.0003716 -0.0000684 0.0009299 -0.0002523 -0.0003864 -0.0003169 0.0006256 -0.0000523 0.0006381 -0.0002262 0.0003459 -0.0000162 -0.0012588 0.0000589 0.0002931 0.0000057 0.0016851 0.0000246 0.0007831 -0.0002496 0.0017689 -0.0011656 0.0009671 -0.0003669 0.0016354 -0.0003378 0.0008865 -0.0003539 -0.0002279 0.0001397 0.0007274 -0.0003323 0.0000399 -0.0003945 0.0010509 -0.0003376 -0.0001135 -0.0000519 0.0002385
0.0001503 0.0013728 0.0004117 0.0012629 -0.0000932 -0.0005102 -0.0009245 -0.0020562 -0.0000191 0.0006458 0.0002099 0.0008919 -0.0002301 0.0000146 0.0000365 0.0009585 0.0000341 0.0004409 0.0001405 0.0014488 0.0004894 0.0021318 -0.0005867 0.0010757 -0.0003711 -0.0018579 -0.0002464 -0.0002241 -0.0004974 -0.0013141 -0.0003091 0.0001253 -0.0001556 0.0007338 -0.0001676 0.0002276 -0.0000276 0.0006483 0.0003317 0.0019186 0.0006341 0.0014036 -0.0001472 -0.0005070 0.0002337 0.0008915 0.0002853 0.0025174 -0.0053135 -0.0206729 -0.0008229 -0.0008492 0.0000524 0.0005168 -0.0014964 -0.0018625 -0.0008565 -0.0006675 0.0007642 -0.0038813 0.0015030 -0.0027113 0.0002396 -0.0006204 -0.0002761 -0.0012140 -0.0004734 -0.0044810 -0.0007828 -0.0031479 0.0000658 0.0003589 0.0000636 0.0007020 -0.0005715 -0.0004466 -0.0002594 -0.0017610 -0.0003023 0.0001354 -0.0002423 0.0005042 0.0000091 0.0000595 -0.0001972 0.0000721 0.0002263 0.0016395 -0.0003048 0.0006009 0.0003753 0.0015064 -0.0003261 0.0000526 0.0000861 0.0000605 -0.0001717 0.0002304 -0.0000857 -0.0001596 -0.0002007 0.0002780 -0.0000412 0.0010739 -0.0000831 0.0000974 -0.0003425 0.0004572 -0.0000380 0.0006115 -0.0002273 0.0002894 0.0000379 -0.0012319 0.0001200 0.0004582 0.0000597 0.0015603 0.0001548 0.0009142 -0.0003586 0.0016504 -0.0008258 0.0004696 -0.0004247 0.0015689 -0.0004458 0.0004067 -0.0004267 -0.0003884 -0.0003147 -0.0005356 -0.0005209 -0.0005211 -0.0003549 0.0009157 -0.0003032 0.0001224 -0.0003792 -0.0001168
0.0001863 0.0013223 0.0003998 0.0011423 -0.0000171 -0.0000030 -0.0008545 -0.0017240 0.0000109 0.0008612 0.0001975 0.0009958 -0.0002544 -0.0000825 -0.0000171 0.0007532 0.0000754 0.0004486 0.0001193 0.0014145 0.0004371 0.0020373 -0.0001450 0.0004798 -0.0000871 -0.0002826 -0.0001826 0.0001462 -0.0004044 -0.0005779 -0.0003348 0.0001183 -0.0001425 0.0007048 -0.0001911 0.0003321 -0.0000349 0.0007819 0.0002803 0.0018482 0.0006155 0.0014979 -0.0001154 -0.0001836 0.0002842 0.0012689 0.0002764 0.0024204 -0.0057618 -0.0196997 -0.0007956 -0.0006850 -0.0000032 0.0005239 -0.0015025 -0.0018580 -0.0008186 -0.0006661 0.0003801 -0.0039043 0.0017084 -0.0032089 -0.0000427 -0.0006168 -0.0003675 -0.0013005 -0.0005332 -0.0046223 -0.0007959 -0.0032662 0.0001126 0.0003406 0.0000009 0.0006860 -0.0005481 -0.0002576 -0.0001978 -0.0017994 -0.0002955 0.0000295 -0.0002926 0.0004420 0.0000847 0.0001323 -0.0002171 -0.0000814 0.0002019 0.0015950 -0.0003317 0.0005661 0.0002933 0.0013540 -0.0005585 -0.0001260 0.0000085 -0.0002008 -0.0002044 0.0003374 -0.0001712 -0.0004411 -0.0001995 0.0001848 -0.0000127 0.0011744 0.0000046 0.0003299 -0.0003567 0.0003069 -0.0000085 0.0006031 -0.0002219 0.0002440 0.0000857 -0.0013141 0.0001304 0.0004839 0.0000259 0.0014101 0.0003055 0.0010740 -0.0004184 0.0013778 -0.0003196 -0.0001963 -0.0008564 0.0017977 -0.0012390 0.0007870 -0.0004823 -0.0005499 -0.0010081 -0.0023681 -0.0006626 -0.0009648 -0.0003477 0.0009773 -0.0002482 0.0003562 -0.0007691 -0.0002424
0.0001726 0.0013368 0.0003599 0.0010144 0.0000341 0.0005305 -0.0008284 -0.0016998 -0.0000056 0.0009246 0.0001860 0.0010316 -0.0002878 -0.0000905 -0.0000187 0.0005778 0.0000733 0.0003431 0.0001487 0.0013328 0.0004345 0.0019164 -0.0000895 0.0002766 -0.0000128 0.0001859 -0.0001575 0.0002892 -0.0003686 -0.0002192 -0.0003479 0.0000301 -0.0001204 0.0006227 -0.0001788 0.0003175 -0.0000107 0.0008456 0.0003326 0.0016589 0.0006357 0.0013876 -0.0000923 -0.0000849 0.0002947 0.0013756 0.0003114 0.0024477 -0.0054305 -0.0192603 -0.0007029 -0.0006344 -0.0001677 0.0005392 -0.0015668 -0.0019608 -0.0008321 -0.0007420 0.0002674 -0.0038999 0.0016991 -0.0025191 0.0000165 -0.0010962 -0.0006312 -0.0014486 -0.0004446 -0.0048298 -0.0008036 -0.0035515 0.0001358 0.0003073 0.0000053 0.0006537 -0.0005750 -0.0003816 -0.0002363 -0.0019989 -0.0002744 -0.0000906 -0.0004226 0.0004656 0.0000349 -0.0001349 -0.0002061 -0.0000039 0.0002262 0.0015866 -0.0003220 0.0005176 0.0002798 0.0013756 -0.0005853 -0.0001486 0.0000031 -0.0006689 -0.0002194 -0.0004381 -0.0000299 0.0004155 -0.0002033 0.0001538 -0.0000317 0.0010395 -0.0000779 0.0000711 -0.0003570 0.0002945 -0.0000124 0.0005593 -0.0002115 0.0002235 0.0000702 -0.0015028 0.0000911 0.0002871 -0.0000280 0.0013345 0.0003241 0.0011722 -0.0004161 0.0011931 -0.0001227 -0.0001158 -0.0007556 0.0018124 -0.0009228 0.0006409 -0.0004664 -0.0007286 -0.0011182 -0.0028098 -0.0006111 -0.0009422 -0.0003067 0.0007072 -0.0003622 -0.0000214 -0.0010184 -0.0002311
0.0001673 0.0013265 0.0003406 0.0009721 0.0000509 0.0007437 -0.0007963 -0.0016158 0.0000122 0.0007472 0.0001808 0.0007877 -0.0002563 0.0000558 0.0000487 0.0006857 0.0000485 0.0002655 0.0001221 0.0012629 0.0004776 0.0017830 -0.0003501 0.0006210 -0.0000796 -0.0001247 -0.0001603 0.0003302 -0.0003939 -0.0002048 -0.0003160 0.0000273 -0.0001402 0.0006154 -0.0001761 0.0004000 0.0000015 0.0008231 0.0003801 0.0014592 0.0006606 0.0013065 -0.0001026 -0.0000607 0.0002497 0.0011994 0.0003158 0.0025463 -0.0042586 -0.0191477 -0.0006306 -0.0005915 -0.0001626 0.0006047 -0.0015623 -0.0020114 -0.0008730 -0.0007597 0.0004533 -0.0035251 0.0016144 -0.0015823 0.0000725 -0.0010637 -0.0003859 -0.0018456 -0.0005737 -0.0045455 -0.0008962 -0.0037306 0.0001271 0.0001630 0.0000340 0.0006044 -0.0005689 -0.0005151 -0.0003040 -0.0021372 -0.0002677 -0.0002506 -0.0003456 0.0004080 0.0000462 -0.0001634 -0.0001690 -0.0000845 0.0002078 0.0014016 -0.0003199 0.0004760 0.0002861 0.0012418 -0.0004910 0.0000934 -0.0000078 -0.0005195 -0.0002342 -0.0003635 -0.0000933 -0.0004866 -0.0002275 0.0001273 -0.0000410 0.0009264 -0.0000930 -0.0000327 -0.0003994 0.0002185 -0.0000571 0.0003685 -0.0002223 0.0001733 0.0000952 -0.0016082 0.0002131 0.0005470 -0.0000414 0.0010465 0.0001072 0.0011290 -0.0005556 0.0008482 -0.0003233 0.0012023 -0.0006571 0.0013984 -0.0000919 0.0003041 -0.0004582 -0.0006879 -0.0013357 -0.0027944 -0.0006001 -0.0008493 -0.0003368 0.0002132 -0.0008148 -0.0015476 -0.0009648 -0.0002212
0.0001569 0.0011567 0.0003215 0.0008467 0.0000446 0.0006042 -0.0007718 -0.0014861 -0.0000231 0.0007333 0.0000994 0.0006051 -0.0002349 0.0000303 0.0000572 0.0006428 0.0000552 0.0000820 0.0000757 0.0010593 0.0004514 0.0014216 -0.0006292 0.0007773 -0.0002321 -0.0009701 -0.0001909 0.0000208 -0.0004364 -0.0006216 -0.0002860 -0.0000614 -0.0001591 0.0003958 -0.0001652 0.0003222 -0.0000132 0.0006369 0.0003481 0.0012298 0.0006421 0.0011680 -0.0001926 -0.0004781 0.0001868 0.0004192 0.0002364 0.0020793 -0.0045522 -0.0188658 -0.0006880 -0.0009416 -0.0001148 0.0002972 -0.0014866 -0.0022590 -0.0009341 -0.0009522 0.0007804 -0.0030819 0.0014115 -0.0009370 0.0002279 -0.0005783 -0.0001896 -0.0022333 -0.0007099 -0.0039543 -0.0008420 -0.0038621 0.0000907 -0.0001303 0.0000925 0.0005711 -0.0005667 -0.0007802 -0.0005378 -0.0022116 -0.0001286 -0.0002171 -0.0000516 0.0005352 0.0001205 -0.0002662 -0.0000306 0.0000697 0.0002304 0.0013506 -0.0002726 0.0006939 0.0002952 0.0012526 -0.0007490 0.0005038 -0.0000400 -0.0002030 -0.0002308 -0.0001791 -0.0001212 -0.0011396 -0.0001986 0.0002645 -0.0000440 0.0008833 -0.0001452 -0.0002894 -0.0003754 0.0003882 -0.0000638 0.0002646 -0.0002136 0.0002491 0.0001547 -0.0015591 0.0002617 0.0005397 -0.0001207 0.0007640 0.0000831 0.0010979 -0.0005439 0.0006213 0.0003528 0.0014101 -0.0007279 0.0012182 0.0001723 0.0003899 -0.0004803 -0.0004191 -0.0015275 -0.0022400 -0.0005316 -0.0007722 -0.0003155 -0.0002382 -0.0010273 -0.0023172 -0.0005215 -0.0005390
0.0001404 0.0009675 0.0003157 0.0007294 0.0000029 0.0000786 -0.0007979 -0.0017411 -0.0000425 0.0006166 0.0000602 0.0004868 -0.0002267 -0.0001410 0.0000410 0.0005025 0.0000491 -0.0000968 0.0000468 0.0008803 0.0004125 0.0011349 -0.0007341 0.0006837 -0.0004141 -0.0021327 -0.0002573 -0.0005075 -0.0004787 -0.0012784 -0.0002852 -0.0002267 -0.0001591 0.0002079 -0.0001692 0.0001009 -0.0000195 0.0003575 0.0003025 0.0011822 0.0006294 0.0009096 -0.0002781 -0.0008864 0.0001238 -0.0003829 0.0002017 0.0016983 -0.0039747 -0.0196770 -0.0007090 -0.0013085 -0.0000578 0.0000349 -0.0014746 -0.0024100 -0.0009444 -0.0011171 0.0009308 -0.0032925 0.0014047 -0.0008554 0.0003363 -0.0003539 -0.0001943 -0.0024753 -0.0006245 -0.0037811 -0.0009296 -0.0038741 0.0001154 -0.0002120 0.0001543 0.0005176 -0.0004817 -0.0009784 -0.0006104 -0.0022738 0.0000287 -0.0001081 0.0001476 0.0008628 0.0002123 -0.0003716 0.0000931 0.0001564 0.0001550 0.0011795 -0.0002600 0.0008363 0.0002361 0.0012440 -0.0007440 0.0003858 -0.0002598 -0.0005077 -0.0001466 0.0005763 -0.0001465 -0.0010112 -0.0000660 0.0006018 0.0001926 0.0017001 -0.0001899 -0.0004137 -0.0003271 0.0002941 0.0002460 0.0012747 -0.0000212 0.0004338 0.0000475 -0.0017936 -0.0001346 -0.0000068 -0.0000058 0.0010607 0.0003089 0.0012207 0.0001463 0.0016383 0.0000565 -0.0006132 -0.0006685 0.0018037 -0.0001854 0.0009453 -0.0005305 -0.0002365 -0.0005523 0.0008175 -0.0002846 -0.0002104 -0.0000057 0.0013143 -0.0000696 0.0004711 0.0005802 0.0000370
0.0001196 0.0008711 0.0003197 0.0006254 -0.0000542 -0.0005594 -0.0008571 -0.0022560 0.0000167 0.0004203 0.0001494 0.0002798 -0.0002110 -0.0002727 0.0000275 0.0003415 0.0000261 -0.0001453 0.0000538 0.0007478 0.0003853 0.0009980 -0.0008072 0.0008417 -0.0005783 -0.0031401 -0.0003285 -0.0009375 -0.0005185 -0.0017605 -0.0002948 -0.0003674 -0.0001502 0.0000980 -0.0001858 -0.0000553 -0.0000305 0.0000924 0.0002671 0.0011064 0.0006319 0.0006789 -0.0003042 -0.0011206 0.0000977 -0.0008207 0.0001618 0.0013618 -0.0044060 -0.0194427 -0.0007579 -0.0016079 -0.0001375 -0.0000580 -0.0014910 -0.0025522 -0.0008969 -0.0013406 0.0008238 -0.0032178 0.0013025 -0.0008621 0.0002379 -0.0000339 -0.0003879 -0.0024482 -0.0003113 -0.0039060 -0.0010312 -0.0039222 0.0007494 0.0002685 0.0004345 0.0008691 0.0001510 0.0002275 -0.0007860 0.0003368 0.0001757 0.0001706 0.0007863 0.0022525 -0.0003031 -0.0009571 0.0002155 0.0009171 -0.0004233 -0.0002324 -0.0002536 0.0008139 0.0009099 0.0021875 -0.0005421 -0.0004240 -0.0008344 -0.0027281 0.0003238 0.0006709 0.0007530 0.0052015 0.0000969 0.0014130 0.0007527 0.0034469 -0.0004952 -0.0012185 -0.0003361 0.0000587 0.0007127 0.0026218 0.0000995 0.0003721 -0.0007015 -0.0039374 -0.0002114 0.0003304 0.0001616 0.0014836 0.0005254 0.0017089 0.0004764 0.0019670 -0.0005888 -0.0014748 -0.0006436 0.0022244 -0.0005871 0.0015808 -0.0005878 -0.0000388 0.0003793 0.0035920 -0.0000915 0.0002314 0.0002669 0.0019487 0.0005029 0.0014634 0.0011229 0.0007028
0.0001020 0.0007683 0.0003272 0.0005198 -0.0001102 -0.0011131 -0.0008981 -0.0027354 -0.0000341 0.0002891 0.0002005 0.0000830 -0.0001926 -0.0004216 0.0000285 0.0001037 0.0000446 -0.0002273 0.0000945 0.0005515 0.0003390 0.0009344 -0.0004860 0.0005390 -0.0006856 -0.0038673 -0.0003895 -0.0012944 -0.0005451 -0.0021765 -0.0002936 -0.0005510 -0.0001405 -0.0000092 -0.0001649 -0.0002251 -0.0000051 -0.0001558 0.0002946 0.0009559 0.0006374 0.0004682 -0.0003144 -0.0013650 0.0001020 -0.0011500 0.0001551 0.0011372 -0.0050009 -0.0194383 -0.0007759 -0.0016018 -0.0001694 -0.0000644 -0.0014343 -0.0025702 -0.0008710 -0.0012923 0.0008472 -0.0029364 0.0014672 -0.0010976 0.0001087 0.0002030 -0.0007065 -0.0021210 -0.0002908 -0.0038475 -0.0009194 -0.0039309 0.0008886 0.0004769 0.0007666 0.0013084 0.0007230 0.0009335 -0.0005275 0.0010963 0.0003602 0.0001841 0.0010829 0.0027859 -0.0004408 -0.0009833 0.0003130 0.0015373 -0.0004105 -0.0004148 -0.0001665 0.0007212 0.0012513 0.0025122 -0.0003696 -0.0001399 -0.0008390 -0.0037299 0.0003507 -0.0007793 0.0010942 0.0068330 0.0000988 0.0015462 0.0007860 0.0033277 -0.0007555 -0.0021390 -0.0002371 0.0003489 0.0006357 0.0023558 0.0000256 0.0002617 -0.0011450 -0.0053690 0.0001881 0.0010450 0.0001042 0.0012014 0.0006592 0.0017714 0.0001159 0.0010259 -0.0002929 -0.0005838 -0.0006299 0.0018004 -0.0004878 0.0012323 -0.0006104 0.0001961 0.0003406 0.0035410 -0.0000879 0.0000330 0.0001646 0.0005896 0.0001585 -0.0002346 0.0006757 0.0003722
0.0000990 0.0006869 0.0003249 0.0004631 -0.0001583 -0.0015672 -0.0009336 -0.0031302 -0.0000675 0.0001724 0.0001531 0.0000399 -0.0002001 -0.0005571 0.0000213 -0.0001482 0.0000646 -0.0003311 0.0000874 0.0004269 0.0003222 0.0008413 0.0000689 -0.0002327 -0.0007352 -0.0042519 -0.0004311 -0.0015674 -0.0005682 -0.0024829 -0.0003027 -0.0007524 -0.0001599 -0.0000896 -0.0001392 -0.0003736 -0.0000085 -0.0003457 0.0003138 0.0007696 0.0005769 0.0003007 -0.0003417 -0.0016055 0.0001025 -0.0014405 0.0002029 0.0008582 -0.0044458 -0.0196421 -0.0007377 -0.0017097 -0.0000726 -0.0003256 -0.0013473 -0.0026875 -0.0009594 -0.0012741 0.0010735 -0.0031818 0.0016294 -0.0013752 0.0003592 -0.0000667 -0.0005526 -0.0023781 -0.0002810 -0.0040541 -0.0009119 -0.0039777 0.0004448 0.0003626 0.0007805 0.0013564 0.0008404 0.0007611 0.0000777 -0.0009554 0.0004123 -0.0001133 0.0006948 0.0020044 0.0000660 -0.0002184 0.0002786 0.0012041 0.0001754 0.0008814 -0.0001555 0.0006231 0.0007820 0.0017992 0.0000633 0.0005834 -0.0005039 -0.0025211 -0.0001296 -0.0012041 0.0003235 0.0014754 0.0000320 0.0010806 0.0004589 0.0022311 -0.0005327 -0.0016057 -0.0001605 0.0005507 0.0003078 0.0015394 0.0000013 0.0005365 -0.0007517 -0.0040951 0.0004634 0.0021920 0.0000375 0.0007041 0.0006000 0.0013342 0.0000405 0.0007594 -0.0003927 -0.0003691 -0.0005822 0.0014731 -0.0002018 0.0007595 -0.0007469 0.0000237 0.0001586 0.0022036 -0.0002085 -0.0004357 -0.0000380 0.0001688 -0.0000993 -0.0010557 0.0001307 0.0002360
0.0001012 0.0005885 0.0003276 0.0003803 -0.0001932 -0.0019564 -0.0009542 -0.0034860 -0.0000465 0.0000104 0.0001383 -0.0000163 -0.0001990 -0.0007080 0.0000089 -0.0003844 0.0000557 -0.0003909 0.0000866 0.0002907 0.0003575 0.0006681 0.0000318 -0.0000725 -0.0007299 -0.0044020 -0.0004197 -0.0017577 -0.0005691 -0.0026960 -0.0003065 -0.0009412 -0.0001291 -0.0002360 -0.0001243 -0.0005314 -0.0000068 -0.0005044 0.0002961 0.0006656 0.0005416 0.0001760 -0.0003242 -0.0016930 0.0001117 -0.0015203 0.0002129 0.0005090 -0.0036552 -0.0197808 -0.0006967 -0.0018843 -0.0000860 -0.0004695 -0.0014114 -0.0025899 -0.0009153 -0.0013462 0.0009581 -0.0029786 0.0011823 -0.0008030 0.0005791 -0.0001426 -0.0001946 -0.0024853 -0.0000972 -0.0042750 -0.0008492 -0.0039074 0.0004841 0.0003194 0.0006816 0.0014046 0.0004740 0.0007959 -0.0001540 -0.0015041 0.0003966 -0.0002905 0.0006993 0.0016381 0.0002229 0.0001537 0.0002483 0.0009356 0.0001451 0.0007070 -0.0002287 0.0004806 0.0006573 0.0014510 0.0001122 0.0008213 -0.0005515 -0.0022051 -0.0002286 -0.0003154 -0.0000895 -0.0015269 0.0000798 0.0011007 0.0004301 0.0021229 -0.0001983 -0.0007906 -0.0002270 0.0002878 0.0002428 0.0011125 -0.0000108 0.0006770 -0.0004426 -0.0027385 0.0006321 0.0032355 0.0000630 0.0006467 0.0005230 0.0011179 0.0002149 0.0007150 0.0002106 -0.0009256 -0.0004497 0.0014528 0.0003390 0.0004621 -0.0009059 -0.0002682 -0.0000158 0.0009285 -0.0001831 -0.0003167 -0.0001703 -0.0004133 -0.0004562 -0.0020814 -0.0000693 -0.0000045
0.0000943 0.0005329 0.0003107 0.0003200 -0.0001624 -0.0019063 -0.0009003 -0.0033965 -0.0000440 -0.0000229 0.0001389 -0.0000567 -0.0001757 -0.0007257 0.0000106 -0.0004821 0.0000728 -0.0003679 0.0000732 0.0001571 0.0003651 0.0004955 -0.0004121 0.0002720 -0.0006391 -0.0040572 -0.0003574 -0.0016627 -0.0005265 -0.0026063 -0.0002809 -0.0010493 -0.0001042 -0.0003903 -0.0001063 -0.0005968 0.0000021 -0.0004644 0.0002443 0.0006119 0.0006131 0.0002438 -0.0002166 -0.0014353 0.0001468 -0.0011742 0.0001430 0.0001972 -0.0041064 -0.0191482 -0.0007113 -0.0018833 -0.0001205 -0.0006023 -0.0014036 -0.0025489 -0.0008214 -0.0013932 0.0006981 -0.0029398 0.0008612 -0.0007023 0.0004204 -0.0000512 -0.0002419 -0.0021921 -0.0002044 -0.0041811 -0.0008107 -0.0037474 0.0005734 0.0001691 0.0006733 0.0013858 -0.0004428 -0.0000304 -0.0004158 -0.0006542 0.0003774 -0.0005302 0.0007080 0.0013069 0.0003805 0.0007524 0.0002118 0.0006135 -0.0000410 0.0000799 -0.0003254 0.0004190 0.0005207 0.0009595 -0.0001640 0.0011874 -0.0004805 -0.0014494 -0.0002766 0.0005518 -0.0004446 -0.0040907 0.0001338 0.0011687 0.0004297 0.0020825 0.0000863 -0.0001302 -0.0003025 0.0000280 0.0002168 0.0006672 -0.0000583 0.0005537 -0.0001583 -0.0013354 0.0006178 0.0032303 0.0001204 0.0007335 0.0005993 0.0011546 0.0002734 0.0007310 0.0003964 -0.0013755 -0.0004536 0.0014050 0.0002065 0.0008397 -0.0010660 -0.0009273 -0.0001266 -0.0001603 -0.0001497 -0.0001843 -0.0002062 -0.0010633 -0.0006083 -0.0027849 -0.0001816 -0.0004757
0.0000952 0.0004135 0.0002809 0.0002073 -0.0000968 -0.0015793 -0.0008106 -0.0030599 -0.0000169 -0.0000724 0.0001322 -0.0001452 -0.0001233 -0.0007354 0.0000584 -0.0005461 0.0001129 -0.0003951 0.0000594 0.0000186 0.0003253 0.0003364 -0.0004240 -0.0000480 -0.0005118 -0.0035145 -0.0002909 -0.0014998 -0.0004657 -0.0024368 -0.0002429 -0.0011254 -0.0001111 -0.0005428 -0.0000474 -0.0006817 0.0000377 -0.0004090 0.0002770 0.0004390 0.0006431 0.0004015 -0.0001197 -0.0011981 0.0001967 -0.0008431 0.0001345 -0.0001017 -0.0053679 -0.0173513 -0.0007089 -0.0019097 -0.0001309 -0.0007454 -0.0012869 -0.0027027 -0.0008151 -0.0014243 0.0006855 -0.0032256 0.0009028 -0.0009362 0.0006974 -0.0001375 -0.0003261 -0.0018938 -0.0002609 -0.0040022 -0.0007396 -0.0035950 0.0006464 -0.0000544 0.0007284 0.0012536 -0.0009898 -0.0008933 -0.0003276 0.0002268 0.0003449 -0.0007745 0.0005305 0.0010351 0.0004323 0.0009216 0.0001408 0.0003329 0.0000297 -0.0001023 -0.0003285 0.0002645 0.0004732 0.0008077 -0.0000208 0.0007256 -0.0003155 -0.0009646 -0.0003233 0.0003949 -0.0005207 -0.0045638 0.0001258 0.0010103 0.0004416 0.0019286 0.0001781 0.0000265 -0.0003274 -0.0001449 0.0001984 0.0004470 -0.0001197 0.0002746 -0.0000039 -0.0007955 0.0005794 0.0029341 0.0001215 0.0004717 0.0006500 0.0010074 0.0002453 0.0005995 -0.0006640 -0.0008493 -0.0003214 0.0010827 0.0001042 0.0009863 -0.0012913 -0.0020277 -0.0003355 -0.0018533 -0.0003024 -0.0008832 -0.0003299 -0.0013355 -0.0004395 -0.0027637 -0.0002042 -0.0011887
0.0000941 0.0004134 0.0002739 0.0001779 -0.0000501 -0.0011247 -0.0007324 -0.0025492 -0.0000145 0.0000237 0.0001494 -0.0001803 -0.0000771 -0.0006233 0.0000767 -0.0005106 0.0001199 -0.0003890 0.0000661 -0.0000471 0.0002893 0.0003517 -0.0002381 -0.0002860 -0.0003800 -0.0028427 -0.0002286 -0.0013348 -0.0004143 -0.0022093 -0.0002215 -0.0011484 -0.0001217 -0.0005795 -0.0000097 -0.0006664 0.0000993 -0.0003976 0.0003100 0.0003178 0.0006234 0.0005087 -0.0000788 -0.0010553 0.0002261 -0.0006309 0.0001422 -0.0002892 -0.0053074 -0.0163919 -0.0006691 -0.0019738 -0.0002084 -0.0007006 -0.0012277 -0.0028753 -0.0008134 -0.0014580 0.0008261 -0.0032280 0.0011122 -0.0010823 0.0010851 -0.0002575 0.0000500 -0.0021139 -0.0002136 -0.0039810 -0.0007412 -0.0034818 0.0006428 -0.0002765 0.0007175 0.0010751 -0.0009501 -0.0009907 -0.0002696 -0.0000118 0.0003020 -0.0009599 0.0004954 0.0008455 0.0004129 0.0006880 0.0000619 0.0000826 0.0002216 0.0000436 -0.0002895 0.0000835 0.0005517 0.0006896 -0.0001133 0.0006268 -0.0002126 -0.0009084 -0.0003868 -0.0000751 -0.0004642 -0.0040940 0.0000838 0.0009123 0.0003976 0.0016646 0.0001754 -0.0000739 -0.0003472 -0.0002113 0.0001622 0.0003339 -0.0001947 0.0000382 0.0000151 -0.0009964 0.0005872 0.0026130 0.0000445 0.0002331 0.0006623 0.0006921 0.0001972 0.0004247 -0.0013370 -0.0000677 -0.0002946 0.0009425 0.0001617 0.0005366 -0.0014676 -0.0030308 -0.0009690 -0.0037761 -0.0005182 -0.0016973 -0.0004854 -0.0017159 -0.0002984 -0.0029392 -0.0002340 -0.0021252
0.0000984 0.0003764 0.0002433 -0.0000570 0.0000010 -0.0006335 -0.0007071 -0.0024796 0.0000016 0.0002200 0.0001956 -0.0001621 -0.0000875 -0.0007093 0.0000210 -0.0007660 0.0001408 -0.0005417 0.0000743 -0.0001950 0.0002883 0.0001400 -0.0004405 -0.0002547 -0.0002691 -0.0023250 -0.0001753 -0.0012429 -0.0003525 -0.0019946 -0.0001885 -0.0012534 -0.0001336 -0.0007007 0.0000009 -0.0006803 0.0000975 -0.0003617 0.0002751 0.0001352 0.0006334 0.0004894 -0.0000526 -0.0009603 0.0002459 -0.0004563 0.0000295 -0.0008318 -0.0050921 -0.0164211 -0.0006913 -0.0022299 -0.0002160 -0.0011546 -0.0012587 -0.0031289 -0.0007948 -0.0016997 0.0009233 -0.0032914 0.0012383 -0.0011655 0.0010360 -0.0002011 0.0001151 -0.0023255 -0.0001571 -0.0038777 -0.0007243 -0.0034458 0.0005511 -0.0004952 0.0006988 0.0010217 -0.0009791 -0.0010975 -0.0004429 -0.0004975 0.0002567 -0.0011630 0.0004204 0.0006977 0.0003815 0.0003865 0.0000176 -0.0001008 0.0002867 0.0003055 -0.0002787 -0.0000023 0.0005591 0.0006177 -0.0002879 0.0007819 -0.0001131 -0.0010071 -0.0003644 -0.0005560 -0.0003238 -0.0033574 0.0000532 0.0007293 0.0003203 0.0013882 0.0001252 -0.0002951 -0.0003753 -0.0003461 0.0001382 0.0002015 -0.0002386 -0.0001616 0.0000045 -0.0013755 0.0006060 0.0023453 -0.0000239 0.0000630 0.0006226 0.0005292 0.0001230 0.0003298 -0.0008942 -0.0003943 -0.0001861 0.0007579 -0.0006092 0.0008432 -0.0016018 -0.0037461 -0.0011416 -0.0052028 -0.0006526 -0.0021481 -0.0006361 -0.0019558 -0.0001847 -0.0030850 -0.0004747 -0.0026978
0.0001063 0.0003040 0.0001721 -0.0004572 0.0000431 -0.0001852 -0.0006997 -0.0024909 0.0000459 0.0003890 0.0002473 -0.0001940 -0.0001015 -0.0007614 -0.0000195 -0.0011303 0.0001759 -0.0007577 0.0000580 -0.0003241 0.0002151 -0.0000686 -0.0004145 -0.0006104 -0.0001963 -0.0018585 -0.0001638 -0.0010678 -0.0002847 -0.0015692 -0.0001744 -0.0012775 -0.0001180 -0.0008468 0.0000264 -0.0005895 0.0000778 -0.0002368 0.0002735 -0.0000161 0.0006256 0.0004927 -0.0000283 -0.0007798 0.0002742 -0.0002621 -0.0000800 -0.0014106 -0.0047547 -0.0173663 -0.0007422 -0.0026325 -0.0002494 -0.0018164 -0.0012973 -0.0032938 -0.0007911 -0.0020909 0.0008772 -0.0037951 0.0007553 -0.0008410 0.0010542 -0.0004012 -0.0001132 -0.0024698 -0.0002254 -0.0036383 -0.0006096 -0.0032732 0.0004730 -0.0006539 0.0006845 0.0010532 -0.0010735 -0.0013270 -0.0006936 -0.0010616 0.0002694 -0.0013200 0.0003320 0.0005692 0.0003474 0.0000867 0.0000101 -0.0002173 0.0002961 0.0005859 -0.0002538 -0.0000864 0.0004815 0.0007481 -0.0001533 0.0005662 -0.0000461 -0.0012296 -0.0003244 -0.0010969 -0.0001724 -0.0025931 0.0000446 0.0005154 0.0002668 0.0011621 0.0000625 -0.0005918 -0.0003829 -0.0004302 0.0001342 0.0000995 -0.0002484 -0.0002411 -0.0000089 -0.0016731 0.0006158 0.0022159 -0.0000004 -0.0001100 0.0005302 0.0003493 0.0000977 0.0001226 -0.0004111 -0.0008345 -0.0002122 0.0006106 -0.0015202 0.0015715 -0.0015725 -0.0037264 -0.0011465 -0.0056371 -0.0005876 -0.0019712 -0.0005219 -0.0019516 -0.0002661 -0.0031607 -0.0005543 -0.0026787
0.0001155 0.0001924 0.0001586 -0.0006527 0.0000724 -0.0000548 -0.0006310 -0.0022918 0.0000878 0.0001979 0.0002341 -0.0004438 -0.0000852 -0.0007168 0.0000517 -0.0010937 0.0001913 -0.0008775 0.0001058 -0.0003467 0.0002359 -0.0001416 0.0002547 -0.0013636 -0.0001493 -0.0016264 -0.0001077 -0.0009274 -0.0002548 -0.0014200 -0.0001699 -0.0011647 -0.0000790 -0.0008662 0.0000630 -0.0005791 0.0001070 -0.0002152 0.0003262 0.0000313 0.0006508 0.0005632 0.0000071 -0.0007138 0.0003119 -0.0000474 -0.0000660 -0.0013331 -0.0048662 -0.0179191 -0.0006970 -0.0026443 -0.0002523 -0.0018775 -0.0012567 -0.0035064 -0.0008181 -0.0021569 0.0008938 -0.0041835 0.0006391 -0.0007972 0.0012132 -0.0004858 0.0000030 -0.0027308 -0.0002702 -0.0033458 -0.0004473 -0.0031827 0.0004255 -0.0006745 0.0006756 0.0009946 -0.0011112 -0.0014709 -0.0007598 -0.0013939 0.0002820 -0.0013429 0.0003599 0.0005476 0.0003487 -0.0000609 0.0000155 -0.0003006 0.0003710 0.0006304 -0.0002017 -0.0001480 0.0004980 0.0008180 -0.0000437 0.0003609 -0.0000180 -0.0013963 -0.0003199 -0.0014034 -0.0001232 -0.0023356 0.0000572 0.0004269 0.0002550 0.0010538 0.0000539 -0.0006974 -0.0003632 -0.0004554 0.0001430 0.0000758 -0.0002441 -0.0002333 -0.0000013 -0.0017932 0.0006103 0.0020330 0.0000232 -0.0000373 0.0004724 0.0002140 0.0000195 0.0001679 -0.0005360 -0.0006658 -0.0003186 0.0007576 -0.0013296 0.0012824 -0.0014678 -0.0034205 -0.0012444 -0.0055926 -0.0004842 -0.0016316 -0.0004145 -0.0017489 -0.0003753 -0.0032531 -0.0007509 -0.0023811
0.0001384 0.0001412 0.0002549 -0.0004202 0.0000886 -0.0000704 -0.0005572 -0.0019266 0.0000391 0.0000041 0.0002427 -0.0006434 -0.0000465 -0.0006479 0.0001099 -0.0009331 0.0001797 -0.0007950 0.0001659 -0.0003717 0.0003712 0.0001640 0.0002307 -0.0011688 -0.0000023 -0.0008143 -0.0000631 -0.0009038 -0.0002600 -0.0012888 -0.0001608 -0.0012906 -0.0001018 -0.0005773 0.0000695 -0.0005308 0.0001024 -0.0002375 0.0002671 0.0002946 0.0006354 0.0006962 0.0000142 -0.0006137 0.0003144 0.0001693 0.0001280 -0.0005325 -0.0042182 -0.0192507 -0.0004833 -0.0019385 -0.0001773 -0.0013306 -0.0012102 -0.0034050 -0.0006519 -0.0018687 0.0009253 -0.0033871 0.0012043 -0.0010321 0.0009696 -0.0000377 0.0000688 -0.0023479 -0.0001798 -0.0031696 -0.0002622 -0.0031387 0.0003927 -0.0006823 0.0006686 0.0009381 -0.0011029 -0.0015367 -0.0007663 -0.0016423 0.0002991 -0.0013902 0.0004325 0.0004515 0.0003670 -0.0001814 0.0000130 -0.0003554 0.0004210 0.0007463 -0.0001814 -0.0001981 0.0005770 0.0007920 0.0000235 0.0001555 0.0000190 -0.0015979 -0.0003048 -0.0016954 -0.0000876 -0.0020796 0.0000442 0.0002751 0.0002572 0.0009649 0.0000466 -0.0007873 -0.0003319 -0.0005206 0.0001228 0.0000486 -0.0002451 -0.0002416 0.0000174 -0.0019077 0.0006138 0.0018812 0.0000053 0.0001165 0.0004612 0.0001241 -0.0000471 0.0002300 -0.0007339 -0.0008307 -0.0002247 0.0007609 -0.0005291 0.0006273 -0.0014369 -0.0034644 -0.0011237 -0.0056710 -0.0004514 -0.0015514 -0.0005817 -0.0013374 -0.0004198 -0.0030799 -0.0006744 -0.0023397
0.0001253 0.0001345 0.0003317 -0.0001752 0.0001029 -0.0000588 -0.0004948 -0.0015269 0.0000263 -0.0000965 0.0002187 -0.0006496 -0.0000179 -0.0006810 0.0000967 -0.0010895 0.0001805 -0.0007105 0.0001605 -0.0005432 0.0004400 0.0003288 -0.0002587 -0.0006452 0.0001324 -0.0000531 -0.0000678 -0.0010886 -0.0002546 -0.0011783 -0.0001602 -0.0016843 -0.0001018 -0.0006009 0.0000346 -0.0006043 0.0000868 -0.0003824 0.0001903 0.0002526 0.0005932 0.0006217 0.0000056 -0.0007303 0.0002914 0.0000886 0.0003160 -0.0002681 -0.0034277 -0.0204060 -0.0003646 -0.0016111 0.0000069 -0.0012016 -0.0012153 -0.0034031 -0.0005008 -0.0018413 0.0009200 -0.0027752 0.0013864 -0.0012184 0.0009194 0.0000344 0.0001265 -0.0021650 0.0000267 -0.0033388 -0.0002683 -0.0030150 0.0003745 -0.0006734 0.0006479 0.0009014 -0.0010499 -0.0015796 -0.0007698 -0.0017600 0.0003541 -0.0014730 0.0004062 0.0003706 0.0003596 -0.0003442 0.0000129 -0.0004489 0.0003671 0.0009601 -0.0001844 -0.0002937 0.0005704 0.0008259 -0.0002694 0.0003078 0.0000345 -0.0018651 -0.0002969 -0.0020033 -0.0000622 -0.0017535 0.0000243 0.0000766 0.0002430 0.0008647 0.0000024 -0.0009970 -0.0003086 -0.0006040 0.0001306 0.0000331 -0.0002457 -0.0002864 0.0000222 -0.0020325 0.0006010 0.0016697 0.0000141 0.0001946 0.0005414 0.0000236 0.0000875 -0.0000190 -0.0002767 -0.0010134 -0.0003695 0.0007758 -0.0002008 0.0002782 -0.0013438 -0.0033251 -0.0009927 -0.0053622 -0.0004224 -0.0015468 -0.0005266 -0.0013912 -0.0004837 -0.0031720 -0.0007025 -0.0024690
0.0001175 0.0000354 0.0003559 -0.0001799 0.0001042 -0.0001280 -0.0004408 -0.0013523 0.0000808 -0.0002577 0.0001559 -0.0006555 0.0000202 -0.0008174 0.0000996 -0.0012252 0.0001826 -0.0007211 0.0001733 -0.0006931 0.0004850 0.0003249 -0.0004398 -0.0003020 0.0001015 -0.0003292 -0.0000636 -0.0013838 -0.0002555 -0.0013780 -0.0001648 -0.0018895 -0.0000475 -0.0006886 0.0000357 -0.0007509 0.0000907 -0.0004849 0.0001624 0.0001986 0.0005915 0.0004658 0.0000093 -0.0008620 0.0002799 -0.0000617 0.0004053 -0.0002550 -0.0039875 -0.0201092 -0.0003293 -0.0016509 -0.0000172 -0.0009662 -0.0011459 -0.0034622 -0.0004976 -0.0016930 0.0009378 -0.0026104 0.0016174 -0.0011840 0.0012542 -0.0001408 0.0001402 -0.0020617 0.0000457 -0.0032216 -0.0002902 -0.0028469 0.0003536 -0.0006559 0.0006121 0.0008087 -0.0009746 -0.0014537 -0.0007422 -0.0019090 0.0003630 -0.0015302 0.0003775 0.0003518 0.0004116 -0.0003209 0.0000449 -0.0006336 0.0004200 0.0007558 -0.0001798 -0.0003391 0.0005643 0.0006906 -0.0003411 0.0003850 0.0000109 -0.0018804 -0.0002953 -0.0015955 -0.0002608 -0.0030650 0.0000183 -0.0001347 0.0002855 0.0008857 0.0000839 -0.0007788 -0.0003379 -0.0007585 0.0001355 -0.0000496 -0.0002320 -0.0003032 0.0001368 -0.0018212 0.0006864 0.0021129 0.0000436 0.0002089 0.0004824 -0.0000177 0.0000684 -0.0003848 -0.0002320 0.0003285 -0.0004555 0.0005815 0.0001502 0.0001043 -0.0013467 -0.0031462 -0.0010511 -0.0046416 -0.0004415 -0.0017848 -0.0004394 -0.0023208 -0.0005067 -0.0039179 -0.0009809 -0.0024911
0.0001310 0.0000352 0.0003812 -0.0001138 0.0000938 -0.0002352 -0.0004134 -0.0012901 0.0000398 -0.0002471 0.0001873 -0.0006792 0.0000512 -0.0008235 0.0001244 -0.0011495 0.0001876 -0.0006698 0.0002225 -0.0007510 0.0004846 0.0004041 -0.0005424 0.0001508 -0.0000047 -0.0010556 -0.0000482 -0.0016082 -0.0002881 -0.0017432 -0.0001436 -0.0019422 -0.0000229 -0.0006627 0.0000605 -0.0008153 0.0001141 -0.0005500 0.0002075 0.0001451 0.0005844 0.0004016 0.0000039 -0.0010242 0.0002906 -0.0002745 0.0004677 -0.0003293 -0.0030169 -0.0212175 -0.0003130 -0.0017827 -0.0000372 -0.0010244 -0.0010393 -0.0035440 -0.0004834 -0.0017798 0.0009583 -0.0024621 0.0016352 -0.0009642 0.0012999 -0.0001798 0.0001862 -0.0020806 -0.0000033 -0.0031127 -0.0001409 -0.0030166 0.0002818 -0.0006606 0.0006140 0.0007397 -0.0008858 -0.0012548 -0.0006308 -0.0021119 0.0004361 -0.0015216 0.0004747 0.0002201 0.0005188 -0.0002195 0.0001292 -0.0006756 0.0005127 0.0005328 -0.0001419 -0.0003037 0.0005781 0.0005570 -0.0001680 0.0004932 0.0000862 -0.0017577 -0.0002817 -0.0015676 -0.0003021 -0.0035778 0.0000504 -0.0001807 0.0002614 0.0007408 0.0000956 -0.0008308 -0.0003344 -0.0007419 0.0001009 -0.0001449 -0.0002524 -0.0004065 0.0001721 -0.0019434 0.0007290 0.0019129 0.0000731 0.0000882 0.0003830 -0.0000283 -0.0000847 -0.0003235 0.0000427 0.0006341 -0.0004594 0.0005460 0.0002148 0.0001367 -0.0013873 -0.0031502 -0.0012525 -0.0045058 -0.0004723 -0.0020028 -0.0004270 -0.0028961 -0.0005594 -0.0044602 -0.0008644 -0.0027050
0.0001165 0.0000046 0.0003750 -0.0001382 0.0000783 -0.0003845 -0.0004062 -0.0014373 0.0000558 -0.0003282 0.0002863 -0.0007216 0.0000610 -0.0009085 0.0001679 -0.0013281 0.0002208 -0.0007454 0.0002612 -0.0009328 0.0004718 0.0001818 -0.0002366 -0.0001319 -0.0001250 -0.0019253 -0.0000589 -0.0019169 -0.0002729 -0.0021260 -0.0001063 -0.0020623 -0.0000373 -0.0007910 0.0000541 -0.0010117 0.0001444 -0.0006558 0.0002869 0.0000501 0.0005865 0.0002548 0.0000171 -0.0011506 0.0002703 -0.0005246 0.0003792 -0.0008382 -0.0027533 -0.0202633 -0.0005113 -0.0024822 0.0000411 -0.0016228 -0.0010181 -0.0037565 -0.0005493 -0.0021990 0.0008345 -0.0025534 0.0013600 -0.0007010 0.0011741 0.0003527 0.0001465 -0.0024413 0.0000384 -0.0029632 -0.0001884 -0.0033015 0.0002216 -0.0008112 0.0006869 0.0007456 -0.0008865 -0.0013123 -0.0006632 -0.0023243 0.0005286 -0.0016843 0.0004969 -0.0000931 0.0005978 -0.0002136 0.0001845 -0.0007399 0.0004577 0.0003966 -0.0001404 -0.0004655 0.0005366 0.0003955 0.0001134 0.0003127 0.0001697 -0.0017304 -0.0002587 -0.0018543 -0.0002142 -0.0030802 0.0000443 -0.0003165 0.0001545 0.0003541 0.0000470 -0.0011734 -0.0003070 -0.0007836 0.0000616 -0.0002874 -0.0002934 -0.0005471 0.0001180 -0.0023750 0.0006922 0.0012561 -0.0000035 -0.0001765 0.0003261 -0.0001143 0.0000280 -0.0003227 -0.0001370 0.0002508 -0.0004787 0.0004813 0.0002052 0.0000667 -0.0013121 -0.0031468 -0.0015970 -0.0051215 -0.0003897 -0.0018094 -0.0005682 -0.0027334 -0.0006727 -0.0047064 -0.0006046 -0.0027651
0.0001313 0.0000600 0.0003175 -0.0001925 0.0000714 -0.0003645 -0.0004174 -0.0015241 0.0000991 -0.0002543 0.0002543 -0.0006306 0.0000695 -0.0007333 0.0002044 -0.0012938 0.0002567 -0.0007572 0.0002728 -0.0009277 0.0004229 0.0001091 -0.0000176 -0.0004320 -0.0002825 -0.0026940 -0.0000865 -0.0019781 -0.0002774 -0.0022628 -0.0000799 -0.0019819 -0.0000621 -0.0008112 0.0000659 -0.0009589 0.0001452 -0.0005679 0.0002771 0.0000672 0.0005788 0.0002794 0.0000174 -0.0011645 0.0002593 -0.0005859 0.0002156 -0.0011434 -0.0041459 -0.0185113 -0.0006550 -0.0030237 -0.0000523 -0.0019796 -0.0010473 -0.0038305 -0.0006931 -0.0023699 0.0009217 -0.0026705 0.0013107 -0.0006003 0.0013148 0.0006942 0.0000881 -0.0025570 0.0000587 -0.0027785 -0.0003441 -0.0032579 0.0001789 -0.0009489 0.0006519 0.0006374 -0.0009834 -0.0017391 -0.0008130 -0.0027275 0.0005761 -0.0017703 0.0005631 -0.0001150 0.0005673 -0.0006174 0.0001918 -0.0008598 0.0005060 0.0003404 -0.0001347 -0.0004941 0.0005197 0.0003196 0.0005118 -0.0004485 0.0001962 -0.0018275 -0.0002421 -0.0020127 -0.0002083 -0.0028715 0.0000291 -0.0004826 0.0001149 0.0001022 -0.0000158 -0.0014271 -0.0002783 -0.0008292 0.0000196 -0.0003609 -0.0002864 -0.0005555 0.0001025 -0.0026268 0.0007128 0.0011676 -0.0000424 -0.0004968 0.0002534 -0.0003342 0.0001230 -0.0006808 -0.0012278 0.0007953 -0.0003694 0.0000983 0.0001404 -0.0000685 -0.0011756 -0.0025195 -0.0021870 -0.0054295 -0.0003194 -0.0016707 -0.0005278 -0.0024398 -0.0008575 -0.0052421 -0.0005501 -0.0025464
0.0001494 0.0000333 0.0002893 -0.0002936 0.0000673 -0.0005286 -0.0004332 -0.0018280 0.0000892 -0.0002201 0.0002895 -0.0007522 0.0000761 -0.0007345 0.0002205 -0.0012582 0.0002817 -0.0007597 0.0002589 -0.0009121 0.0003754 0.0000130 0.0002245 -0.0006582 -0.0003936 -0.0033298 -0.0000903 -0.0020699 -0.0003118 -0.0025201 -0.0000431 -0.0019412 -0.0000454 -0.0008726 0.0000433 -0.0008554 0.0001613 -0.0005775 0.0002129 0.0000912 0.0005901 0.0003788 0.0000038 -0.0012952 0.0002667 -0.0005887 0.0002003 -0.0012471 -0.0059733 -0.0177321 -0.0005892 -0.0029400 -0.0001421 -0.0019595 -0.0010074 -0.0037371 -0.0006577 -0.0023558 0.0009971 -0.0024105 0.0012057 -0.0004699 0.0009127 0.0011310 0.0002483 -0.0024565 0.0001779 -0.0026376 -0.0003200 -0.0030281 0.0001770 -0.0009220 0.0005322 0.0004558 -0.0009805 -0.0019954 -0.0008358 -0.0031603 0.0006616 -0.0016663 0.0007243 0.0001693 0.0005210 -0.0011781 0.0002310 -0.0008952 0.0005594 0.0005876 -0.0000254 -0.0003809 0.0005626 0.0004727 0.0002942 -0.0006058 0.0002029 -0.0021491 -0.0002348 -0.0025790 -0.0001006 -0.0019573 0.0000910 -0.0004567 0.0001246 0.0000267 -0.0001627 -0.0019094 -0.0002068 -0.0006788 0.0000300 -0.0002517 -0.0002440 -0.0004888 0.0000453 -0.0029427 0.0007080 0.0009990 0.0000194 -0.0004635 0.0003102 -0.0003801 0.0001673 -0.0006770 -0.0007425 0.0001929 -0.0002075 -0.0001327 -0.0000226 -0.0002344 -0.0011290 -0.0020249 -0.0023144 -0.0053879 -0.0003141 -0.0017384 -0.0000938 -0.0025269 -0.0009464 -0.0055526 -0.0007185 -0.0024539
