-0.0000000 -0.0000000 -0.0000000 -0.0000000 -0.0000000 -0.0000000 -0.0000000 -0.0000000 -0.0000000 -0.0000000 -0.0000000 -0.0000000 -0.0000000 -0.0000000 -0.0000000 -0.0000000 -0.0000000 -0.0000000 -0.0000000 -0.0000000 -0.0000000 -0.0000000 -0.0000000 -0.0000000 -0.0000000 -0.0000000 -0.0000000 -0.0000000 -0.0000000 -0.0000000 -0.0000000 -0.0000000 -0.0000000 -0.0000000 -0.0000000 -0.0000000 -0.0000000 -0.0000000 -0.0000000 -0.0000000 -0.0000000 -0.0000000 -0.0000000 -0.0000000 -0.0000000 -0.0000000 -0.0000000 -0.0000000 -0.0000000 -0.0000000 -0.0000000 -0.0000000 -0.0000000 -0.0000000 -0.0000000 -0.0000000 -0.0000000 -0.0000000 -0.0000000 -0.0000000 -0.0000000 -0.0000000 -0.0000000 -0.0000000 -0.0000000 -0.0000000 -0.0000000 -0.0000000 -0.0000000 -0.0000000 -0.0000000 -0.0000000 -0.0000000 -0.0000000 -0.0000000 -0.0000000 -0.0000000 -0.0000000 -0.0000000 -0.0000000 -0.0000000 -0.0000000 -0.0000000 -0.0000000 -0.0000000 -0.0000000 -0.0000000 -0.0000000 -0.0000000 -0.0000000 -0.0000000 -0.0000000 -0.0000000 -0.0000000 -0.0000000 -0.0000000 -0.0000000 -0.0000000 -0.0000000 -0.0000000 -0.0000000 -0.0000000 -0.0000000 -0.0000000 -0.0000000 -0.0000000 -0.0000000 -0.0000000 -0.0000000 -0.0000000 -0.0000000 -0.0000000 -0.0000000 -0.0000000 -0.0000000 -0.0000000 -0.0000000 -0.0000000 -0.0000000 -0.0000000 -0.0000000 -0.0000000 -0.0000000 -0.0000000 -0.0000000 -0.0000000 -0.0000000 -0.0000000 -0.0000000 -0.0000000 -0.0000000 -0.0000000 -0.0000000 -0.0000000 -0.0000000 -0.0000000 -0.0000000 -0.0000000 -0.0000000 -0.0000000 -0.0000000 -0.0000000 -0.0000000 -0.0000000 -0.0000000 -0.0000000 -0.0000000 -0.0000000 -0.0000000 -0.0000000 -0.0000000 -0.0000000 -0.0000000 -0.0000000 -0.0000000 -0.0000000 -0.0000000 -0.0000000 -0.0000000 -0.0000000 -0.0000000 -0.0000000 -0.0000000 -0.0000000 -0.0000000 -0.0000000 -0.0000000 -0.0000000 -0.0000000 -0.0000000 -0.0000000 -0.0000000 -0.0000000 -0.0000000 -0.0000000 -0.0000000 -0.0000000 -0.0000000 -0.0000000 -0.0000000 -0.0000000 -0.0000000 -0.0000000 -0.0000000 -0.0000000 -0.0000000 -0.0000000 -0.0000000 -0.0000000 -0.0000000 -0.0000000 -0.0000000 -0.0000000 -0.0000000 -0.0000000 -0.0000000 -0.0000000 -0.0000000 -0.0000000 -0.0000000 -0.0000000 -0.0000000 -0.0000000 -0.0000000 -0.0000000 -0.0000000 -0.0000000 -0.0000000 -0.0000000 -0.0000000 -0.0000000 -0.0000000 -0.0000000 -0.0000000 -0.0000000 -0.0000000
-0.0000000 -0.0000000 -0.0000000 -0.0000000 -0.0000000 -0.0000000 -0.0000000 -0.0000000 -0.0000000 -0.0000000 -0.0000000 -0.0000000 -0.0000000 -0.0000000 -0.0000000 -0.0000000 -0.0000000 -0.0000000 -0.0000000 -0.0000000 -0.0000000 -0.0000000 -0.0000000 -0.0000000 -0.0000000 -0.0000000 -0.0000000 -0.0000000 -0.0000000 -0.0000000 -0.0000000 -0.0000000 -0.0000000 -0.0000000 -0.0000000 -0.0000000 -0.0000000 -0.0000000 -0.0000000 -0.0000000 -0.0000000 -0.0000000 -0.0000000 -0.0000000 -0.0000000 -0.0000000 -0.0000000 -0.0000000 -0.0000000 -0.0000000 -0.0000000 -0.0000000 -0.0000000 -0.0000000 -0.0000000 -0.0000000 -0.0000000 -0.0000000 -0.0000000 -0.0000000 -0.0000000 -0.0000000 -0.0000000 -0.0000000 -0.0000000 -0.0000000 -0.0000000 -0.0000000 -0.0000000 -0.0000000 -0.0000000 -0.0000000 -0.0000000 -0.0000000 -0.0000000 -0.0000000 -0.0000000 -0.0000000 -0.0000000 -0.0000000 -0.0000000 -0.0000000 -0.0000000 -0.0000000 -0.0000000 -0.0000000 -0.0000000 -0.0000000 -0.0000000 -0.0000000 -0.0000000 -0.0000000 -0.0000000 -0.0000000 -0.0000000 -0.0000000 -0.0000000 -0.0000000 -0.0000000 -0.0000000 -0.0000000 -0.0000000 -0.0000000 -0.0000000 -0.0000000 -0.0000000 -0.0000000 -0.0000000 -0.0000000 -0.0000000 -0.0000000 -0.0000000 -0.0000000 -0.0000000 -0.0000000 -0.0000000 -0.0000000 -0.0000000 -0.0000000 -0.0000000 -0.0000000 -0.0000000 -0.0000000 -0.0000000 -0.0000000 -0.0000000 -0.0000000 -0.0000000 -0.0000000 -0.0000000 -0.0000000 -0.0000000 -0.0000000 -0.0000000 -0.0000000 -0.0000000 -0.0000000 -0.0000000 -0.0000000 -0.0000000 -0.0000000 -0.0000000 -0.0000000 -0.0000000 -0.0000000 -0.0000000 -0.0000000 -0.0000000 -0.0000000 -0.0000000 -0.0000000 -0.0000000 -0.0000000 -0.0000000 -0.0000000 -0.0000000 -0.0000000 -0.0000000 -0.0000000 -0.0000000 -0.0000000 -0.0000000 -0.0000000 -0.0000000 -0.0000000 -0.0000000 -0.0000000 -0.0000000 -0.0000000 -0.0000000 -0.0000000 -0.0000000 -0.0000000 -0.0000000 -0.0000000 -0.0000000 -0.0000000 -0.0000000 -0.0000000 -0.0000000 -0.0000000 -0.0000000 -0.0000000 -0.0000000 -0.0000000 -0.0000000 -0.0000000 -0.0000000 -0.0000000 -0.0000000 -0.0000000 -0.0000000 -0.0000000 -0.0000000 -0.0000000 -0.0000000 -0.0000000 -0.0000000 -0.0000000 -0.0000000 -0.0000000 -0.0000000 -0.0000000 -0.0000000 -0.0000000 -0.0000000 -0.0000000 -0.0000000 -0.0000000 -0.0000000 -0.0000000 -0.0000000 -0.0000000 -0.0000000 -0.0000000 -0.0000000
0.0000099 0.0000241 0.0000046 0.0000206 -0.0000027 0.0000237 0.0000163 0.0000861 -0.0000088 0.0000512 0.0000112 0.0000465 0.0000021 0.0000114 -0.0000123 0.0000483 -0.0000036 -0.0000076 0.0000011 -0.0000009 0.0000003 0.0000323 -0.0000108 0.0000317 -0.0000045 -0.0000513 0.0000069 0.0000969 0.0000066 0.0000490 0.0000055 0.0000806 0.0000165 0.0000443 0.0000145 0.0000427 0.0000030 0.0000066 -0.0002732 0.0004862 0.0000024 0.0000257 -0.0000407 0.0001612 -0.0000189 0.0000374 -0.0000016 0.0000189 -0.0000276 0.0001127 0.0000093 0.0000529 0.0000196 0.0000588 -0.0000204 0.0000090 0.0000006 0.0000499 -0.0000292 -0.0000114 -0.0000135 -0.0000234 -0.0000127 0.0000139 -0.0000523 0.0000659 0.0000912 -0.0001177 0.0001781 -0.0001619 0.0000193 0.0000484 0.0000028 0.0000393 -0.0003352 0.0001890 -0.0000374 0.0000068 -0.0000152 -0.0000874 0.0026931 -0.0018530 0.0000674 -0.0001518 0.0000147 -0.0000330 -0.0004369 0.0002767 -0.0003035 0.0003255 0.0000139 -0.0001502 -0.0050739 0.0052085 -0.0002463 0.0007682 0.0001839 -0.0001832 0.0076693 -0.0076914 -0.0001902 0.0001206 0.0032904 0.0025237 0.0000549 -0.0001582 0.0000793 0.0000558 -0.0000289 0.0000003 -0.0001625 0.0001502 0.0000145 0.0000507 0.0000071 -0.0000837 -0.0000091 -0.0000066 0.0000024 0.0000329 0.0001362 -0.0001882 0.0002509 -0.0000152 -0.0005659 0.0004169 -0.0000168 0.0070853 0.0009706 -0.0014324 -0.0016949 0.0024261 0.0053440 -0.0045534 -0.0000163 -0.0000638 -0.0010385 0.0004168 0.0006310 -0.0007755 -0.0000047 -0.0000295 0.0000601 -0.0000303 0.0003612 -0.0002578 -0.0000329 0.0000079 0.0013340 -0.0016848 -0.0001184 -0.0001493 -0.0009422 0.0015414 0.0002957 0.0007463 0.0000279 0.0000646 -0.0000774 0.0006204 0.0000772 -0.0000990 -0.0002133 0.0001168 0.0000318 -0.0001090 0.0003194 -0.0002419 0.0009080 0.0012847 -0.0002853 0.0001842 -0.0005694 0.0005287 -0.0000281 0.0006010 -0.0003619 0.0001340 -0.0000073 -0.0000331 -0.0000466 -0.0001275 -0.0001389 0.0000986 0.0016566 -0.0094070 -0.0000324 0.0001201 0.0000823 -0.0000736 0.0001301 -0.0000015 -0.0034767 0.0004895 0.0000329 0.0001011 0.0000629 -0.0000048 0.0000754 0.0000067 -0.0148524 0.0121599 -0.0005578 0.0002335 0.0000873 -0.0000914 0.0000342 -0.0000094 0.0000109 0.0000903 -0.0000669 0.0002021 -0.0000159 0.0001085 0.0005153 0.0000455
0.0000199 0.0000422 0.0000190 0.0000171 -0.0000016 0.0000197 0.0000428 0.0002020 -0.0000114 0.0000771 0.0000503 0.0001051 -0.0000062 -0.0000079 -0.0000149 0.0000508 -0.0000156 -0.0000423 0.0000034 -0.0000033 0.0000162 0.0000426 -0.0000078 0.0000260 -0.0000526 0.0000031 0.0000104 0.0001657 0.0000116 0.0000827 0.0000053 0.0001265 0.0000425 0.0001085 0.0000300 0.0000408 0.0000087 0.0000042 0.0000886 0.0001775 -0.0000009 0.0000600 -0.0000241 0.0002393 0.0000631 -0.0000799 -0.0000088 0.0000241 -0.0000078 0.0001598 -0.0000021 0.0001574 0.0000288 0.0001514 -0.0000287 0.0000564 -0.0000119 0.0000711 -0.0000411 0.0000206 -0.0000416 -0.0000257 0.0000535 0.0000153 -0.0000864 0.0000816 0.0001153 -0.0001208 -0.0002437 0.0002100 0.0000281 0.0002224 0.0001050 0.0001341 0.0000219 0.0000823 -0.0000448 0.0000092 0.0000280 -0.0000809 -0.0008527 0.0021270 -0.0000420 0.0000943 -0.0000141 0.0000322 -0.0002578 0.0004794 0.0000426 0.0000983 -0.0000248 -0.0000705 -0.0010499 0.0035935 -0.0007402 0.0007850 0.0002273 -0.0002528 0.0007691 -0.0024248 -0.0000773 0.0000994 -0.0034305 0.0080036 -0.0000317 -0.0002120 0.0000070 0.0002605 -0.0000412 0.0000114 -0.0001661 0.0001153 0.0000176 0.0000764 -0.0001065 0.0000268 -0.0000017 -0.0000152 0.0000848 -0.0000802 0.0000561 -0.0001463 0.0001149 -0.0000806 -0.0001597 0.0002663 -0.0000955 0.0019202 0.0014877 0.0023285 -0.0062037 0.0111412 0.0024637 -0.0029528 -0.0000202 -0.0001219 0.0009212 -0.0022218 -0.0013252 0.0015915 -0.0000126 -0.0001394 -0.0000176 0.0000063 0.0001469 0.0000048 0.0000046 -0.0000559 -0.0005055 -0.0004574 0.0008118 -0.0008203 -0.0021453 0.0019331 -0.0017255 0.0024509 0.0000462 0.0000405 -0.0002497 0.0008787 -0.0000544 -0.0001938 -0.0006996 0.0004808 0.0000165 -0.0002014 0.0000694 -0.0001561 0.0003587 -0.0002678 0.0000527 -0.0001845 0.0002773 -0.0001776 -0.0014984 0.0015779 -0.0001265 -0.0003272 0.0000502 -0.0001637 0.0002286 -0.0005420 0.0000928 -0.0003558 -0.0048665 0.0075631 -0.0003192 0.0002701 0.0000817 -0.0001474 0.0002900 -0.0001892 -0.0016945 -0.0050164 -0.0004334 0.0006944 -0.0000171 -0.0000106 -0.0002496 -0.0004735 -0.0075347 0.0087140 -0.0000309 0.0001645 0.0002001 -0.0005205 0.0000184 -0.0000820 0.0000064 -0.0000244 -0.0000006 0.0000459 0.0000074 -0.0000316 0.0002156 0.0001590
0.0000194 -0.0000691 0.0000262 -0.0000835 -0.0000045 -0.0000806 0.0000322 0.0000901 0.0000058 0.0000088 0.0000844 -0.0000925 0.0000033 -0.0001517 -0.0000025 -0.0000901 0.0000039 -0.0001289 0.0000237 -0.0000764 0.0000262 -0.0000827 0.0000074 -0.0000630 -0.0000930 -0.0000006 0.0000108 0.0000003 0.0000245 -0.0000658 0.0000078 0.0000023 0.0000759 -0.0000580 0.0000393 -0.0001098 0.0000133 -0.0000746 0.0000552 0.0000081 0.0000010 -0.0000098 -0.0000295 0.0001121 0.0000885 -0.0001316 -0.0000127 0.0000085 -0.0000047 0.0001028 -0.0000193 0.0001179 -0.0000067 0.0001641 -0.0000211 0.0000443 -0.0000246 0.0000752 0.0000205 0.0000593 -0.0000501 -0.0000276 -0.0000458 -0.0000463 0.0000603 -0.0000490 0.0000323 0.0001878 -0.0000103 0.0001141 -0.0000397 0.0002070 0.0000159 0.0001785 0.0001962 -0.0000788 -0.0000598 -0.0000005 0.0000873 -0.0000568 -0.0006690 0.0025625 -0.0000955 0.0002116 -0.0000503 -0.0000709 0.0000665 0.0000606 -0.0000890 0.0001412 -0.0000602 -0.0000294 -0.0010584 0.0044748 -0.0006414 0.0004881 0.0001891 -0.0003767 -0.0020091 -0.0009148 0.0001156 0.0000246 -0.0041316 0.0113338 -0.0001084 -0.0001201 -0.0000659 0.0003213 -0.0000195 0.0001413 -0.0002699 0.0001201 0.0000174 0.0000739 -0.0001687 0.0000961 0.0000103 0.0000542 0.0000263 -0.0000470 -0.0001494 -0.0000529 -0.0002558 -0.0001654 0.0000393 -0.0003694 -0.0001283 0.0072932 0.0043548 -0.0145327 -0.0029174 0.0057015 -0.0017546 0.0036737 0.0000228 -0.0000486 0.0004504 -0.0009247 -0.0008126 0.0010447 0.0000084 -0.0001136 0.0000809 -0.0000595 -0.0000118 0.0000511 -0.0000000 -0.0001235 0.0010211 0.0004657 -0.0000293 0.0003874 -0.0005267 0.0003907 -0.0019944 0.0017202 0.0000420 -0.0000668 -0.0002320 0.0004770 0.0000427 -0.0002426 -0.0002042 -0.0002900 0.0000300 -0.0001766 -0.0002101 -0.0000723 -0.0010584 0.0003304 0.0003842 -0.0006130 0.0008479 -0.0008938 0.0024603 -0.0016001 -0.0001565 0.0001195 0.0000214 -0.0001171 0.0000093 -0.0001758 0.0001326 -0.0002746 0.0034503 -0.0056539 0.0001105 -0.0002164 -0.0000499 -0.0000153 -0.0006469 0.0002542 -0.0082199 0.0124318 0.0002265 -0.0000685 -0.0000153 -0.0000417 -0.0008841 0.0000005 -0.0027678 0.0048566 -0.0003509 0.0005518 0.0001796 -0.0005197 0.0000059 -0.0000926 -0.0000200 -0.0000715 -0.0000904 -0.0001434 0.0000187 -0.0001723 -0.0001945 0.0006132
0.0000200 -0.0001521 0.0000229 -0.0001171 0.0000048 -0.0001194 0.0000296 -0.0000639 0.0000165 -0.0000447 0.0000874 -0.0002986 0.0000392 -0.0002269 0.0000050 -0.0001693 0.0000358 -0.0001610 0.0000346 -0.0001156 0.0000194 -0.0001976 0.0000127 -0.0001055 -0.0000253 -0.0001296 0.0000076 -0.0001638 0.0000322 -0.0001806 0.0000107 -0.0001378 0.0000970 -0.0002402 0.0000429 -0.0002328 0.0000298 -0.0001773 -0.0003939 0.0002328 0.0000070 -0.0001198 0.0000129 -0.0000814 -0.0000249 -0.0000786 -0.0000104 -0.0000941 -0.0000094 -0.0000428 0.0000514 -0.0000354 -0.0000202 0.0000195 0.0000470 -0.0000459 -0.0000291 -0.0000002 0.0000344 0.0000185 -0.0000344 -0.0000443 0.0000236 -0.0002695 0.0001088 -0.0000756 0.0000269 0.0001719 0.0000927 0.0000282 -0.0000581 0.0000675 -0.0000865 0.0001568 0.0002968 -0.0001367 -0.0000396 -0.0000271 0.0000527 -0.0000609 -0.0002402 0.0014818 0.0001378 -0.0001212 -0.0000672 -0.0001867 0.0003324 -0.0003499 -0.0001387 -0.0000511 -0.0000976 -0.0001880 -0.0040208 0.0056766 0.0008801 -0.0009393 -0.0001199 -0.0001065 0.0023317 -0.0022361 -0.0000560 0.0001636 -0.0017115 0.0060481 0.0000525 -0.0001962 0.0004267 -0.0002548 -0.0000102 0.0002295 -0.0000643 0.0002069 0.0000141 0.0000532 -0.0001251 0.0002022 0.0000213 0.0000780 -0.0000061 -0.0000712 -0.0000783 -0.0000753 -0.0003450 0.0002836 0.0007880 -0.0009039 0.0014411 0.0008028 -0.0011492 -0.0037040 0.0016081 -0.0064329 -0.0051194 0.0058836 0.0001060 -0.0000427 0.0015742 -0.0018589 -0.0005580 0.0000821 0.0000850 -0.0001079 0.0001869 -0.0002543 -0.0002256 0.0000889 0.0001062 -0.0003495 0.0031692 -0.0015481 0.0000179 0.0003196 -0.0033721 0.0040787 0.0010783 -0.0007296 0.0000067 -0.0002038 -0.0002516 0.0005627 0.0000835 -0.0002342 0.0003335 -0.0010366 0.0000099 -0.0001708 0.0000050 -0.0001871 -0.0041515 0.0032894 -0.0002644 -0.0001676 0.0000782 -0.0002965 0.0036693 -0.0024927 0.0001041 -0.0003436 -0.0000188 -0.0001295 -0.0001825 0.0001161 0.0000380 -0.0001703 0.0085546 -0.0160801 0.0001016 -0.0002560 -0.0000722 0.0000230 -0.0002552 -0.0000258 -0.0056801 0.0098280 0.0007303 -0.0003663 0.0000700 -0.0001473 0.0002083 -0.0010935 -0.0013951 0.0040073 -0.0014958 0.0009599 0.0004227 -0.0005708 0.0000176 -0.0001119 -0.0000365 -0.0000933 -0.0000943 -0.0001924 0.0000076 -0.0002109 -0.0004670 0.0008590
0.0000263 -0.0001248 0.0000360 -0.0001032 0.0000145 -0.0000748 0.0000359 -0.0001023 0.0000291 -0.0000282 0.0000612 -0.0003015 0.0000734 -0.0001874 -0.0000018 -0.0001416 0.0000584 -0.0001849 0.0000417 -0.0000954 0.0000342 -0.0002144 0.0000418 -0.0000949 0.0000485 -0.0001857 0.0000159 -0.0000832 0.0000353 -0.0001635 0.0000241 -0.0000528 0.0001227 -0.0001906 0.0000596 -0.0001968 0.0000540 -0.0001021 -0.0000338 -0.0004196 -0.0000111 -0.0000978 0.0000283 -0.0001503 0.0000447 -0.0000617 -0.0000120 -0.0000656 -0.0000920 0.0000214 0.0000663 -0.0000193 -0.0000164 -0.0000133 0.0000396 0.0000241 -0.0000553 0.0000255 0.0000307 0.0000758 -0.0000243 0.0000624 0.0000957 -0.0002932 0.0000757 -0.0000228 0.0001061 0.0000919 0.0000081 -0.0000647 -0.0000415 0.0000971 -0.0000681 0.0001446 0.0003370 -0.0000932 0.0001142 -0.0000854 -0.0000223 0.0001331 0.0007219 -0.0000279 -0.0000392 0.0001291 -0.0000679 -0.0001863 0.0006323 -0.0005437 0.0002752 -0.0003167 -0.0000761 -0.0002475 -0.0027610 0.0016730 0.0005684 -0.0009282 -0.0000741 0.0000245 0.0019134 0.0005068 0.0000445 0.0000827 0.0147371 -0.0280938 0.0000164 -0.0000093 0.0003347 -0.0003591 -0.0000028 0.0002926 -0.0000155 0.0002114 0.0000077 0.0001295 0.0000750 0.0001008 0.0000265 0.0000978 0.0000439 -0.0000576 -0.0000748 -0.0000461 0.0001444 0.0001246 0.0010774 -0.0008071 0.0017617 -0.0042317 -0.0132209 0.0184670 -0.0044996 0.0029400 -0.0024496 -0.0016201 0.0001472 -0.0001772 -0.0011828 0.0008602 -0.0002591 -0.0002049 0.0001152 -0.0001500 0.0001565 -0.0003169 -0.0004395 0.0000840 0.0000604 -0.0002916 -0.0001912 0.0004230 0.0008397 -0.0006337 -0.0057042 0.0069065 0.0021271 -0.0017461 0.0000724 -0.0003557 -0.0005730 0.0005169 0.0003306 -0.0006841 -0.0004931 -0.0001070 -0.0000401 -0.0003196 0.0000894 -0.0003877 0.0003445 -0.0003320 -0.0003426 0.0000507 0.0002354 -0.0003993 0.0013489 -0.0004748 0.0000961 -0.0008393 -0.0000216 -0.0002358 -0.0001043 -0.0003296 0.0003611 -0.0004710 0.0077836 -0.0115534 -0.0003500 0.0003262 -0.0000081 -0.0001867 -0.0000653 0.0000934 0.0073979 -0.0097915 -0.0004572 0.0004362 0.0000235 -0.0002340 0.0007688 -0.0010133 0.0120010 -0.0147712 -0.0009150 -0.0001142 0.0004370 -0.0006340 0.0000235 -0.0002591 -0.0000054 -0.0002435 -0.0001240 -0.0002569 -0.0000531 -0.0002348 -0.0000103 -0.0000146
0.0000287 -0.0001065 0.0000450 -0.0001065 0.0000189 -0.0000709 0.0000483 -0.0001117 0.0000556 -0.0000164 0.0000844 -0.0003270 0.0001088 -0.0001962 0.0000019 -0.0001727 0.0000817 -0.0001786 0.0000641 -0.0000877 0.0000627 -0.0002195 0.0000719 -0.0000957 0.0000930 -0.0001316 0.0000313 -0.0000461 0.0000369 -0.0001690 0.0000413 0.0000130 0.0001381 -0.0001826 0.0000831 -0.0001561 0.0000709 -0.0000523 -0.0006528 0.0006553 -0.0000160 -0.0000531 -0.0000238 -0.0001340 0.0001491 -0.0001347 -0.0000067 0.0000263 -0.0000968 0.0001574 0.0000413 0.0000055 -0.0000157 -0.0000087 0.0000003 0.0000764 -0.0000535 0.0001119 0.0000555 0.0001062 -0.0000393 0.0001059 0.0001015 -0.0002511 0.0000366 -0.0000131 0.0001764 -0.0000015 -0.0000305 -0.0001674 -0.0000863 0.0000850 0.0000212 -0.0000487 -0.0002344 0.0002303 0.0000912 -0.0000202 -0.0000181 0.0001604 0.0022536 -0.0018992 -0.0002772 0.0003973 -0.0000700 -0.0002154 0.0004107 -0.0005425 0.0005402 -0.0006309 -0.0000278 -0.0002808 -0.0050303 0.0023497 -0.0006460 0.0004888 -0.0002183 0.0000507 0.0013689 0.0020467 0.0003615 -0.0000967 0.0063583 -0.0112568 -0.0001822 0.0004422 -0.0002458 0.0002810 -0.0000381 0.0002916 -0.0000163 0.0000908 -0.0000055 0.0002200 -0.0001978 0.0003878 0.0000043 0.0001194 0.0000164 -0.0000537 0.0000263 -0.0003084 0.0004354 -0.0001599 0.0003290 -0.0000015 0.0115977 -0.0113641 -0.0129494 0.0249419 0.0005881 0.0038527 0.0038450 -0.0068395 0.0001038 -0.0000398 -0.0022510 0.0022007 0.0012023 -0.0013548 0.0000755 0.0000141 0.0000481 -0.0001088 0.0001668 -0.0004075 0.0000625 -0.0002071 -0.0012531 0.0006902 0.0016328 -0.0015994 -0.0043554 0.0043253 -0.0003586 0.0002200 0.0000484 -0.0003179 -0.0005680 0.0003372 0.0000983 -0.0004449 -0.0006466 0.0006835 -0.0000181 -0.0003247 -0.0000455 -0.0003295 0.0036429 -0.0050747 0.0000493 -0.0002122 -0.0002608 0.0004264 -0.0021930 0.0029851 0.0000123 -0.0003800 -0.0000212 -0.0002213 0.0001956 -0.0006625 0.0002829 -0.0004457 0.0122916 -0.0266038 -0.0001558 0.0002601 0.0000501 -0.0001956 -0.0000836 0.0001145 0.0041427 -0.0069688 -0.0015282 0.0012005 -0.0001076 -0.0001367 -0.0002114 0.0001270 0.0141494 -0.0173791 -0.0003504 -0.0003482 0.0000953 -0.0001085 0.0000302 -0.0002182 -0.0000411 -0.0002484 -0.0002761 -0.0001521 -0.0000281 -0.0001872 0.0006229 -0.0009685
0.0000229 -0.0000719 0.0000529 -0.0000815 0.0000140 -0.0000293 0.0000502 -0.0001085 0.0000730 0.0000632 0.0000936 -0.0003253 0.0001195 -0.0001501 0.0000048 -0.0001484 0.0000871 -0.0001466 0.0000726 -0.0000959 0.0000787 -0.0002072 0.0000595 -0.0000530 0.0000620 -0.0001333 0.0000431 0.0000472 0.0000294 -0.0000956 0.0000546 0.0001091 0.0001527 -0.0001385 0.0000862 -0.0000887 0.0000852 0.0000389 -0.0006970 0.0007964 -0.0000238 0.0000059 -0.0001639 -0.0000492 0.0000753 -0.0000796 -0.0000129 0.0001089 -0.0000894 0.0002271 0.0000234 0.0000268 -0.0000130 0.0000811 -0.0000132 0.0000956 -0.0000544 0.0002084 0.0000364 0.0001210 -0.0000193 0.0001770 0.0001361 -0.0002493 0.0000302 -0.0000592 0.0002453 -0.0001382 0.0000350 -0.0001011 -0.0001152 0.0001128 0.0001064 -0.0000915 0.0001827 0.0001510 -0.0000335 0.0001360 -0.0000177 0.0001612 0.0016070 -0.0013125 0.0000492 0.0000201 -0.0001010 -0.0002890 0.0003753 -0.0001379 0.0000504 -0.0005387 -0.0000925 -0.0003319 -0.0018862 0.0015588 -0.0011578 0.0013338 0.0000095 -0.0000220 -0.0012582 0.0049972 0.0003108 0.0000343 0.0042713 0.0043596 -0.0001036 0.0004671 -0.0001231 0.0001641 -0.0000296 0.0003750 -0.0000349 0.0001355 -0.0000524 0.0001983 -0.0003158 0.0004701 -0.0000176 0.0001017 -0.0000438 -0.0000296 0.0000363 -0.0004560 0.0005202 -0.0008123 0.0004454 -0.0000374 0.0046726 0.0011222 -0.0105149 0.0174864 0.0025038 0.0002365 -0.0008199 -0.0011666 -0.0000302 0.0000300 0.0008950 -0.0011385 0.0010959 -0.0005603 0.0000530 0.0000287 0.0000163 -0.0001036 0.0004159 -0.0004205 0.0001597 -0.0002825 0.0003476 -0.0014405 0.0010362 -0.0004759 -0.0022213 0.0014497 -0.0013137 0.0007662 0.0000195 -0.0002578 0.0000893 -0.0001670 -0.0003404 -0.0000651 0.0003498 0.0001709 -0.0000218 -0.0003626 -0.0000815 -0.0000973 0.0047314 -0.0053829 0.0004050 -0.0004289 -0.0002960 0.0001748 -0.0019875 0.0016917 0.0001811 -0.0003235 0.0000339 -0.0002186 0.0004941 -0.0007771 -0.0000801 -0.0001210 -0.0025438 -0.0033335 -0.0000206 0.0001284 0.0000501 -0.0000800 0.0003866 -0.0007887 0.0035799 -0.0088382 -0.0001804 0.0000927 -0.0001047 -0.0001331 -0.0007737 0.0004142 0.0036150 -0.0151589 -0.0013245 0.0005443 0.0001271 -0.0002923 0.0000356 -0.0001166 -0.0000319 -0.0002499 -0.0000170 -0.0003736 0.0000125 -0.0001388 0.0002758 -0.0006005
0.0000152 -0.0000345 0.0000560 -0.0000532 0.0000214 0.0000142 0.0000453 -0.0000241 0.0000869 0.0001399 0.0000666 -0.0002572 0.0001266 -0.0000794 0.0000011 -0.0000999 0.0000828 -0.0001383 0.0000695 -0.0001028 0.0000793 -0.0001860 0.0000465 -0.0000260 0.0001302 -0.0002874 0.0000544 0.0001764 0.0000311 0.0000118 0.0000743 0.0002232 0.0001756 -0.0000061 0.0000693 0.0000229 0.0001091 0.0001817 0.0006173 -0.0008011 -0.0000324 0.0000567 -0.0000882 -0.0000044 0.0001062 -0.0000567 -0.0000155 0.0001986 -0.0001528 0.0004007 0.0000442 0.0000965 -0.0000009 0.0002745 -0.0000239 0.0001200 -0.0000539 0.0003006 0.0000106 0.0001454 -0.0000121 0.0003067 0.0001712 -0.0002626 0.0000719 -0.0000936 0.0002559 -0.0001129 -0.0000122 -0.0003370 -0.0000934 0.0001580 0.0000366 0.0001639 0.0000200 0.0005650 -0.0000336 0.0001950 -0.0000477 0.0003728 -0.0011101 0.0014247 0.0002165 -0.0000586 -0.0001319 -0.0003222 0.0003819 -0.0003397 -0.0001384 -0.0003132 -0.0001723 -0.0003686 0.0043895 -0.0043227 -0.0009082 0.0009875 0.0008143 -0.0004593 -0.0021797 0.0062606 0.0000752 0.0002469 0.0071242 0.0076536 0.0000510 0.0004711 -0.0001437 0.0003708 -0.0000157 0.0007591 -0.0000951 0.0003456 -0.0000497 0.0002714 -0.0001495 0.0003231 -0.0000420 0.0002334 0.0000149 0.0000072 0.0000105 -0.0003474 0.0005225 -0.0008750 0.0003828 -0.0001203 -0.0047961 0.0069169 0.0028961 -0.0189198 0.0049815 -0.0081233 0.0029356 -0.0043401 0.0000164 0.0000433 0.0008231 -0.0018854 0.0004567 0.0003374 0.0001520 0.0000022 0.0000783 -0.0001063 0.0002603 -0.0002164 0.0000769 -0.0001084 -0.0011808 -0.0003877 0.0008008 0.0002374 -0.0029128 0.0015715 -0.0012562 0.0013514 -0.0000683 -0.0000357 -0.0003262 -0.0000654 -0.0002463 0.0001401 0.0007879 -0.0002016 0.0000127 -0.0003958 0.0000301 -0.0000817 -0.0001286 0.0008568 0.0001590 0.0000489 -0.0003611 0.0004599 0.0004773 -0.0012848 -0.0004883 0.0004047 0.0000626 -0.0000878 0.0001216 0.0000227 -0.0001495 0.0000877 -0.0144794 0.0158945 -0.0003640 0.0005051 0.0000132 0.0000192 0.0002067 -0.0007157 0.0054870 -0.0085472 0.0000753 -0.0000736 -0.0000677 -0.0000362 -0.0014220 0.0009246 -0.0094002 -0.0243582 -0.0009600 0.0001633 -0.0002063 0.0000984 0.0000128 0.0000492 0.0000037 -0.0001721 0.0000184 -0.0001826 -0.0000043 -0.0000112 -0.0002446 -0.0000358
0.0000179 0.0000364 0.0000320 0.0000114 0.0000258 0.0000711 0.0000505 0.0001444 0.0000866 0.0002441 0.0000555 -0.0001386 0.0001199 -0.0000125 -0.0000004 -0.0000289 0.0000643 -0.0000878 0.0000596 -0.0000950 0.0000361 -0.0000918 0.0000398 0.0000013 0.0001197 -0.0003636 0.0000597 0.0002449 0.0000619 0.0000841 0.0000791 0.0002813 0.0001863 0.0000723 0.0000625 0.0001069 0.0001237 0.0002121 0.0003261 -0.0004404 -0.0000329 0.0000696 0.0001319 -0.0000650 0.0000374 0.0000255 -0.0000205 0.0001913 -0.0001558 0.0005001 0.0001039 0.0001190 0.0000110 0.0003073 0.0000005 0.0000477 -0.0000575 0.0002838 0.0000242 0.0001002 -0.0000461 0.0002644 -0.0000066 -0.0001469 0.0000548 -0.0001248 0.0001762 0.0000043 0.0000743 -0.0003467 -0.0000880 0.0000655 -0.0001049 0.0002636 0.0001856 0.0001339 -0.0000092 0.0000924 0.0000649 0.0001177 -0.0033214 0.0029650 0.0002164 -0.0000290 -0.0001225 -0.0004407 -0.0002003 -0.0003157 -0.0001050 -0.0003918 -0.0001387 -0.0006971 0.0040381 -0.0049245 0.0001838 -0.0002777 0.0009742 -0.0007457 -0.0018886 0.0029444 -0.0001851 0.0002880 -0.0037431 0.0076727 -0.0000060 0.0003177 -0.0001909 0.0008452 -0.0000015 0.0009973 -0.0001885 0.0005401 -0.0000239 0.0003601 -0.0001458 0.0002428 -0.0000616 0.0002432 0.0001041 -0.0001466 0.0001097 -0.0002867 0.0003873 -0.0003494 -0.0000705 -0.0000954 0.0094563 -0.0098284 0.0061851 -0.0203800 -0.0011210 -0.0097971 0.0053600 -0.0028267 -0.0000453 0.0000525 0.0023579 -0.0023336 -0.0017216 0.0018684 0.0002327 -0.0000078 0.0000956 -0.0000596 0.0004353 -0.0004791 0.0000751 -0.0000620 -0.0010299 0.0011333 0.0003594 0.0006610 -0.0028557 0.0032062 -0.0004031 0.0002595 -0.0000552 0.0000049 -0.0006692 0.0000456 0.0004077 -0.0003738 -0.0002681 0.0005125 0.0000079 -0.0003416 0.0002176 -0.0002393 -0.0038242 0.0018661 -0.0003315 0.0003221 -0.0002502 0.0002372 0.0017841 -0.0030138 -0.0003938 0.0000774 0.0000141 -0.0000593 -0.0001376 0.0001261 -0.0000884 0.0002344 -0.0005154 0.0031229 -0.0003456 0.0003792 -0.0001144 0.0002156 -0.0000267 0.0003116 -0.0030710 0.0039116 -0.0003976 0.0001403 -0.0000467 0.0000095 -0.0024415 0.0014923 -0.0104563 0.0065273 -0.0003337 0.0002573 -0.0008674 0.0008164 0.0000060 0.0001764 -0.0000002 -0.0001090 -0.0000796 0.0000874 -0.0000218 0.0001393 0.0001205 -0.0001883
0.0000024 0.0000987 0.0000404 0.0000569 0.0000057 0.0001441 0.0000701 0.0002624 0.0000865 0.0003223 0.0000382 -0.0000089 0.0001058 0.0000714 0.0000005 0.0000354 0.0000501 -0.0000435 0.0000593 -0.0000661 0.0000209 0.0000144 0.0000540 0.0000409 -0.0000469 -0.0002109 0.0000674 0.0003481 0.0000645 0.0002134 0.0000847 0.0004106 0.0001934 0.0002675 0.0000670 0.0002174 0.0001274 0.0002984 0.0001978 0.0000566 -0.0000399 0.0001748 0.0001350 0.0000146 -0.0000112 0.0001405 -0.0000224 0.0002548 -0.0001121 0.0005100 0.0000703 0.0002883 0.0000115 0.0003718 0.0000198 0.0000518 -0.0000627 0.0003534 0.0000156 0.0002112 -0.0000721 0.0002676 -0.0000020 -0.0000687 0.0000109 -0.0001344 0.0000915 0.0002388 -0.0001206 0.0002197 -0.0000839 0.0000843 -0.0001596 0.0002800 0.0007703 -0.0003381 -0.0000136 0.0001323 0.0000728 0.0001159 -0.0033973 0.0032075 0.0000500 0.0001039 -0.0001097 -0.0003347 -0.0001716 -0.0002748 -0.0002821 -0.0000848 -0.0001522 -0.0005931 0.0014944 0.0005641 0.0004478 -0.0001860 0.0003848 0.0000147 -0.0048229 0.0045096 0.0000537 0.0000547 0.0083475 -0.0219805 -0.0001597 0.0003932 0.0000546 0.0009161 0.0000002 0.0010176 -0.0003840 0.0007671 -0.0000544 0.0004235 -0.0001982 0.0002138 -0.0000773 0.0003154 0.0000586 0.0000273 0.0001038 -0.0004272 0.0007378 -0.0003099 -0.0005741 0.0005734 0.0226904 -0.0399120 0.0009900 -0.0112689 -0.0132011 0.0014411 0.0049306 -0.0028569 -0.0000449 0.0000984 0.0019122 -0.0007909 -0.0022328 0.0024916 0.0001339 0.0001121 0.0000544 0.0000822 0.0005501 -0.0005162 0.0000875 0.0000541 -0.0017562 0.0033995 -0.0014065 0.0020457 -0.0003349 0.0022300 -0.0009981 -0.0003714 0.0001327 -0.0000601 -0.0008612 0.0005670 0.0007965 -0.0007280 -0.0000967 0.0005778 0.0000251 -0.0003264 0.0001160 -0.0001089 0.0014679 -0.0052437 -0.0007634 0.0007325 -0.0006036 0.0003363 -0.0007110 -0.0015806 0.0003025 -0.0005639 -0.0000874 -0.0000783 -0.0003388 0.0000742 -0.0002410 0.0003493 0.0046297 -0.0087518 -0.0001317 0.0001143 -0.0001063 0.0002395 0.0001765 -0.0001107 -0.0027771 0.0077664 0.0001423 -0.0004244 -0.0000023 -0.0001244 -0.0000854 -0.0004795 -0.0100619 0.0171027 -0.0031020 0.0025527 -0.0005583 0.0002554 0.0000308 0.0000281 -0.0000191 -0.0001593 0.0000924 -0.0002715 -0.0000141 -0.0000506 -0.0000900 0.0001598
0.0000068 0.0000301 0.0000594 0.0000103 0.0000008 0.0000812 0.0000782 0.0002607 0.0000873 0.0002109 0.0000411 -0.0001039 0.0001005 -0.0000074 0.0000236 -0.0000662 0.0000590 -0.0000063 0.0000711 -0.0000942 0.0000596 -0.0000579 0.0000503 0.0000138 -0.0000552 -0.0001866 0.0000814 0.0002409 0.0000526 0.0001770 0.0000920 0.0003357 0.0001864 0.0001940 0.0000692 0.0001683 0.0001226 0.0002969 0.0000486 0.0007491 -0.0000220 0.0001732 0.0001255 0.0000175 0.0000183 0.0001009 -0.0000066 0.0003092 -0.0001485 0.0005957 0.0000370 0.0003440 0.0000241 0.0003262 0.0000109 0.0000346 -0.0000666 0.0003115 0.0000047 0.0002166 -0.0001023 0.0002133 0.0000532 -0.0001950 -0.0000013 -0.0001364 0.0001142 0.0001139 0.0000830 0.0000253 -0.0000545 0.0000587 -0.0000491 0.0002230 0.0004396 -0.0002145 0.0000723 0.0000505 -0.0001041 0.0002290 -0.0002341 0.0005088 -0.0002260 0.0004821 -0.0001210 -0.0002150 0.0001174 -0.0003086 0.0001920 -0.0002971 -0.0001818 -0.0004138 -0.0028477 0.0069134 0.0007390 -0.0004325 -0.0004844 0.0010115 -0.0002684 0.0012014 0.0002980 -0.0002166 0.0103653 -0.0166386 -0.0001183 0.0002305 -0.0001771 0.0011933 -0.0000366 0.0009529 -0.0001046 0.0005236 -0.0000968 0.0003568 -0.0000941 0.0001692 -0.0000969 0.0003739 0.0000919 0.0000254 -0.0001810 -0.0002140 0.0006177 -0.0001189 0.0000331 0.0002341 0.0135937 -0.0171845 -0.0023627 -0.0064083 -0.0074590 -0.0092306 0.0062455 -0.0081486 0.0000639 0.0001996 0.0006156 0.0004819 -0.0002108 0.0002595 0.0000258 0.0002731 0.0000266 0.0001772 0.0004949 -0.0001955 0.0001001 0.0000944 -0.0040406 0.0048841 -0.0004582 0.0009733 0.0002235 -0.0007910 -0.0002338 -0.0001938 0.0003087 -0.0001309 0.0000189 -0.0002784 0.0003522 -0.0000916 0.0003594 0.0000726 0.0000527 -0.0002465 0.0001042 -0.0001243 0.0013050 -0.0009036 -0.0003926 0.0005993 -0.0006709 0.0008495 -0.0031969 0.0017865 0.0003755 -0.0000328 -0.0000212 -0.0000135 0.0001973 -0.0003617 -0.0000001 0.0001826 -0.0089877 0.0024381 -0.0000260 0.0000339 -0.0001393 0.0004089 -0.0000769 0.0000192 -0.0030055 0.0049462 0.0005229 -0.0009651 -0.0000012 -0.0000689 0.0000668 0.0001124 -0.0113103 0.0135429 -0.0026617 0.0024422 -0.0001153 -0.0000108 0.0000196 0.0001136 -0.0000149 -0.0000948 -0.0000112 0.0001052 -0.0000626 0.0001103 -0.0001546 0.0004745
-0.0000138 0.0001166 0.0000422 0.0000707 -0.0000068 0.0001327 0.0000559 0.0003300 0.0000784 0.0002599 0.0000339 0.0000354 0.0000909 0.0000585 0.0000234 0.0000128 0.0000298 0.0000517 0.0000604 -0.0000582 0.0000462 0.0000035 0.0000281 0.0000755 -0.0000648 -0.0001718 0.0000829 0.0003959 0.0000564 0.0003118 0.0000961 0.0005039 0.0001646 0.0003424 0.0000390 0.0002733 0.0001284 0.0004872 -0.0001635 0.0008771 -0.0000222 0.0002448 0.0001708 0.0000087 -0.0000183 0.0002326 0.0000098 0.0003887 -0.0000326 0.0005937 0.0000406 0.0003821 0.0000487 0.0002899 0.0000276 0.0000473 -0.0000951 0.0002271 -0.0000143 0.0002438 -0.0001325 0.0001369 0.0000381 -0.0001508 -0.0000563 -0.0000955 0.0000906 0.0000735 0.0002570 0.0002213 -0.0000122 0.0001340 0.0000064 0.0001813 0.0000324 -0.0000804 0.0001047 -0.0000041 -0.0000502 0.0001000 -0.0007207 0.0003482 -0.0000991 0.0004550 -0.0001441 -0.0001478 -0.0000418 0.0003978 0.0000762 -0.0000666 -0.0001372 -0.0004761 -0.0085780 0.0107014 0.0005003 -0.0001401 -0.0006885 0.0007673 -0.0085017 0.0043221 0.0000586 -0.0001649 0.0006145 0.0047122 0.0000350 0.0000319 -0.0001332 0.0010916 -0.0000882 0.0007947 0.0001390 0.0003398 -0.0001072 0.0002002 -0.0001299 0.0003253 -0.0000939 0.0002688 -0.0000572 0.0000989 -0.0003989 0.0001793 -0.0000767 0.0003648 -0.0005464 0.0012583 0.0119842 -0.0119791 -0.0198228 0.0098149 0.0008867 -0.0044607 0.0020017 -0.0046828 -0.0000483 0.0001569 0.0002685 -0.0002427 0.0001908 -0.0001728 0.0000408 0.0001543 -0.0000879 0.0002666 0.0004054 -0.0002246 0.0001309 0.0000467 -0.0014963 0.0016326 0.0013088 -0.0004566 0.0014230 -0.0020376 0.0014046 -0.0009575 0.0002410 -0.0001260 0.0002289 -0.0006432 0.0000272 0.0000927 0.0005371 -0.0006190 0.0000273 -0.0001238 0.0001011 -0.0001880 0.0011205 -0.0002810 0.0002295 -0.0000328 0.0003563 -0.0007538 0.0011715 -0.0014916 0.0004880 -0.0000893 0.0000719 -0.0000427 -0.0001082 -0.0002901 0.0002539 -0.0001168 -0.0021471 -0.0004519 0.0001188 -0.0000920 -0.0000652 0.0003179 -0.0000509 0.0001665 -0.0168295 0.0042619 -0.0001472 0.0000937 -0.0000366 -0.0000462 -0.0001175 0.0000791 -0.0086467 0.0087435 0.0000424 0.0002658 -0.0001758 -0.0000004 -0.0000086 0.0001472 0.0000269 -0.0001269 -0.0002132 0.0003531 -0.0000044 0.0000834 -0.0001428 0.0002520
-0.0000016 0.0001203 0.0000344 0.0000946 -0.0000209 0.0001677 0.0000610 0.0003474 0.0000682 0.0002497 0.0000173 0.0001255 0.0000945 0.0000800 0.0000214 0.0000154 0.0000292 0.0000691 0.0000577 -0.0000305 0.0000504 0.0000239 0.0000391 0.0000627 -0.0000566 -0.0002034 0.0000825 0.0004124 0.0000512 0.0003565 0.0000938 0.0005542 0.0001611 0.0004263 0.0000388 0.0003087 0.0001265 0.0005544 -0.0001743 0.0006172 -0.0000465 0.0002974 0.0000203 0.0001031 -0.0000096 0.0001756 0.0000209 0.0004297 0.0000145 0.0005577 0.0000400 0.0004255 0.0000551 0.0003289 -0.0000315 0.0001366 -0.0001383 0.0002097 -0.0000518 0.0003530 -0.0001595 0.0000860 0.0000869 -0.0000667 -0.0000746 -0.0001010 -0.0000695 0.0002667 -0.0001252 0.0002745 0.0000466 0.0002478 0.0000661 0.0000943 -0.0002132 0.0002937 -0.0000265 0.0001982 0.0000140 0.0001538 -0.0005383 0.0012605 -0.0002401 0.0005449 -0.0001517 -0.0000145 0.0001628 0.0000490 -0.0000635 0.0001160 -0.0001097 -0.0003604 -0.0040528 0.0055457 0.0001502 0.0004619 0.0000936 -0.0000869 -0.0028560 -0.0016237 0.0001087 -0.0002078 0.0048921 -0.0025210 0.0000049 0.0002721 -0.0000277 0.0009671 -0.0001286 0.0007623 0.0002455 0.0001603 -0.0001447 0.0002107 -0.0002400 0.0004989 -0.0000927 0.0003038 -0.0000988 0.0002311 -0.0002252 0.0000405 0.0000438 0.0001589 -0.0013010 0.0018345 0.0065622 -0.0234844 -0.0263222 0.0212794 -0.0072800 0.0108202 0.0028987 -0.0058757 -0.0000698 0.0002268 -0.0015923 0.0020458 0.0013279 -0.0002055 0.0000450 0.0002154 -0.0001084 0.0004108 0.0002840 -0.0001484 -0.0000088 0.0002988 0.0004242 -0.0004522 0.0005681 0.0005173 0.0033121 -0.0015735 0.0002117 -0.0018365 0.0001270 0.0000654 -0.0005292 0.0002888 -0.0001940 0.0004739 0.0004589 -0.0006861 0.0000155 0.0000364 -0.0002962 0.0003198 -0.0009064 0.0011530 0.0002371 0.0001998 0.0006321 -0.0010837 0.0040298 -0.0027062 0.0001980 -0.0001106 0.0001104 -0.0000603 -0.0002905 -0.0001097 -0.0002874 0.0003915 0.0066055 -0.0037343 0.0002585 -0.0003928 0.0000905 0.0001195 0.0001095 -0.0000390 -0.0124968 -0.0003746 -0.0002722 0.0002283 -0.0000191 -0.0000595 0.0013003 -0.0006841 -0.0043330 0.0031883 0.0011000 -0.0009064 -0.0000037 -0.0001110 -0.0000184 0.0001922 -0.0000042 -0.0000858 -0.0003013 0.0003689 0.0000102 0.0000692 0.0001302 -0.0002201
0.0000043 0.0001513 0.0000430 0.0000942 -0.0000269 0.0001910 0.0000554 0.0003681 0.0000560 0.0002247 0.0000015 0.0001373 0.0000866 0.0000705 0.0000275 -0.0000209 0.0000212 0.0000705 0.0000487 -0.0000452 0.0000703 -0.0000188 0.0000578 0.0000256 -0.0000384 -0.0003792 0.0000779 0.0003086 0.0000647 0.0002787 0.0000873 0.0004708 0.0001496 0.0003480 0.0000517 0.0002501 0.0001090 0.0005064 -0.0006667 0.0006748 -0.0000393 0.0002285 -0.0000063 0.0000454 -0.0000946 0.0001406 0.0000253 0.0004077 -0.0000333 0.0004938 0.0000461 0.0003934 0.0000551 0.0003183 -0.0000760 0.0001402 -0.0001584 0.0001871 -0.0000619 0.0002828 -0.0001666 0.0000030 0.0000649 -0.0000792 -0.0000188 -0.0001748 -0.0001436 0.0002732 0.0001561 -0.0004710 -0.0000015 0.0002831 0.0001258 -0.0000312 0.0000235 0.0000317 -0.0000996 0.0002893 -0.0000545 0.0001772 0.0007484 0.0002395 -0.0004087 0.0007668 -0.0000788 0.0000016 -0.0000690 0.0001561 -0.0001789 -0.0000770 -0.0000949 -0.0002945 0.0012758 -0.0010052 0.0004351 0.0000107 0.0005965 -0.0004226 0.0029400 -0.0063169 0.0002203 -0.0003615 0.0083584 -0.0278223 -0.0000743 0.0002965 -0.0002791 0.0011355 -0.0001416 0.0007562 -0.0000031 0.0003410 -0.0001662 0.0002252 -0.0002761 0.0004202 -0.0001083 0.0003176 0.0000158 0.0001173 -0.0000894 -0.0000629 -0.0001076 0.0002580 -0.0000975 0.0002294 -0.0053293 -0.0038616 -0.0160598 0.0149023 -0.0161145 0.0150194 0.0029158 -0.0027358 -0.0002894 0.0005115 0.0003010 0.0003650 0.0011619 -0.0009488 0.0000291 0.0002855 -0.0000185 0.0003405 0.0003170 0.0001525 -0.0000581 0.0002870 -0.0022785 0.0017298 -0.0009236 0.0018913 0.0015970 0.0002929 0.0003759 -0.0029027 0.0001085 0.0001385 -0.0003154 0.0005206 -0.0003007 0.0005123 0.0002847 0.0000590 0.0000490 0.0000409 -0.0003618 0.0003817 -0.0039617 0.0063688 0.0002199 0.0001308 0.0002778 -0.0001761 0.0031642 -0.0011955 0.0001554 -0.0001999 0.0001054 -0.0001427 0.0006133 -0.0004217 -0.0002245 0.0003462 0.0106628 -0.0090443 0.0001961 -0.0003897 0.0000799 0.0000679 0.0001056 -0.0003020 -0.0245780 0.0209176 0.0004915 -0.0006871 0.0000370 -0.0000884 0.0013988 -0.0002407 0.0123103 -0.0224617 0.0017762 -0.0012718 0.0004364 -0.0005846 0.0000001 0.0001720 -0.0000115 -0.0000831 -0.0002087 0.0004257 0.0000020 0.0001077 -0.0006286 0.0004473
-0.0000260 0.0002311 0.0000478 0.0001111 -0.0000254 0.0002083 0.0000217 0.0004415 0.0000398 0.0002493 -0.0000284 0.0002989 0.0000674 0.0001373 0.0000154 0.0000120 -0.0000005 0.0000887 0.0000309 -0.0000225 0.0000380 0.0000419 0.0000612 0.0000407 -0.0000057 -0.0004111 0.0000641 0.0003799 0.0000776 0.0002961 0.0000805 0.0005509 0.0001191 0.0004348 0.0000029 0.0003524 0.0000784 0.0005927 -0.0010172 0.0009480 -0.0000519 0.0002916 0.0000896 -0.0000037 -0.0002121 0.0003048 0.0000211 0.0004519 -0.0000967 0.0005313 0.0000147 0.0004481 0.0000473 0.0003492 -0.0000253 0.0001242 -0.0001717 0.0002331 -0.0000543 0.0002612 -0.0001662 0.0000190 -0.0000628 0.0000621 -0.0000328 -0.0001222 -0.0000882 0.0003392 0.0001427 -0.0002136 -0.0000344 0.0003804 0.0000071 0.0001337 -0.0002018 0.0006282 -0.0000302 0.0003378 -0.0001001 0.0003124 0.0008241 -0.0014534 -0.0001444 0.0007482 -0.0000637 0.0000972 -0.0000617 0.0005552 -0.0006420 0.0005269 -0.0002055 -0.0000477 0.0022898 -0.0035979 0.0003594 -0.0002210 0.0006276 -0.0002826 -0.0026058 -0.0042660 0.0001641 -0.0001681 -0.0017918 -0.0037786 -0.0001409 0.0004035 -0.0001126 0.0007337 -0.0001455 0.0007619 -0.0002253 0.0007528 -0.0001765 0.0002618 -0.0003491 0.0005564 -0.0001184 0.0003704 -0.0000759 0.0002843 -0.0002591 -0.0000297 -0.0004190 0.0006163 0.0004611 0.0000023 0.0049825 -0.0043465 -0.0081738 -0.0015011 0.0077279 -0.0224022 -0.0000485 0.0004241 -0.0002640 0.0005426 0.0027987 -0.0038715 0.0000162 0.0003911 -0.0000266 0.0004332 -0.0000059 0.0003668 0.0004774 -0.0000849 -0.0000201 0.0003117 0.0009818 -0.0006258 0.0004770 0.0010365 -0.0008661 0.0011417 0.0004635 -0.0014942 0.0000581 0.0001898 -0.0001707 0.0009139 -0.0003084 0.0002731 0.0001721 0.0005796 0.0000865 0.0000854 -0.0001657 0.0001898 -0.0008215 0.0030011 0.0000027 0.0002774 0.0006508 -0.0008711 0.0007316 0.0019586 0.0005482 -0.0001713 0.0000007 -0.0001170 0.0010009 -0.0005418 -0.0000445 0.0000560 0.0101165 -0.0194748 0.0009784 -0.0007824 0.0000610 0.0000086 -0.0000805 -0.0005544 -0.0120613 0.0076093 -0.0001512 -0.0000303 0.0000113 -0.0001086 0.0010264 -0.0008495 0.0235225 -0.0469959 0.0009176 -0.0004493 0.0002635 -0.0004579 0.0000147 0.0000194 -0.0000592 -0.0000571 -0.0001445 0.0000679 -0.0000041 -0.0000493 -0.0003489 0.0003126
-0.0000227 0.0001649 0.0000532 0.0000714 -0.0000263 0.0001551 0.0000200 0.0004410 0.0000242 0.0001846 -0.0000916 0.0003771 0.0000578 0.0001285 0.0000082 -0.0000340 0.0000110 0.0001074 0.0000257 -0.0000111 0.0000156 0.0000458 0.0000376 0.0000434 0.0000089 -0.0003187 0.0000561 0.0003191 0.0000517 0.0002620 0.0000632 0.0005246 0.0000810 0.0004290 -0.0000276 0.0003733 0.0000531 0.0005799 -0.0005745 0.0006272 -0.0000577 0.0003066 0.0000463 0.0000651 -0.0001631 0.0002567 0.0000155 0.0004746 -0.0001846 0.0006425 0.0000017 0.0004641 0.0000444 0.0003736 -0.0000314 0.0001657 -0.0001924 0.0002623 -0.0000631 0.0002810 -0.0001589 0.0000388 -0.0001573 0.0001799 -0.0000777 -0.0000586 -0.0000611 0.0003112 -0.0005608 0.0005792 -0.0000510 0.0004464 -0.0000977 0.0001946 0.0001118 0.0005628 -0.0001523 0.0004423 -0.0001767 0.0004228 -0.0008748 0.0012374 -0.0002573 0.0006152 -0.0000518 0.0001539 0.0002101 0.0002481 -0.0004259 0.0005802 -0.0002473 0.0001064 -0.0004627 -0.0014987 0.0000201 0.0000682 0.0009681 -0.0005427 0.0051222 -0.0105166 -0.0000196 0.0000601 0.0009299 0.0040358 -0.0002482 0.0005694 0.0000595 0.0006004 -0.0001605 0.0007719 -0.0000881 0.0006583 -0.0001778 0.0002934 -0.0002878 0.0006014 -0.0001174 0.0004135 -0.0001717 0.0004718 -0.0002237 -0.0001045 -0.0002041 0.0004114 0.0004672 0.0000572 0.0057106 -0.0087745 0.0067655 -0.0155956 0.0050620 -0.0098363 -0.0011453 0.0040339 0.0000019 0.0003275 0.0026402 -0.0032112 -0.0010151 0.0018469 -0.0000342 0.0005936 -0.0000097 0.0003965 0.0003045 0.0000552 -0.0000750 0.0003848 0.0007910 0.0001719 0.0011076 0.0002664 0.0012404 -0.0010164 -0.0006078 0.0002393 0.0000814 0.0001965 0.0000845 0.0005239 -0.0004784 0.0005413 -0.0004756 0.0009392 0.0000270 0.0002807 -0.0000527 0.0001371 0.0008825 0.0008322 -0.0005116 0.0004855 0.0001931 -0.0004219 -0.0005444 0.0027705 -0.0002970 0.0008520 0.0000132 -0.0000160 0.0009491 -0.0008979 0.0000027 0.0000789 0.0063065 -0.0122152 0.0006116 -0.0003728 0.0000311 0.0001688 0.0000381 -0.0003519 0.0025525 -0.0054960 -0.0002690 -0.0003118 -0.0000245 0.0000160 -0.0000463 -0.0004800 0.0019567 -0.0062066 0.0003013 0.0000173 -0.0001804 0.0004175 -0.0000078 0.0001826 -0.0000480 0.0000232 -0.0001006 0.0000342 -0.0000158 0.0001083 0.0000931 0.0005486
-0.0000503 0.0002506 0.0000398 0.0001268 -0.0000556 0.0002506 0.0000229 0.0004951 0.0000257 0.0002579 -0.0001286 0.0005112 0.0000204 0.0002401 -0.0000136 0.0000585 -0.0000080 0.0001166 0.0000305 0.0000123 -0.0000156 0.0001130 0.0000123 0.0000929 -0.0001256 -0.0001889 0.0000456 0.0004338 0.0000147 0.0003668 0.0000401 0.0006669 0.0000361 0.0005681 -0.0000501 0.0004570 0.0000313 0.0006871 -0.0002931 0.0008312 -0.0000718 0.0003548 -0.0000630 0.0001728 -0.0002728 0.0005080 0.0000117 0.0005449 -0.0001232 0.0006727 -0.0000054 0.0005365 0.0000380 0.0004506 -0.0000356 0.0001996 -0.0002056 0.0003171 -0.0000976 0.0003416 -0.0001736 0.0000767 -0.0001142 0.0002118 -0.0000663 -0.0000974 -0.0000874 0.0003430 -0.0005808 0.0006352 -0.0001045 0.0004452 -0.0001890 0.0001813 0.0004125 -0.0005102 -0.0002244 0.0004946 -0.0002445 0.0004065 -0.0037897 0.0044450 -0.0003671 0.0004267 -0.0000223 0.0001417 0.0000563 0.0005704 0.0000661 0.0001902 -0.0001971 0.0001044 -0.0006413 0.0012010 0.0008578 -0.0006266 0.0000429 0.0000788 0.0074558 -0.0072317 -0.0000282 0.0000108 0.0088406 -0.0128254 0.0000296 0.0002273 -0.0000595 0.0008252 -0.0001821 0.0007833 0.0000764 0.0003846 -0.0001754 0.0002462 -0.0002367 0.0003132 -0.0001204 0.0003151 -0.0001986 0.0003808 -0.0001660 0.0000755 -0.0001685 0.0006811 0.0007620 -0.0001061 -0.0024277 0.0042479 0.0107516 -0.0134427 0.0008886 -0.0055642 -0.0032219 0.0055699 -0.0000095 0.0000944 0.0013074 -0.0013817 -0.0023626 0.0024954 -0.0000588 0.0004796 -0.0000835 0.0003647 0.0000623 0.0004037 -0.0001643 0.0001861 -0.0001376 0.0002805 0.0003392 0.0003682 0.0024157 -0.0021825 -0.0009686 0.0009533 0.0002008 -0.0000235 -0.0001189 0.0001776 -0.0002617 -0.0000495 -0.0012384 0.0015184 -0.0000809 0.0002575 0.0003416 -0.0002732 -0.0029238 0.0037517 -0.0003329 0.0000585 0.0000665 0.0000025 0.0010446 -0.0006533 -0.0014300 0.0014122 0.0000691 -0.0001450 0.0005490 -0.0009929 0.0001148 -0.0002106 -0.0081334 0.0052698 -0.0003418 0.0002098 -0.0000276 0.0001997 0.0006774 -0.0008180 -0.0084060 0.0143665 0.0006993 -0.0007584 0.0000319 -0.0000571 0.0000539 -0.0004350 -0.0008651 0.0074112 0.0006930 -0.0004216 -0.0003097 0.0004261 -0.0000006 0.0001282 -0.0000701 0.0000461 -0.0001742 0.0002246 0.0000131 0.0000010 -0.0007446 0.0013314
-0.0000661 0.0002922 0.0000260 0.0001560 -0.0000713 0.0002824 0.0000126 0.0005344 0.0000290 0.0002724 -0.0001771 0.0006225 -0.0000113 0.0003009 -0.0000355 0.0000885 -0.0000407 0.0001277 0.0000366 0.0000193 -0.0000412 0.0001501 0.0000143 0.0000979 -0.0001057 -0.0001860 0.0000341 0.0004864 0.0000098 0.0003880 0.0000209 0.0007573 -0.0000110 0.0006716 -0.0000761 0.0005309 0.0000106 0.0007749 -0.0007294 0.0014690 -0.0001121 0.0004211 0.0000976 0.0001014 -0.0003293 0.0005601 0.0000135 0.0006020 -0.0000006 0.0007090 -0.0000161 0.0005965 0.0000289 0.0005128 -0.0000500 0.0002189 -0.0002196 0.0003872 -0.0001172 0.0003860 -0.0001966 0.0001563 -0.0000470 0.0002185 -0.0000499 -0.0001224 -0.0001363 0.0004636 0.0001492 -0.0001247 -0.0001439 0.0005016 -0.0002619 0.0002383 0.0001608 -0.0001838 -0.0001615 0.0005304 -0.0001911 0.0004527 -0.0022475 0.0022836 -0.0000835 0.0005643 -0.0000178 0.0002913 0.0002003 0.0005555 -0.0000607 0.0005133 -0.0001518 0.0002250 -0.0049294 0.0063867 0.0007755 -0.0001470 -0.0004446 0.0005198 0.0050111 -0.0025097 0.0001183 -0.0000116 0.0034826 -0.0050714 0.0001662 0.0003120 -0.0000525 0.0008910 -0.0002188 0.0008629 0.0000668 0.0005183 -0.0001996 0.0003244 -0.0004148 0.0006449 -0.0001363 0.0003880 -0.0002309 0.0003886 -0.0002189 0.0001079 0.0003557 0.0007728 -0.0002461 0.0007760 -0.0003709 0.0043394 0.0066096 -0.0011419 -0.0017392 -0.0100588 -0.0009846 -0.0008821 -0.0000635 0.0003457 0.0007985 -0.0016279 -0.0016409 0.0016050 -0.0001768 0.0007128 -0.0001278 0.0005769 0.0001078 0.0001748 -0.0002250 0.0004401 0.0027416 -0.0021736 0.0004979 0.0005209 0.0017602 -0.0016341 -0.0013532 0.0015046 0.0001456 0.0001229 0.0004021 -0.0001937 -0.0001442 0.0000289 -0.0003076 0.0003660 -0.0001118 0.0004112 0.0006502 -0.0004194 -0.0044168 0.0056571 0.0003710 -0.0000363 0.0002902 -0.0003116 0.0002493 0.0011477 -0.0009783 0.0005665 -0.0000262 0.0000352 -0.0000444 -0.0002154 0.0000392 0.0002332 -0.0049691 0.0061953 0.0000249 0.0002585 0.0001243 0.0000913 0.0005120 -0.0007266 -0.0074755 0.0135158 -0.0000295 0.0000754 0.0000626 -0.0000235 -0.0008977 0.0009382 0.0058346 -0.0016922 0.0005785 -0.0004680 -0.0000452 0.0002787 -0.0000024 0.0001032 -0.0000287 0.0000448 -0.0001439 0.0003237 0.0000129 -0.0000295 -0.0001459 0.0003991
-0.0000605 0.0003274 0.0000215 0.0001783 -0.0000695 0.0002923 0.0000156 0.0005568 0.0000193 0.0002676 -0.0002265 0.0006937 -0.0000356 0.0003256 -0.0000375 0.0000833 -0.0000573 0.0001224 0.0000423 -0.0000122 -0.0000659 0.0001472 0.0000365 0.0000909 -0.0001020 -0.0002682 0.0000285 0.0004295 0.0000166 0.0003515 0.0000182 0.0007298 -0.0000505 0.0006520 -0.0001059 0.0005430 -0.0000048 0.0007663 -0.0005230 0.0007456 -0.0001290 0.0003981 0.0000811 0.0002593 -0.0001018 0.0002038 0.0000264 0.0005621 0.0000118 0.0008316 0.0000306 0.0005223 0.0000417 0.0004395 -0.0000932 0.0001906 -0.0002256 0.0003605 -0.0001383 0.0002751 -0.0001875 0.0001264 -0.0000426 0.0001848 -0.0000914 -0.0001843 -0.0003057 0.0004290 0.0003066 -0.0003118 -0.0001210 0.0005274 -0.0001169 0.0001210 0.0003111 0.0000435 -0.0002331 0.0004771 -0.0002199 0.0003895 -0.0016623 0.0016911 0.0003600 0.0002944 -0.0000005 0.0003799 0.0003474 0.0001442 -0.0003322 0.0006965 -0.0001473 0.0002787 -0.0011274 0.0027833 -0.0010391 0.0013202 -0.0002961 0.0000732 0.0054126 -0.0031610 0.0003135 -0.0002598 -0.0093589 0.0116259 0.0000524 0.0004775 -0.0002105 0.0012066 -0.0002346 0.0008799 -0.0001819 0.0009187 -0.0001893 0.0003296 -0.0001419 0.0003299 -0.0001555 0.0003801 -0.0002687 0.0004274 -0.0001022 -0.0000119 0.0001081 0.0008557 -0.0011562 0.0010830 0.0022421 -0.0124473 0.0056154 -0.0070550 -0.0062310 -0.0049425 -0.0052257 0.0036902 0.0000469 0.0002598 0.0015735 -0.0021419 0.0002620 -0.0009062 -0.0002631 0.0007515 -0.0000653 0.0005705 -0.0000185 0.0003707 -0.0001052 0.0003285 0.0026112 -0.0024028 0.0000002 0.0008854 -0.0007410 -0.0003104 0.0018623 -0.0011525 0.0001153 0.0001620 0.0015287 -0.0011765 -0.0001912 0.0002417 0.0010254 -0.0011862 -0.0000244 0.0004115 0.0002804 -0.0000936 0.0030953 -0.0005711 0.0003930 0.0002189 0.0003764 -0.0004692 -0.0026313 0.0044931 -0.0002922 -0.0000610 -0.0000795 0.0001102 0.0003366 -0.0006875 -0.0002146 0.0006971 0.0057207 -0.0045479 0.0002770 0.0002237 0.0001506 -0.0000207 -0.0003368 -0.0001657 -0.0013573 0.0088959 -0.0000662 -0.0000976 0.0000823 -0.0000023 -0.0018176 0.0023143 0.0033716 -0.0116309 0.0008682 -0.0009471 0.0002827 -0.0003123 -0.0000378 0.0001186 0.0000241 -0.0000426 -0.0002662 0.0005439 0.0000167 0.0000020 -0.0001266 0.0001430
-0.0000634 0.0003643 0.0000226 0.0001921 -0.0000803 0.0003229 0.0000239 0.0005589 0.0000076 0.0002567 -0.0002345 0.0007612 -0.0000658 0.0003716 -0.0000557 0.0000951 -0.0000543 0.0001040 0.0000559 -0.0000104 -0.0000642 0.0001676 0.0000495 0.0000842 -0.0001242 -0.0002038 0.0000212 0.0004274 0.0000075 0.0003459 0.0000069 0.0007733 -0.0000868 0.0006961 -0.0001376 0.0005926 -0.0000168 0.0008025 0.0006256 -0.0001302 -0.0001309 0.0004176 0.0000788 0.0003130 -0.0001317 0.0002412 0.0000280 0.0005962 0.0000903 0.0008669 0.0000250 0.0005512 0.0000444 0.0004455 -0.0001050 0.0002108 -0.0002266 0.0003982 -0.0001614 0.0002804 -0.0001659 0.0001492 -0.0001187 0.0002556 0.0000320 -0.0003508 -0.0003087 0.0003354 -0.0000108 0.0000185 -0.0000992 0.0006067 -0.0000479 0.0001535 -0.0001770 0.0004018 -0.0001788 0.0004539 -0.0002116 0.0004348 -0.0025060 0.0026512 0.0003130 0.0002893 -0.0000108 0.0005252 0.0003544 0.0005605 -0.0005257 0.0010540 -0.0002458 0.0005741 0.0018271 -0.0022891 -0.0009015 0.0011107 0.0001756 -0.0004012 0.0024112 -0.0024693 0.0002845 -0.0002424 0.0033312 0.0002521 0.0001288 0.0005116 -0.0005691 0.0014176 -0.0002631 0.0009504 -0.0000696 0.0010097 -0.0001935 0.0003612 0.0001175 0.0000704 -0.0001597 0.0003987 -0.0003020 0.0004434 -0.0002020 0.0001151 -0.0001828 0.0006219 0.0000605 -0.0000704 -0.0010074 -0.0073934 0.0054411 -0.0181494 -0.0049347 -0.0017885 0.0035910 -0.0041096 -0.0000379 0.0003580 0.0042052 -0.0038367 -0.0007090 0.0000702 -0.0002455 0.0006315 -0.0001026 0.0005745 -0.0002097 0.0007450 -0.0000890 0.0001113 0.0030342 -0.0033398 -0.0012414 0.0017456 -0.0023132 0.0006037 0.0015717 -0.0008211 0.0001418 0.0000908 -0.0002459 0.0004312 0.0000537 -0.0001715 0.0003432 -0.0000453 -0.0000087 0.0003248 -0.0002088 0.0001181 0.0052880 -0.0019892 -0.0000931 0.0003862 -0.0000437 0.0005169 -0.0015847 0.0035800 -0.0005257 0.0003533 -0.0000284 -0.0000350 0.0006070 -0.0016750 -0.0002993 0.0002527 0.0064592 -0.0034127 0.0001600 -0.0001383 0.0000565 -0.0000693 0.0000235 -0.0004125 -0.0108726 0.0169899 0.0009336 -0.0012128 0.0001704 -0.0001810 -0.0006695 0.0015690 -0.0071570 0.0100720 0.0015437 -0.0018228 0.0002506 -0.0007559 -0.0000451 -0.0000746 0.0000104 -0.0001175 -0.0001521 0.0000053 0.0000661 -0.0002726 -0.0009455 0.0005777
-0.0000579 0.0002388 0.0000298 0.0001234 -0.0000775 0.0002376 0.0000321 0.0004674 -0.0000048 0.0001011 -0.0002478 0.0006318 -0.0000689 0.0002697 -0.0000564 -0.0000423 -0.0000399 0.0000898 0.0000651 -0.0000357 -0.0000396 0.0000950 0.0000342 0.0000413 -0.0000307 -0.0001985 0.0000128 0.0002351 -0.0000025 0.0001641 -0.0000104 0.0006318 -0.0001385 0.0005650 -0.0001355 0.0004873 -0.0000289 0.0007062 0.0017942 -0.0011193 -0.0001269 0.0003712 0.0000654 0.0003064 -0.0001631 0.0002133 0.0000288 0.0005800 0.0000731 0.0007305 0.0000193 0.0004968 0.0000450 0.0003996 -0.0001031 0.0001978 -0.0002316 0.0003872 -0.0001411 0.0001945 -0.0001540 0.0001703 -0.0000685 0.0001640 0.0001232 -0.0004207 -0.0001494 0.0000076 -0.0002626 0.0004239 -0.0001446 0.0006398 -0.0001199 0.0002001 0.0000873 0.0001790 -0.0001359 0.0003648 -0.0001600 0.0004478 -0.0008701 0.0013531 -0.0000683 0.0005775 0.0000075 0.0005728 0.0005265 0.0005521 -0.0004319 0.0009566 -0.0002081 0.0004906 -0.0058610 0.0020053 -0.0005764 0.0009828 0.0002595 -0.0002200 -0.0009971 -0.0003317 -0.0000903 -0.0000164 0.0135187 -0.0124095 0.0001979 0.0004541 -0.0004439 0.0013960 -0.0002793 0.0009871 -0.0003574 0.0012714 -0.0002047 0.0003887 0.0003189 -0.0001191 -0.0001622 0.0003944 -0.0003021 0.0004011 -0.0003116 0.0002728 0.0003145 0.0000822 -0.0003924 0.0005793 0.0009807 0.0004097 -0.0015564 0.0032746 0.0041262 -0.0143295 0.0071989 -0.0081520 -0.0001133 0.0005261 0.0014873 -0.0010100 -0.0029403 0.0024172 -0.0002030 0.0005873 -0.0002807 0.0006904 0.0003091 0.0002657 -0.0000721 0.0000441 0.0023743 -0.0029167 -0.0027792 0.0028130 0.0002683 0.0000157 -0.0021899 0.0029037 0.0000872 0.0000970 -0.0008231 0.0009149 0.0007368 -0.0005828 -0.0001509 0.0005844 0.0000005 0.0002801 -0.0001409 -0.0000539 0.0027914 0.0027144 0.0001570 -0.0001599 -0.0003859 0.0001707 0.0023087 -0.0018481 -0.0006582 0.0004995 0.0000143 -0.0001155 0.0008310 -0.0015277 -0.0001923 0.0000905 0.0032143 0.0065406 -0.0001396 -0.0000074 0.0001168 -0.0001178 0.0004751 -0.0006056 -0.0239842 0.0225145 -0.0008989 0.0003406 0.0001347 -0.0001590 0.0000431 0.0005425 -0.0020820 0.0082576 0.0009822 -0.0006893 -0.0001029 0.0001543 -0.0000220 -0.0000930 -0.0000002 -0.0001015 0.0001809 -0.0004655 0.0000792 -0.0002694 -0.0001220 -0.0001774
-0.0000691 0.0002176 0.0000385 0.0001084 -0.0000747 0.0002403 0.0000301 0.0004081 -0.0000119 0.0000487 -0.0002505 0.0005841 -0.0000644 0.0002444 -0.0000557 -0.0000758 -0.0000587 0.0000445 0.0000360 -0.0000032 -0.0000622 0.0001170 0.0000187 0.0000565 -0.0000708 -0.0001658 0.0000135 0.0001903 -0.0000238 0.0001446 -0.0000107 0.0006313 -0.0001599 0.0005660 -0.0001480 0.0004765 -0.0000196 0.0007207 0.0018204 -0.0018140 -0.0001247 0.0003544 0.0000012 0.0003897 -0.0000698 0.0001550 0.0000298 0.0006039 0.0000626 0.0006607 0.0000094 0.0004710 0.0000421 0.0003858 -0.0000700 0.0001852 -0.0002424 0.0004329 -0.0001348 0.0001700 -0.0001644 0.0002310 -0.0001112 0.0002681 -0.0000410 -0.0002892 -0.0001752 -0.0000435 -0.0004007 0.0006387 -0.0002059 0.0006322 -0.0000780 0.0000814 0.0004095 -0.0001859 -0.0001638 0.0003419 -0.0002363 0.0004527 -0.0014407 0.0014621 0.0001580 0.0003749 0.0000041 0.0005052 0.0002645 0.0004718 -0.0000906 0.0005611 -0.0001446 0.0002240 -0.0049771 0.0047018 -0.0010869 0.0013830 0.0000268 0.0001460 0.0032453 -0.0026013 0.0002443 -0.0003668 0.0169362 -0.0220050 0.0001567 0.0003140 -0.0002207 0.0013137 -0.0002582 0.0009294 -0.0004034 0.0011288 -0.0001760 0.0003265 0.0004372 -0.0003536 -0.0001694 0.0002776 -0.0002812 0.0003281 -0.0003043 0.0002404 0.0003704 0.0001377 -0.0012403 0.0017765 -0.0011995 0.0023264 -0.0062959 0.0117305 0.0147061 -0.0328238 -0.0065540 0.0080757 0.0000214 0.0001934 -0.0033040 0.0026790 -0.0010879 0.0014188 -0.0001560 0.0002918 -0.0002827 0.0004736 0.0003188 -0.0001603 -0.0000279 -0.0000840 0.0028918 -0.0023141 -0.0006873 0.0008294 -0.0018908 0.0013414 -0.0021793 0.0030869 0.0000458 -0.0000010 0.0000679 -0.0001777 0.0001151 -0.0001580 -0.0002147 0.0004376 0.0000087 0.0000935 0.0001584 -0.0004471 -0.0003075 0.0055673 0.0002904 -0.0003110 0.0008728 -0.0012548 0.0033932 -0.0033754 -0.0004214 0.0005714 0.0000854 -0.0002960 0.0006281 -0.0011487 -0.0003001 0.0002375 -0.0014446 0.0128877 -0.0001307 -0.0000955 0.0000311 -0.0001120 0.0001309 -0.0005822 -0.0093450 0.0039210 -0.0015864 0.0013142 0.0000679 -0.0001613 0.0000788 -0.0001885 0.0095350 -0.0094959 0.0009414 0.0002758 -0.0002195 0.0003732 0.0000385 -0.0001711 -0.0000216 -0.0001453 -0.0000784 -0.0001461 0.0000171 -0.0002229 -0.0008268 0.0002785
-0.0000736 0.0002074 0.0000378 0.0001026 -0.0000625 0.0002183 0.0000248 0.0003637 -0.0000120 -0.0000117 -0.0002473 0.0005813 -0.0000578 0.0002313 -0.0000521 -0.0001232 -0.0000499 -0.0000333 0.0000340 0.0000014 -0.0000451 0.0000838 0.0000297 0.0000509 -0.0000777 -0.0001349 0.0000182 0.0001408 -0.0000327 0.0001254 -0.0000170 0.0006311 -0.0001589 0.0005700 -0.0001457 0.0004547 -0.0000026 0.0007122 0.0005561 -0.0007631 -0.0001321 0.0003447 0.0000673 0.0002950 -0.0000528 0.0001340 0.0000231 0.0006239 0.0000029 0.0008046 -0.0000277 0.0005037 0.0000241 0.0004018 -0.0000872 0.0002106 -0.0002510 0.0004963 -0.0001248 0.0001884 -0.0001731 0.0002878 -0.0001295 0.0002896 -0.0001186 -0.0002188 -0.0002378 0.0000333 -0.0002589 0.0002030 -0.0002605 0.0006893 -0.0001208 0.0000576 -0.0000541 0.0001112 -0.0000135 0.0002435 -0.0002484 0.0004696 -0.0019899 0.0018403 0.0004141 0.0001386 0.0000165 0.0004917 -0.0002547 0.0008040 0.0000860 0.0003069 -0.0001087 0.0001717 -0.0054227 0.0068608 -0.0000664 0.0004280 -0.0003177 0.0004811 0.0067133 -0.0087263 0.0006340 -0.0005863 0.0075553 -0.0072663 0.0000709 0.0005100 0.0000523 0.0008288 -0.0002526 0.0009694 -0.0001533 0.0009016 -0.0001874 0.0003802 0.0000926 0.0001558 -0.0001673 0.0003262 -0.0003002 0.0003812 -0.0002970 0.0000624 -0.0004133 0.0008078 -0.0007981 0.0012319 -0.0095978 0.0103359 -0.0062665 0.0052024 0.0016532 -0.0017782 -0.0035866 0.0079662 -0.0001772 0.0003980 -0.0021155 0.0018106 0.0009001 0.0001690 -0.0001483 0.0003359 -0.0001658 0.0003405 0.0001187 -0.0000798 -0.0000629 0.0000099 0.0028081 -0.0019389 0.0004566 -0.0000143 -0.0008126 -0.0007685 -0.0016588 0.0009820 0.0001116 -0.0000037 0.0001701 -0.0000876 -0.0009378 0.0007627 -0.0000396 0.0003778 -0.0000377 0.0001011 0.0001663 -0.0002607 0.0013756 0.0018317 0.0001881 -0.0002190 -0.0002800 0.0002020 0.0034702 -0.0019057 -0.0003782 0.0009517 0.0000966 -0.0002664 0.0000841 -0.0007683 -0.0001119 0.0001838 0.0018729 0.0070744 -0.0000730 -0.0000933 -0.0001218 0.0000626 -0.0001096 -0.0003304 0.0004612 -0.0126960 0.0002792 0.0000363 0.0000383 -0.0000904 -0.0007864 0.0000931 0.0037586 0.0067592 0.0013604 -0.0000938 0.0000786 0.0000830 0.0000561 -0.0001784 0.0000375 -0.0001650 -0.0000381 -0.0002095 0.0000376 -0.0003260 -0.0013045 0.0006629
-0.0000482 0.0001611 0.0000274 0.0000965 -0.0000407 0.0001661 0.0000220 0.0003161 -0.0000105 -0.0000576 -0.0002264 0.0004653 -0.0000495 0.0001775 -0.0000279 -0.0002093 -0.0000191 -0.0001172 0.0000584 -0.0000611 -0.0000205 0.0000027 0.0000443 0.0000193 -0.0000187 -0.0002846 0.0000210 0.0000218 -0.0000274 0.0000219 -0.0000176 0.0005080 -0.0001721 0.0004586 -0.0001328 0.0003456 0.0000027 0.0006040 0.0001934 0.0002989 -0.0001260 0.0002489 -0.0000407 0.0003070 -0.0000921 0.0000653 0.0000239 0.0005426 -0.0000417 0.0008874 -0.0000288 0.0004270 0.0000108 0.0003009 -0.0000991 0.0001650 -0.0002649 0.0004665 -0.0000957 0.0000479 -0.0001681 0.0002296 0.0000594 -0.0000905 -0.0000994 -0.0003177 -0.0001351 -0.0002429 -0.0003978 0.0002117 -0.0003085 0.0007119 -0.0002353 0.0000487 -0.0003273 0.0002038 -0.0000573 0.0000574 -0.0002272 0.0003428 -0.0011285 0.0011058 0.0001558 0.0001291 0.0000293 0.0003818 0.0000321 0.0004756 0.0002027 -0.0002144 -0.0000576 -0.0000168 0.0011670 0.0005777 0.0001299 -0.0003204 -0.0003359 0.0004082 -0.0005209 -0.0064526 0.0002539 -0.0001771 0.0027229 -0.0020659 0.0001007 0.0005595 -0.0001111 0.0010162 -0.0002645 0.0010059 -0.0004269 0.0011759 -0.0002154 0.0004197 -0.0001924 0.0004088 -0.0001755 0.0003147 -0.0002545 0.0002847 -0.0001364 -0.0001054 -0.0009162 0.0006463 0.0002732 0.0001075 -0.0026901 0.0120298 -0.0020632 -0.0024820 -0.0000659 0.0005474 -0.0008595 0.0055467 -0.0003488 0.0004613 -0.0012630 0.0024388 -0.0001131 0.0002901 -0.0001379 0.0003966 -0.0000587 0.0001140 -0.0003150 0.0003259 -0.0000546 -0.0000875 0.0005041 -0.0019081 -0.0004228 0.0007151 0.0005108 -0.0003384 -0.0017048 -0.0001188 0.0001768 -0.0000504 -0.0003555 0.0002508 -0.0006795 0.0006404 -0.0005492 0.0006964 -0.0000180 0.0000144 0.0001374 -0.0002325 0.0031133 -0.0024573 0.0001650 -0.0005258 -0.0002398 -0.0001816 0.0028511 -0.0025601 0.0001351 0.0002690 -0.0000875 -0.0000618 0.0004300 -0.0011677 0.0000830 0.0001030 -0.0028939 0.0017742 0.0000459 -0.0002502 -0.0001936 0.0002541 0.0002254 -0.0001985 -0.0183258 0.0167760 0.0000730 0.0002963 0.0000111 -0.0000864 0.0001651 -0.0000702 -0.0019460 0.0017731 -0.0022463 0.0020424 0.0001196 0.0002582 0.0000637 -0.0001558 0.0000109 -0.0000926 0.0000582 -0.0002060 0.0000608 -0.0003158 -0.0003934 -0.0001571
-0.0000347 0.0001818 0.0000391 0.0001064 -0.0000420 0.0001967 0.0000169 0.0003153 -0.0000208 -0.0000386 -0.0001970 0.0004622 -0.0000368 0.0001983 -0.0000298 -0.0001753 -0.0000119 -0.0001489 0.0000553 -0.0000328 -0.0000173 0.0000195 0.0000424 0.0000493 0.0000411 -0.0004054 0.0000185 0.0001338 -0.0000347 0.0000818 -0.0000214 0.0005485 -0.0001920 0.0005635 -0.0001492 0.0003835 -0.0000050 0.0005974 0.0003965 0.0004052 -0.0001277 0.0002848 -0.0000527 0.0003840 -0.0001495 0.0001471 0.0000119 0.0005175 0.0000608 0.0008926 -0.0000240 0.0004839 0.0000051 0.0003322 -0.0000610 0.0001722 -0.0002722 0.0005594 -0.0000926 0.0001109 -0.0001705 0.0002535 0.0000461 -0.0000643 -0.0000537 -0.0003882 -0.0001772 -0.0001870 0.0000188 -0.0000997 -0.0003706 0.0007850 -0.0003552 0.0002071 -0.0005903 0.0005128 -0.0001919 0.0002227 -0.0003393 0.0005328 0.0004530 -0.0007809 -0.0001808 0.0005750 0.0000212 0.0004278 0.0002661 0.0002058 0.0000214 0.0002126 -0.0000470 0.0001411 0.0090366 -0.0068663 0.0003290 -0.0002630 0.0003828 -0.0000695 -0.0040257 -0.0012938 -0.0000350 0.0003187 0.0002458 -0.0120070 0.0002120 0.0006822 -0.0001440 0.0013337 -0.0002953 0.0010139 -0.0003601 0.0010865 -0.0002242 0.0004714 -0.0001494 0.0003498 -0.0002091 0.0002921 -0.0001608 0.0002216 -0.0001817 -0.0002463 -0.0001921 -0.0001839 0.0005606 -0.0009922 0.0029585 0.0013656 0.0103096 -0.0163531 0.0074866 -0.0181094 -0.0009168 0.0034634 -0.0003698 0.0003982 -0.0037369 0.0044962 -0.0008287 0.0004216 -0.0001038 0.0002097 0.0000265 -0.0000113 -0.0006416 0.0004409 -0.0001403 0.0000212 -0.0020733 0.0004016 -0.0003181 0.0008387 -0.0019535 0.0025193 -0.0005224 0.0001436 0.0000719 -0.0000462 -0.0016556 0.0011489 -0.0004051 0.0001180 -0.0006545 0.0010807 -0.0000059 -0.0001143 0.0000061 -0.0003280 0.0006198 0.0001465 0.0001285 -0.0005240 0.0008513 -0.0011428 -0.0013934 0.0003645 -0.0003240 0.0001310 -0.0001347 -0.0000910 0.0003596 -0.0017098 -0.0000946 -0.0003849 -0.0063654 0.0016691 -0.0001643 -0.0002719 -0.0000074 -0.0000349 0.0007215 -0.0005906 -0.0104903 0.0170866 -0.0002127 0.0005246 0.0000786 -0.0003037 0.0017268 -0.0006161 0.0034337 -0.0325137 -0.0015277 0.0006670 -0.0001302 0.0001612 0.0000446 -0.0003272 0.0000475 -0.0002221 0.0000375 -0.0004310 0.0000262 -0.0003878 -0.0002898 -0.0008103
-0.0000197 0.0001176 0.0000596 0.0000504 -0.0000536 0.0001452 0.0000189 0.0002982 -0.0000161 -0.0001224 -0.0001681 0.0004049 -0.0000274 0.0001346 -0.0000245 -0.0002632 0.0000214 -0.0001408 0.0000644 -0.0000378 -0.0000135 -0.0000193 0.0000183 0.0000581 0.0000692 -0.0003555 0.0000184 0.0000510 -0.0000245 0.0000205 -0.0000362 0.0004359 -0.0001916 0.0004862 -0.0001403 0.0003080 -0.0000254 0.0004549 0.0002463 0.0003287 -0.0001310 0.0002796 0.0000874 0.0002946 -0.0001623 0.0000991 -0.0000011 0.0004423 0.0000215 0.0009149 -0.0000033 0.0005065 0.0000086 0.0003456 -0.0000498 0.0001752 -0.0002774 0.0006168 -0.0000903 0.0001362 -0.0001933 0.0002670 -0.0000999 0.0000272 0.0000348 -0.0004921 -0.0001616 -0.0002586 0.0003522 -0.0005098 -0.0003908 0.0007476 -0.0004368 0.0002566 -0.0004465 0.0001225 -0.0002335 0.0002945 -0.0003007 0.0005305 -0.0003403 0.0001902 -0.0004754 0.0009433 0.0000517 0.0004845 -0.0003243 0.0006188 -0.0002877 0.0007282 -0.0000297 0.0002867 0.0024255 -0.0039432 -0.0002070 0.0010322 0.0014151 -0.0010032 0.0031998 -0.0021088 0.0001683 0.0003088 -0.0122087 0.0108642 0.0002719 0.0008441 -0.0001046 0.0012231 -0.0003201 0.0010165 -0.0000650 0.0007046 -0.0002366 0.0005392 -0.0001418 0.0003906 -0.0002424 0.0003330 -0.0001300 0.0001797 -0.0003106 -0.0000942 0.0006189 -0.0001966 -0.0004465 -0.0005157 0.0064428 -0.0131976 0.0140857 -0.0158644 0.0094347 -0.0194991 0.0041245 -0.0027555 -0.0002912 0.0003339 -0.0021948 0.0017110 -0.0016223 0.0018279 -0.0001407 0.0002503 0.0001042 -0.0000228 -0.0002121 0.0003183 -0.0001913 0.0001075 -0.0011281 0.0000646 -0.0005972 0.0013319 -0.0010902 0.0018272 0.0005834 0.0000836 0.0001257 -0.0000950 -0.0010612 0.0010503 -0.0000551 0.0000698 0.0008903 -0.0002291 0.0000014 0.0000039 -0.0000466 -0.0002847 -0.0019205 0.0001122 0.0006686 -0.0007534 0.0002035 -0.0005248 -0.0065965 0.0045589 -0.0003087 -0.0002834 0.0000137 -0.0002116 0.0000861 -0.0013376 0.0000912 -0.0007313 0.0084397 -0.0148678 -0.0000058 -0.0002768 0.0001575 -0.0003344 0.0000898 -0.0002409 -0.0030004 0.0087461 -0.0000669 0.0004229 0.0001391 -0.0002367 0.0011096 -0.0000599 -0.0017563 -0.0113883 0.0003426 -0.0002157 0.0003145 -0.0000149 0.0000189 -0.0003304 0.0000451 -0.0002244 0.0001232 -0.0004093 0.0000412 -0.0003474 -0.0003139 -0.0005990
-0.0000234 0.0001509 0.0000615 0.0000480 -0.0000580 0.0001535 0.0000107 0.0003323 -0.0000239 -0.0000796 -0.0001292 0.0004339 -0.0000247 0.0001453 -0.0000224 -0.0002519 0.0000246 -0.0001175 0.0000795 -0.0000357 -0.0000416 0.0000359 0.0000058 0.0000790 -0.0000038 -0.0002274 0.0000190 0.0000645 -0.0000353 0.0000744 -0.0000385 0.0004318 -0.0001828 0.0004771 -0.0001295 0.0002775 -0.0000261 0.0003665 -0.0002612 0.0008399 -0.0001208 0.0002224 0.0000539 0.0002912 -0.0002008 0.0001447 -0.0000066 0.0003725 0.0001256 0.0008359 0.0000146 0.0004521 0.0000048 0.0002990 -0.0000689 0.0001772 -0.0002820 0.0006132 -0.0000827 0.0000572 -0.0002087 0.0002699 0.0000140 -0.0001266 -0.0000362 -0.0004816 -0.0000134 -0.0005649 0.0002880 -0.0006341 -0.0004108 0.0006568 -0.0004157 0.0001527 -0.0003921 -0.0003371 -0.0002082 0.0001648 -0.0000887 0.0003179 -0.0018851 0.0011087 -0.0002532 0.0007646 0.0000793 0.0004312 -0.0008156 0.0013980 -0.0002215 0.0003005 0.0000118 0.0002484 -0.0090272 0.0055395 -0.0008634 0.0012996 0.0004926 -0.0005292 0.0054609 -0.0044088 0.0002697 0.0001281 -0.0095973 0.0140426 0.0003090 0.0008219 -0.0002402 0.0012827 -0.0003327 0.0010276 -0.0001959 0.0008881 -0.0002351 0.0005134 -0.0000622 0.0003343 -0.0002374 0.0002555 -0.0001906 0.0001168 -0.0001928 0.0000475 0.0005289 -0.0001564 -0.0012661 0.0010068 -0.0062610 0.0091791 0.0168263 -0.0207880 0.0091623 -0.0153796 0.0008963 -0.0013699 -0.0001442 0.0000772 0.0001311 0.0004821 -0.0008790 0.0010705 -0.0001651 0.0001914 0.0001283 -0.0001723 -0.0002382 0.0003514 -0.0000301 -0.0002429 0.0007573 -0.0022800 -0.0017991 0.0018550 -0.0019802 0.0032953 -0.0000206 0.0002384 0.0002591 -0.0003034 0.0008232 -0.0005593 -0.0001733 -0.0000602 0.0011204 -0.0007265 0.0000663 -0.0000736 0.0000238 -0.0004998 -0.0019869 -0.0029315 0.0003144 -0.0003406 0.0001929 -0.0007890 -0.0053319 0.0043351 0.0005370 -0.0011184 0.0000856 -0.0003444 0.0000248 -0.0011043 0.0003886 -0.0008077 0.0070284 -0.0101174 0.0001185 -0.0004877 0.0001638 -0.0004032 -0.0005589 0.0000773 -0.0032773 0.0036260 -0.0008979 0.0010928 0.0001340 -0.0002427 -0.0001703 0.0006741 0.0000773 -0.0044865 -0.0001216 0.0008639 0.0006510 -0.0004220 0.0000535 -0.0003836 0.0000597 -0.0002968 -0.0001488 -0.0001197 0.0000824 -0.0004684 -0.0004120 -0.0001282
-0.0000282 0.0001265 0.0000657 0.0000232 -0.0000415 0.0001120 0.0000127 0.0003140 -0.0000356 -0.0000899 -0.0000783 0.0003615 0.0000036 0.0001036 -0.0000193 -0.0003055 0.0000322 -0.0001341 0.0000640 -0.0000093 -0.0000456 0.0000619 0.0000110 0.0000597 -0.0000423 -0.0002053 0.0000211 0.0000636 -0.0000434 0.0000742 -0.0000321 0.0004100 -0.0001588 0.0004471 -0.0001322 0.0002600 -0.0000284 0.0003104 -0.0011620 0.0016707 -0.0001359 0.0002074 0.0001425 0.0001878 -0.0001478 0.0001179 -0.0000139 0.0003823 0.0002254 0.0008478 -0.0000139 0.0004585 -0.0000224 0.0003049 -0.0000819 0.0002301 -0.0002714 0.0006468 -0.0000725 0.0000775 -0.0001976 0.0003096 0.0001251 -0.0001437 -0.0001707 -0.0003819 -0.0000649 -0.0005285 0.0002936 -0.0004349 -0.0004162 0.0006392 -0.0003490 0.0001367 -0.0007444 0.0000831 -0.0001338 0.0001925 -0.0001501 0.0004501 -0.0020300 0.0006168 -0.0000471 0.0005888 0.0000600 0.0005134 -0.0001646 0.0009962 0.0003137 -0.0000271 0.0000813 0.0002892 -0.0026890 0.0041579 -0.0001050 0.0003471 -0.0002501 -0.0001558 0.0058123 -0.0073069 0.0002540 0.0001204 -0.0171200 0.0166234 0.0003141 0.0009252 -0.0001410 0.0011412 -0.0003518 0.0010741 -0.0000964 0.0009018 -0.0002510 0.0005414 -0.0000555 0.0002563 -0.0002290 0.0002916 -0.0003052 0.0002138 -0.0002026 -0.0000390 -0.0001659 0.0002193 -0.0008614 0.0007275 -0.0131138 0.0137937 0.0059121 -0.0078607 0.0052380 0.0025602 0.0042481 -0.0090766 -0.0004275 0.0004468 -0.0000119 0.0019753 0.0007640 -0.0001644 -0.0001826 0.0001989 0.0000260 -0.0000519 -0.0002422 0.0002067 0.0000722 -0.0002408 0.0011835 -0.0024934 -0.0001733 0.0003340 -0.0034856 0.0034568 0.0009077 -0.0007568 0.0002274 -0.0002758 0.0000911 -0.0004090 -0.0000934 -0.0002950 0.0006439 -0.0000996 0.0001591 -0.0001331 0.0000892 -0.0005647 0.0047605 -0.0081164 -0.0006829 0.0008558 0.0005648 -0.0006954 -0.0013927 0.0019294 0.0002729 -0.0005608 0.0000227 -0.0003096 -0.0001385 -0.0009149 -0.0000971 -0.0002743 -0.0002646 -0.0080247 -0.0002747 -0.0000170 0.0000744 -0.0002733 -0.0004932 -0.0001681 0.0042240 -0.0304444 -0.0005628 0.0006752 0.0000690 -0.0002141 -0.0001000 0.0002729 -0.0007019 0.0003557 -0.0016702 0.0015943 0.0007341 -0.0007698 0.0000664 -0.0004194 0.0000467 -0.0002722 -0.0002225 -0.0003059 0.0001200 -0.0006810 -0.0007655 0.0000937
-0.0000041 0.0000307 0.0000764 -0.0000307 -0.0000286 0.0000401 0.0000219 0.0002652 -0.0000206 -0.0001756 -0.0000129 0.0001184 0.0000433 -0.0000300 -0.0000011 -0.0004545 0.0000512 -0.0001839 0.0000525 -0.0000374 -0.0000185 -0.0000212 0.0000260 0.0000014 -0.0000563 -0.0002318 0.0000291 -0.0001150 -0.0000149 -0.0000850 -0.0000149 0.0002464 -0.0001107 0.0002310 -0.0001342 0.0001454 -0.0000136 0.0002000 -0.0007431 0.0011295 -0.0001306 0.0001349 0.0001762 0.0001112 -0.0000636 -0.0000542 -0.0000084 0.0003762 0.0000880 0.0009093 -0.0000096 0.0003921 -0.0000359 0.0002733 -0.0000855 0.0002218 -0.0002879 0.0006588 -0.0000771 0.0000382 -0.0001817 0.0002757 0.0000752 -0.0002064 -0.0001596 -0.0003987 -0.0000763 -0.0005961 -0.0003716 0.0000664 -0.0004490 0.0006064 -0.0002917 0.0000257 -0.0007142 -0.0002243 -0.0001392 0.0001021 -0.0002794 0.0005012 -0.0045979 0.0032903 -0.0002009 0.0006602 0.0000788 0.0005079 0.0003123 0.0003643 0.0002395 0.0001072 0.0001537 0.0001529 -0.0001641 -0.0011878 0.0000840 0.0001136 -0.0000202 -0.0007911 -0.0010350 -0.0003207 0.0002131 0.0000061 -0.0120871 0.0167375 0.0002975 0.0009010 -0.0000565 0.0009914 -0.0003828 0.0010708 0.0000344 0.0008354 -0.0002830 0.0005559 -0.0004053 0.0005259 -0.0002371 0.0003271 -0.0002414 0.0001521 -0.0000496 -0.0002224 0.0000072 -0.0001725 -0.0001944 -0.0000654 -0.0058757 -0.0121024 -0.0106742 0.0171369 0.0020158 0.0061301 0.0056257 -0.0103889 -0.0006087 0.0006191 -0.0001912 0.0009629 0.0009133 -0.0002344 -0.0001123 0.0001145 -0.0000438 -0.0000164 -0.0000677 -0.0002501 0.0000603 -0.0001481 0.0019207 -0.0021332 0.0004705 -0.0003215 -0.0030990 0.0030574 -0.0014128 0.0004963 0.0001444 -0.0001762 -0.0013586 0.0006533 0.0001449 -0.0003392 0.0002652 -0.0001003 0.0001425 -0.0000724 0.0003079 -0.0006796 0.0036583 -0.0083367 -0.0002308 0.0003483 0.0004033 -0.0001404 -0.0009232 0.0003487 -0.0003849 -0.0001085 0.0000880 -0.0003210 0.0001996 -0.0010772 -0.0002526 0.0000107 -0.0043511 -0.0107858 0.0002980 -0.0002848 0.0001051 -0.0002683 -0.0005692 -0.0002357 0.0037984 -0.0167932 0.0006264 -0.0007067 0.0000120 -0.0000948 0.0011453 -0.0005998 -0.0020640 0.0105004 -0.0040030 0.0033423 0.0003919 -0.0006176 0.0000828 -0.0003648 -0.0000337 -0.0001339 0.0001254 -0.0004394 0.0001166 -0.0005973 0.0000766 -0.0006066
-0.0000247 0.0000844 0.0000941 -0.0000205 -0.0000125 0.0000606 0.0000235 0.0002982 -0.0000180 -0.0001541 0.0000086 0.0001323 0.0000627 -0.0000073 -0.0000007 -0.0004202 0.0000401 -0.0001713 0.0000407 -0.0000058 -0.0000489 0.0000576 0.0000416 0.0000189 -0.0000619 -0.0001929 0.0000354 -0.0000457 -0.0000202 -0.0000120 0.0000003 0.0003213 -0.0000808 0.0002624 -0.0001252 0.0001503 0.0000038 0.0002586 -0.0010717 0.0010919 -0.0001216 0.0001696 0.0000602 0.0003164 -0.0001524 0.0000525 -0.0000066 0.0004158 0.0000801 0.0009302 -0.0000010 0.0004505 -0.0000352 0.0003163 -0.0001321 0.0002866 -0.0003092 0.0007151 -0.0001145 0.0000883 -0.0001971 0.0002946 0.0001007 -0.0002145 -0.0001455 -0.0004440 -0.0000738 -0.0005400 -0.0007741 -0.0000193 -0.0005324 0.0006202 -0.0004845 0.0001117 -0.0007335 -0.0006147 -0.0001427 0.0001170 -0.0000809 0.0004068 -0.0017307 0.0014829 -0.0001697 0.0007237 0.0000800 0.0005791 -0.0000816 0.0008621 -0.0001141 0.0004126 0.0000793 0.0002328 0.0083956 -0.0106677 0.0010395 -0.0016676 -0.0001600 -0.0006827 -0.0031268 0.0010275 0.0001209 0.0000755 0.0059407 -0.0095193 0.0004041 0.0008332 -0.0002256 0.0011892 -0.0003988 0.0010286 -0.0002138 0.0010153 -0.0002817 0.0005009 -0.0007712 0.0008743 -0.0002458 0.0002527 -0.0000229 -0.0000405 0.0000638 -0.0004987 0.0003990 -0.0003965 -0.0005104 0.0003773 0.0004253 -0.0043915 -0.0054672 0.0057797 -0.0022807 -0.0152578 -0.0044316 0.0006474 -0.0003351 0.0002652 0.0020979 -0.0025150 -0.0002541 0.0003110 0.0000387 -0.0001807 -0.0000617 -0.0000449 -0.0000898 -0.0004243 0.0002788 -0.0005973 -0.0008892 -0.0007026 -0.0006342 0.0006605 -0.0004794 -0.0007733 -0.0022747 0.0014521 0.0000983 -0.0001769 -0.0008198 -0.0000025 0.0000498 -0.0003160 0.0012003 -0.0012711 0.0000652 -0.0001350 0.0004230 -0.0008513 -0.0026085 0.0005676 -0.0000277 -0.0000227 0.0004682 -0.0010555 -0.0003128 -0.0018227 -0.0004612 -0.0004691 0.0001967 -0.0005264 0.0005314 -0.0015228 0.0001350 -0.0006554 -0.0038207 -0.0022331 0.0005849 -0.0007571 0.0001188 -0.0004420 -0.0002068 -0.0006387 0.0069346 -0.0176797 0.0009705 -0.0009490 0.0000928 -0.0002979 -0.0001500 0.0007289 -0.0022143 0.0068206 -0.0014530 0.0011280 -0.0000397 -0.0004791 0.0001030 -0.0004895 0.0001062 -0.0003174 0.0002753 -0.0005777 0.0000803 -0.0006310 0.0005401 -0.0012870
-0.0000280 0.0000447 0.0001086 -0.0000579 0.0000006 0.0000014 0.0000155 0.0002766 -0.0000216 -0.0002099 0.0000292 0.0000934 0.0000723 -0.0000443 0.0000072 -0.0004832 0.0000529 -0.0001421 0.0000356 -0.0000030 -0.0000398 0.0000047 0.0000228 0.0000140 0.0000242 -0.0002317 0.0000402 -0.0000992 -0.0000139 -0.0000470 0.0000057 0.0002828 -0.0000620 0.0002102 -0.0001018 0.0000910 -0.0000038 0.0002456 -0.0007680 0.0007374 -0.0001059 0.0001470 -0.0000045 0.0003967 -0.0002174 0.0001636 -0.0000051 0.0004168 0.0000900 0.0009261 -0.0000398 0.0005084 -0.0000440 0.0003047 -0.0001395 0.0003012 -0.0003128 0.0007265 -0.0001350 0.0001506 -0.0002181 0.0003094 0.0000828 -0.0001506 -0.0001016 -0.0005705 -0.0001415 -0.0003996 -0.0005852 -0.0005103 -0.0005678 0.0005973 -0.0006343 0.0001315 -0.0006397 -0.0006067 -0.0000342 0.0000699 0.0000076 0.0003692 0.0016102 -0.0010231 -0.0002311 0.0006672 0.0000651 0.0006171 0.0000614 0.0007056 -0.0000628 0.0004567 0.0000169 0.0003417 0.0069566 -0.0074214 0.0008911 -0.0014692 -0.0003958 -0.0001503 -0.0013659 0.0004759 0.0004325 -0.0000470 0.0103025 -0.0143953 0.0003322 0.0009882 -0.0001865 0.0011480 -0.0004104 0.0010347 -0.0001955 0.0009881 -0.0002857 0.0005329 -0.0006048 0.0006233 -0.0002777 0.0003102 -0.0000720 -0.0000042 -0.0000252 -0.0005474 -0.0007949 0.0011624 -0.0003103 0.0006194 0.0029186 0.0034808 -0.0120993 0.0101151 0.0203359 -0.0485948 -0.0156657 0.0136225 -0.0002616 0.0004222 0.0032933 -0.0030307 -0.0021031 0.0023479 0.0000217 -0.0000616 0.0000297 -0.0001328 0.0001191 -0.0004536 0.0002248 -0.0006242 -0.0013288 -0.0012891 -0.0015061 0.0020804 0.0000050 -0.0016198 -0.0005299 0.0005531 0.0000683 -0.0000762 0.0003390 -0.0005689 0.0001040 -0.0001112 0.0022807 -0.0021840 0.0000457 -0.0000609 0.0001358 -0.0005246 0.0003728 0.0009622 0.0000925 0.0001526 0.0002579 -0.0013208 0.0001623 -0.0015301 -0.0000388 -0.0005667 0.0001177 -0.0003983 0.0000974 -0.0007320 0.0000957 -0.0006132 -0.0013656 -0.0103292 0.0001536 -0.0003815 0.0000502 -0.0003345 -0.0000276 -0.0005126 0.0090879 -0.0197190 0.0006442 -0.0006384 0.0001668 -0.0002884 -0.0021012 0.0023812 -0.0073764 0.0031047 0.0011620 -0.0011626 0.0000443 -0.0002871 0.0000713 -0.0003847 0.0000734 -0.0002328 0.0002200 -0.0004173 0.0000531 -0.0004744 0.0003559 -0.0009878
-0.0000397 0.0001016 0.0001037 -0.0000259 -0.0000173 0.0000697 -0.0000111 0.0003042 -0.0000256 -0.0001424 0.0000416 0.0001181 0.0000723 -0.0000041 0.0000133 -0.0004522 0.0000381 -0.0001334 0.0000332 -0.0000022 -0.0000345 -0.0000408 0.0000083 0.0000321 -0.0000691 -0.0002054 0.0000415 -0.0001133 0.0000104 -0.0000842 0.0000197 0.0002644 -0.0000492 0.0001783 -0.0000918 0.0000656 -0.0000019 0.0002600 0.0002626 0.0000456 -0.0001014 0.0001085 -0.0001195 0.0004072 -0.0001964 0.0002019 -0.0000001 0.0003734 -0.0000087 0.0010643 -0.0000579 0.0004524 -0.0000456 0.0002134 -0.0000957 0.0002281 -0.0003229 0.0006797 -0.0001214 0.0000784 -0.0002253 0.0002642 -0.0000189 -0.0001644 -0.0000045 -0.0006807 -0.0001895 -0.0004546 0.0000977 -0.0009744 -0.0005523 0.0004658 -0.0005850 -0.0000355 -0.0006477 -0.0003407 0.0000895 -0.0002040 -0.0001633 0.0003681 0.0013090 -0.0020354 -0.0002572 0.0004155 0.0000543 0.0004763 -0.0000769 0.0005431 -0.0002362 0.0003031 0.0001844 0.0000120 -0.0046328 0.0026440 0.0002791 -0.0001522 -0.0007065 0.0002153 -0.0004981 0.0008564 0.0003270 -0.0000123 0.0026562 0.0035048 0.0002331 0.0010110 0.0000645 0.0010097 -0.0004271 0.0010131 -0.0002573 0.0011465 -0.0003042 0.0005257 -0.0001360 0.0001668 -0.0002871 0.0002546 -0.0002488 0.0000903 -0.0000533 -0.0001818 -0.0009283 0.0009298 0.0000589 0.0001292 0.0129089 -0.0123522 -0.0014615 0.0037351 0.0241664 -0.0451825 -0.0048396 0.0030596 -0.0000628 0.0001458 0.0010468 -0.0018921 -0.0005543 0.0011578 -0.0000193 -0.0000967 0.0001108 -0.0003058 -0.0002031 -0.0003481 -0.0001923 -0.0002616 0.0003129 0.0000968 0.0004181 0.0002317 -0.0020952 0.0021873 -0.0027926 0.0021960 0.0001091 -0.0001371 0.0007131 -0.0005626 -0.0002314 -0.0000608 0.0011138 -0.0011134 0.0000199 -0.0001078 0.0001714 -0.0006120 -0.0017902 0.0010544 0.0004838 -0.0005509 0.0000688 -0.0006830 -0.0002738 0.0012315 -0.0005793 -0.0002157 0.0000442 -0.0003999 -0.0002981 -0.0003828 -0.0000093 -0.0006103 -0.0031340 -0.0019420 -0.0000749 -0.0003170 0.0001069 -0.0004715 0.0001133 -0.0004758 0.0022498 -0.0028710 0.0004028 -0.0011253 0.0001138 -0.0002757 -0.0010614 0.0017376 -0.0076946 0.0015289 0.0005388 -0.0005091 -0.0003450 -0.0000055 0.0000716 -0.0003760 -0.0000541 -0.0002058 0.0004295 -0.0007056 0.0001283 -0.0005783 0.0007029 -0.0011208
-0.0000649 0.0001323 0.0001046 -0.0000280 -0.0000151 0.0000886 -0.0000245 0.0003245 -0.0000209 -0.0001119 0.0000371 0.0001326 0.0000780 0.0000090 0.0000142 -0.0004534 0.0000319 -0.0001480 0.0000225 -0.0000022 -0.0000232 -0.0000374 0.0000257 0.0000210 -0.0000870 -0.0002163 0.0000468 -0.0001009 0.0000101 -0.0001002 0.0000359 0.0002905 -0.0000457 0.0001894 -0.0000920 0.0000851 -0.0000083 0.0003172 -0.0001756 0.0008261 -0.0001193 0.0001347 -0.0001463 0.0004705 -0.0003097 0.0003081 0.0000031 0.0003892 -0.0000182 0.0011490 -0.0000663 0.0004889 -0.0000519 0.0002426 -0.0000859 0.0002522 -0.0003373 0.0007007 -0.0000990 0.0000848 -0.0002322 0.0002817 0.0000523 -0.0002692 0.0000541 -0.0007328 -0.0000348 -0.0006373 0.0000142 -0.0002311 -0.0005523 0.0004188 -0.0005564 -0.0000693 -0.0012380 0.0003684 0.0000438 -0.0000664 -0.0001139 0.0002599 -0.0015600 0.0009764 -0.0001002 0.0001499 0.0000116 0.0004789 0.0004009 -0.0002634 -0.0001164 0.0001476 0.0001943 -0.0000062 -0.0040438 0.0037624 0.0010312 -0.0007918 -0.0006966 0.0003398 -0.0031708 0.0018515 -0.0000333 0.0002412 -0.0034396 0.0024198 0.0002169 0.0010572 -0.0001535 0.0013817 -0.0004424 0.0010280 -0.0002554 0.0011088 -0.0003143 0.0005491 -0.0002512 0.0005091 -0.0002664 0.0002551 -0.0003517 0.0001906 -0.0001700 0.0000124 -0.0002297 0.0000334 0.0003554 -0.0006001 0.0104792 0.0006139 0.0055844 -0.0035744 0.0175719 -0.0371066 0.0020310 -0.0025910 0.0001611 -0.0000442 -0.0007862 0.0002793 0.0000825 0.0003599 -0.0000066 -0.0001040 0.0001188 -0.0001974 -0.0002894 -0.0000763 -0.0002014 -0.0003039 -0.0005397 0.0027612 0.0029363 -0.0023569 -0.0026116 0.0003804 -0.0015451 0.0012498 0.0002394 -0.0002318 0.0001958 -0.0001253 0.0001892 -0.0003621 -0.0001521 0.0002882 0.0000522 -0.0001369 0.0003524 -0.0008061 -0.0042386 0.0053601 0.0000390 -0.0000634 0.0000117 -0.0005294 0.0018703 0.0013859 -0.0003488 -0.0004104 -0.0000043 -0.0003669 -0.0001244 -0.0008062 -0.0001142 -0.0005431 -0.0074187 0.0136024 0.0002193 -0.0007868 0.0001351 -0.0004204 0.0005654 -0.0012643 -0.0061241 0.0017042 0.0004844 -0.0013009 0.0000662 -0.0002771 0.0005344 0.0006447 0.0049132 -0.0165623 0.0001187 0.0000201 -0.0001482 -0.0003934 0.0000782 -0.0005094 0.0000447 -0.0003332 0.0001901 -0.0008066 0.0001723 -0.0008273 -0.0008740 0.0005711
-0.0000478 0.0000647 0.0001087 -0.0000729 -0.0000103 0.0000173 -0.0000230 0.0003120 -0.0000214 -0.0001866 0.0000076 0.0000871 0.0000868 -0.0000780 0.0000212 -0.0005497 0.0000462 -0.0001655 0.0000453 -0.0000701 -0.0000063 -0.0001030 0.0000371 -0.0000349 0.0000155 -0.0003384 0.0000530 -0.0002154 -0.0000002 -0.0001959 0.0000438 0.0001923 -0.0000655 0.0000903 -0.0000883 0.0000146 -0.0000238 0.0002352 -0.0003764 0.0011011 -0.0001115 0.0000549 -0.0001476 0.0004718 -0.0003099 0.0002113 0.0000027 0.0003461 -0.0000823 0.0011234 -0.0000522 0.0005216 -0.0000575 0.0002230 -0.0001183 0.0002772 -0.0003476 0.0006853 -0.0001098 0.0000671 -0.0002340 0.0002676 0.0001482 -0.0003485 0.0001129 -0.0008163 0.0001088 -0.0008036 0.0000253 -0.0003251 -0.0005791 0.0003617 -0.0005227 -0.0001199 -0.0014781 0.0003281 -0.0000337 0.0000460 -0.0000228 0.0001367 -0.0021533 0.0030444 -0.0000200 0.0000661 0.0000538 0.0004046 0.0010983 -0.0009706 -0.0002675 0.0002634 0.0000965 0.0000418 -0.0014668 0.0012957 0.0015169 -0.0016800 0.0002935 -0.0005546 -0.0028966 -0.0006481 -0.0000592 0.0002520 -0.0103272 0.0110593 0.0003258 0.0009040 -0.0003479 0.0015631 -0.0004352 0.0010733 -0.0000223 0.0008610 -0.0003212 0.0005736 -0.0003604 0.0007323 -0.0002660 0.0002579 -0.0002620 0.0000834 -0.0000874 -0.0001572 -0.0000721 0.0000070 0.0005901 -0.0005454 -0.0051528 0.0210079 0.0039005 -0.0104528 -0.0002526 -0.0090129 0.0010880 0.0035017 -0.0000454 0.0002020 0.0008680 0.0009591 -0.0017765 0.0011921 -0.0000212 -0.0000570 0.0001376 -0.0001329 0.0001754 -0.0003762 0.0000626 -0.0005135 0.0016968 -0.0014616 0.0003949 -0.0005490 -0.0000483 -0.0005427 0.0016947 -0.0019219 0.0002366 -0.0001701 -0.0000859 0.0002782 0.0007338 -0.0005493 -0.0003449 0.0003922 0.0001275 -0.0002033 -0.0001736 -0.0002888 -0.0040365 0.0054528 0.0002661 -0.0002501 -0.0004480 0.0001492 0.0017639 -0.0001826 -0.0002529 -0.0000628 -0.0000185 -0.0002793 0.0002679 -0.0008441 0.0000390 -0.0004615 -0.0061445 0.0080371 0.0009189 -0.0013361 0.0000103 -0.0002275 0.0001636 -0.0010021 -0.0087677 0.0002992 -0.0000646 -0.0002338 0.0001367 -0.0002441 0.0009421 -0.0000463 -0.0051604 0.0071015 0.0002434 0.0006958 0.0004229 -0.0010099 0.0000959 -0.0004811 0.0001506 -0.0003642 -0.0001225 -0.0003866 0.0001575 -0.0007224 -0.0010026 0.0007646
-0.0000902 0.0000416 0.0001227 -0.0000576 -0.0000299 0.0000833 -0.0000395 0.0003312 -0.0000372 -0.0001499 -0.0000707 0.0001595 0.0000965 -0.0000255 0.0000160 -0.0005208 0.0000532 -0.0001912 0.0000694 -0.0000727 -0.0000175 -0.0000851 0.0000425 -0.0000326 0.0000066 -0.0002956 0.0000572 -0.0001496 -0.0000008 -0.0001678 0.0000366 0.0002348 -0.0000773 0.0001732 -0.0000862 0.0000570 -0.0000442 0.0002324 0.0003175 0.0003048 -0.0001250 0.0000532 -0.0001469 0.0004455 -0.0001465 0.0000860 -0.0000133 0.0003387 -0.0001014 0.0011120 -0.0000372 0.0005607 -0.0000696 0.0002530 -0.0001114 0.0003101 -0.0003649 0.0007140 -0.0001148 0.0001271 -0.0002221 0.0003177 0.0001788 -0.0003257 0.0001434 -0.0008398 -0.0000253 -0.0005587 0.0000604 -0.0006390 -0.0006304 0.0003141 -0.0005807 -0.0000454 -0.0013026 -0.0003335 -0.0000521 0.0000403 -0.0000250 0.0002917 -0.0002808 0.0003275 0.0000546 0.0001282 0.0000918 0.0003662 0.0001092 0.0000351 -0.0001588 0.0001332 0.0001360 0.0000366 -0.0014159 0.0012718 0.0011112 -0.0018364 0.0012705 -0.0016509 0.0079507 -0.0147374 0.0002291 -0.0000140 -0.0089148 0.0201173 0.0004053 0.0009707 -0.0002440 0.0014473 -0.0004896 0.0012371 -0.0001737 0.0009243 -0.0003287 0.0006056 -0.0002085 0.0005602 -0.0002956 0.0002822 -0.0001194 0.0000255 0.0000701 -0.0004919 -0.0003727 0.0004370 0.0002465 -0.0000815 -0.0031533 0.0146331 -0.0064832 0.0040993 -0.0052730 0.0024175 0.0049284 -0.0003027 -0.0001987 0.0002046 0.0006102 0.0012381 0.0002669 0.0000042 -0.0000609 -0.0001186 0.0001239 -0.0002138 0.0001236 -0.0004946 0.0000095 -0.0005017 0.0016763 -0.0021064 -0.0001240 -0.0002285 0.0004453 0.0000699 0.0010192 -0.0017717 0.0001549 -0.0001007 -0.0003673 0.0007916 0.0001600 -0.0001215 0.0008192 -0.0012084 0.0001411 -0.0003613 -0.0001216 -0.0003873 -0.0054034 0.0059200 0.0004547 -0.0009998 -0.0005336 0.0002390 -0.0005122 -0.0011473 -0.0001255 -0.0004081 0.0000426 -0.0004543 0.0004752 -0.0014334 0.0002957 -0.0007502 0.0021726 -0.0028676 0.0005182 -0.0011795 0.0000652 -0.0004634 -0.0005132 -0.0002159 -0.0060668 -0.0059670 0.0000201 -0.0002060 0.0002030 -0.0004089 0.0020535 -0.0003634 -0.0201373 0.0294715 -0.0002001 0.0014952 0.0000541 -0.0004079 0.0001281 -0.0005234 0.0001693 -0.0005244 0.0000384 -0.0004303 0.0001629 -0.0007547 0.0000019 -0.0006451
-0.0001184 -0.0000542 0.0001173 -0.0000644 -0.0000339 0.0000903 -0.0000521 0.0003654 -0.0000521 -0.0001290 -0.0001242 0.0001366 0.0001030 -0.0000248 0.0000094 -0.0005331 0.0000763 -0.0002118 0.0000815 -0.0000767 -0.0000095 -0.0001170 0.0000303 -0.0000179 0.0000640 -0.0003534 0.0000584 -0.0001209 0.0000111 -0.0001787 0.0000195 0.0002221 -0.0000706 0.0002055 -0.0000811 0.0000776 -0.0000700 0.0001804 0.0000340 0.0002766 -0.0001422 0.0000692 -0.0000936 0.0003690 -0.0001618 0.0001070 -0.0000266 0.0003075 -0.0001886 0.0010678 -0.0000521 0.0006761 -0.0000699 0.0003802 -0.0000941 0.0003200 -0.0003727 0.0007579 -0.0000953 0.0001649 -0.0002220 0.0003596 0.0002227 -0.0004034 0.0001115 -0.0008340 0.0000467 -0.0005786 -0.0000634 -0.0005670 -0.0006946 0.0003248 -0.0007154 0.0000511 -0.0005469 -0.0012310 -0.0000203 0.0000153 -0.0001397 0.0004832 -0.0010523 -0.0009422 0.0000538 0.0001937 0.0000730 0.0004344 -0.0004803 0.0003652 -0.0000245 0.0001728 0.0001118 0.0001985 -0.0000362 -0.0017395 -0.0002768 -0.0003937 0.0005401 -0.0012174 0.0101552 -0.0166440 0.0001801 0.0000629 0.0080867 0.0000398 0.0004060 0.0012698 -0.0001849 0.0014464 -0.0005555 0.0013428 -0.0003070 0.0010074 -0.0003417 0.0006654 -0.0001790 0.0004622 -0.0003348 0.0003654 -0.0001572 0.0001337 0.0001194 -0.0006614 -0.0006882 0.0006287 -0.0001914 -0.0000395 0.0032361 -0.0018968 -0.0067786 0.0070885 -0.0018156 0.0055384 -0.0000515 0.0048395 -0.0002110 0.0003023 -0.0025521 0.0041675 0.0015465 -0.0003441 -0.0001138 0.0000711 0.0000320 -0.0001274 -0.0001115 0.0000134 -0.0000597 -0.0003543 -0.0007577 -0.0001197 0.0004309 -0.0002778 0.0003927 -0.0007440 0.0004060 -0.0007550 0.0000657 0.0000527 -0.0010755 0.0013398 -0.0002773 0.0003305 0.0009673 -0.0015221 0.0001145 -0.0002038 0.0003893 -0.0008485 0.0011940 -0.0002232 -0.0000305 -0.0002280 -0.0000771 -0.0002327 0.0002786 -0.0011612 -0.0004344 0.0001107 0.0000472 -0.0003934 -0.0001015 -0.0013523 0.0003647 -0.0004744 0.0011960 -0.0050363 0.0001668 -0.0007514 0.0002183 -0.0005430 0.0006247 -0.0009020 -0.0058053 -0.0070030 0.0002943 -0.0004525 0.0001740 -0.0003305 0.0027831 -0.0001753 -0.0207157 0.0221399 0.0000164 0.0014364 -0.0000208 -0.0001917 0.0000747 -0.0003647 0.0000701 -0.0004122 -0.0000999 0.0000111 0.0001207 -0.0006028 -0.0000407 -0.0005874
-0.0001282 0.0000200 0.0001146 -0.0000256 -0.0000516 0.0001525 -0.0000516 0.0005070 -0.0000475 0.0000643 -0.0001530 0.0002632 0.0001014 0.0000182 0.0000020 -0.0004348 0.0000622 -0.0001870 0.0000590 -0.0000413 -0.0000335 -0.0000889 0.0000166 0.0000383 -0.0000177 -0.0003486 0.0000635 -0.0000353 0.0000169 -0.0001216 0.0000087 0.0002566 -0.0000723 0.0002498 -0.0000941 0.0001127 -0.0000846 0.0001282 -0.0003073 0.0003957 -0.0001401 0.0000607 -0.0001054 0.0002579 -0.0002751 0.0002740 -0.0000342 0.0002685 -0.0000794 0.0009238 -0.0000543 0.0007596 -0.0000592 0.0004371 -0.0000776 0.0002783 -0.0003706 0.0007522 -0.0001018 0.0001136 -0.0002396 0.0003193 0.0001505 -0.0004302 0.0000503 -0.0008186 0.0000403 -0.0006103 0.0001841 -0.0008284 -0.0007287 0.0002560 -0.0008217 -0.0000134 -0.0003728 -0.0016209 0.0000286 -0.0001956 -0.0001224 0.0003765 0.0014128 -0.0027563 0.0001860 -0.0000552 0.0000358 0.0004207 -0.0004263 0.0001971 -0.0000165 0.0002262 0.0001315 0.0001969 0.0002076 -0.0045703 -0.0013816 0.0013604 0.0009103 -0.0015374 0.0040039 -0.0075013 -0.0000098 0.0003336 0.0150488 -0.0212003 0.0004764 0.0011267 -0.0004166 0.0014511 -0.0005538 0.0012707 0.0000193 0.0007196 -0.0003626 0.0006478 -0.0002842 0.0004260 -0.0003476 0.0002657 -0.0001883 0.0000566 -0.0000256 -0.0004916 -0.0003549 0.0001442 -0.0003204 -0.0001674 -0.0059780 -0.0098879 -0.0012228 -0.0038132 -0.0100263 0.0217729 -0.0045152 0.0067036 -0.0000625 0.0001229 -0.0003031 0.0010676 0.0014240 -0.0013513 -0.0000375 -0.0000542 -0.0000299 -0.0001316 -0.0001820 0.0001111 0.0000589 -0.0004326 -0.0022633 0.0007949 -0.0002854 0.0004006 0.0026174 -0.0016015 0.0003496 -0.0002556 0.0000504 0.0001531 -0.0013516 0.0014068 -0.0002853 0.0004534 0.0006454 -0.0007670 0.0001032 -0.0001123 0.0004557 -0.0010577 0.0032469 -0.0034798 -0.0001849 0.0001653 -0.0002520 -0.0003916 0.0021441 -0.0010941 -0.0009966 0.0005609 0.0000111 -0.0003586 0.0000625 -0.0011661 0.0005182 -0.0004740 -0.0030405 -0.0023904 0.0007636 -0.0011274 0.0000234 -0.0002997 0.0008231 -0.0011768 0.0001602 -0.0066444 -0.0005202 0.0002615 0.0001262 -0.0002904 0.0009072 0.0008118 0.0075232 -0.0112540 -0.0013091 0.0024564 0.0001738 -0.0004725 0.0000701 -0.0003085 0.0000147 -0.0003643 0.0000418 -0.0002224 0.0001056 -0.0004750 -0.0003350 -0.0000776
-0.0001491 0.0000682 0.0001292 -0.0000290 -0.0000653 0.0001861 -0.0000443 0.0005673 -0.0000169 0.0002147 -0.0001765 0.0003007 0.0001034 0.0000464 -0.0000018 -0.0003842 0.0000647 -0.0001717 0.0000500 -0.0000174 -0.0000423 -0.0000837 0.0000021 0.0000714 -0.0000261 -0.0003379 0.0000691 0.0000658 0.0000056 -0.0000393 0.0000024 0.0003499 -0.0000790 0.0003516 -0.0001383 0.0002035 -0.0000930 0.0001429 0.0001140 0.0004989 -0.0001590 0.0001174 -0.0000168 0.0001646 -0.0002419 0.0002935 -0.0000475 0.0003145 0.0000850 0.0008487 -0.0000520 0.0008217 -0.0000751 0.0005211 -0.0000835 0.0003292 -0.0003803 0.0007850 -0.0000973 0.0002064 -0.0002542 0.0003533 0.0000309 -0.0003198 0.0000211 -0.0007324 -0.0000698 -0.0004175 0.0000541 -0.0005347 -0.0007802 0.0002414 -0.0007918 0.0000375 -0.0014042 -0.0005579 -0.0000037 -0.0000681 -0.0001002 0.0004315 0.0017741 -0.0013240 0.0001771 0.0001056 -0.0000236 0.0003955 -0.0003009 0.0001492 0.0001165 0.0000079 0.0001567 0.0002311 -0.0044655 0.0031321 -0.0007423 0.0006639 0.0013195 -0.0018954 -0.0036056 -0.0002903 0.0000530 0.0003043 -0.0024410 0.0037950 0.0004323 0.0011823 -0.0005097 0.0015628 -0.0005562 0.0013306 -0.0000571 0.0007993 -0.0003805 0.0007086 -0.0005112 0.0007635 -0.0003557 0.0003492 -0.0002507 0.0001714 -0.0001222 -0.0005755 0.0001635 0.0001248 -0.0003027 0.0002075 -0.0010789 -0.0168003 -0.0033593 -0.0017732 -0.0011243 0.0084783 0.0031688 -0.0019708 -0.0001297 0.0002843 0.0006060 -0.0012675 0.0001135 -0.0011037 -0.0000407 0.0000062 -0.0000452 0.0000135 -0.0001041 0.0001677 0.0001703 -0.0003724 0.0010158 -0.0009230 -0.0008540 0.0014678 0.0001933 0.0019654 0.0005303 -0.0015444 0.0001411 0.0001951 -0.0001114 0.0008022 -0.0001905 0.0006347 -0.0002816 0.0001022 0.0000828 0.0000509 0.0000095 -0.0005668 0.0000644 -0.0018752 0.0002040 0.0001324 -0.0000437 -0.0008119 -0.0004076 0.0023127 -0.0001041 -0.0005507 0.0000053 -0.0003026 0.0002339 -0.0010531 0.0002900 -0.0003065 -0.0036206 0.0001442 0.0005192 -0.0009509 -0.0000027 -0.0001777 -0.0001858 -0.0005207 0.0173012 -0.0276281 -0.0001542 -0.0003188 0.0001869 -0.0004036 0.0000283 0.0010416 0.0041497 0.0039162 0.0005583 0.0011837 0.0000850 -0.0003561 0.0000795 -0.0003433 0.0000844 -0.0004697 0.0000941 -0.0005355 0.0000696 -0.0005079 0.0000171 -0.0000462
-0.0001416 0.0000183 0.0001139 -0.0000618 -0.0000618 0.0001229 -0.0000443 0.0005731 0.0000181 0.0002107 -0.0001647 0.0001777 0.0000961 -0.0000290 0.0000043 -0.0004473 0.0000853 -0.0001875 0.0000539 -0.0000583 -0.0000232 -0.0001669 0.0000080 0.0000261 0.0000055 -0.0004467 0.0000681 -0.0000186 -0.0000057 -0.0000725 -0.0000037 0.0002860 -0.0000939 0.0002904 -0.0001534 0.0001509 -0.0001033 0.0000748 0.0006795 0.0002594 -0.0001797 0.0001055 -0.0000421 0.0002368 -0.0002111 0.0000969 -0.0000572 0.0002809 -0.0001345 0.0010313 -0.0000147 0.0008243 -0.0000774 0.0005387 -0.0001175 0.0003633 -0.0003976 0.0007787 -0.0000925 0.0002078 -0.0002707 0.0003498 -0.0000830 -0.0003388 0.0000719 -0.0008319 -0.0000736 -0.0004693 -0.0000669 -0.0005706 -0.0007983 0.0002167 -0.0007372 0.0000627 -0.0017653 -0.0000038 -0.0000109 -0.0000328 -0.0002044 0.0004563 0.0004661 0.0010299 -0.0001332 0.0004101 -0.0000408 0.0002641 0.0003574 -0.0006121 0.0000214 0.0001444 0.0000561 0.0001995 -0.0068218 0.0078568 -0.0009801 0.0004987 -0.0001527 -0.0007685 -0.0068584 0.0022581 -0.0001152 0.0002284 -0.0022945 0.0107524 0.0003416 0.0011512 -0.0001771 0.0013970 -0.0005635 0.0013914 -0.0001161 0.0007791 -0.0003702 0.0006936 -0.0002853 0.0005404 -0.0003783 0.0003864 -0.0002511 0.0001607 -0.0000630 -0.0005730 0.0002221 0.0001078 -0.0001571 0.0003222 0.0121763 -0.0338701 -0.0052174 0.0108853 0.0064763 -0.0031034 0.0013388 -0.0027183 -0.0002834 0.0003638 -0.0028877 0.0010473 0.0008288 -0.0014252 -0.0001356 0.0001364 -0.0000971 0.0002145 -0.0000705 -0.0000877 0.0001367 -0.0003881 0.0034399 -0.0039623 -0.0011540 0.0016524 0.0028790 -0.0015058 0.0006564 -0.0021483 0.0002082 0.0001368 0.0002788 0.0006917 -0.0001228 0.0005882 -0.0011461 0.0003794 0.0001022 0.0000364 -0.0000511 -0.0004735 0.0060177 -0.0083017 0.0004620 -0.0001997 0.0002143 -0.0009630 -0.0009831 0.0014460 -0.0004573 0.0001647 0.0000623 -0.0003545 -0.0002939 -0.0007562 0.0000013 0.0001509 0.0013700 -0.0023780 0.0000868 -0.0005875 0.0002011 -0.0002841 0.0002004 -0.0008495 0.0108019 -0.0159295 -0.0005384 0.0001191 0.0001312 -0.0003290 -0.0007968 0.0015681 -0.0048702 0.0135886 0.0011537 0.0005368 0.0000476 -0.0007993 0.0000719 -0.0002178 0.0000337 -0.0003562 -0.0001609 -0.0000750 0.0000551 -0.0003866 -0.0008450 0.0010852
-0.0001429 0.0000536 0.0001142 -0.0000577 -0.0000605 0.0001288 -0.0000477 0.0006304 0.0000231 0.0002758 -0.0001437 0.0002095 0.0000998 -0.0000319 -0.0000017 -0.0004013 0.0000572 -0.0001505 0.0000415 -0.0000292 -0.0000277 -0.0001464 0.0000160 0.0000280 -0.0000692 -0.0003549 0.0000604 0.0000412 -0.0000038 -0.0000310 -0.0000087 0.0003621 -0.0000973 0.0003343 -0.0001545 0.0001815 -0.0001135 0.0001326 -0.0002040 0.0007375 -0.0001622 0.0001129 -0.0001684 0.0003749 -0.0001366 0.0000702 -0.0000635 0.0003095 -0.0000911 0.0010346 -0.0000168 0.0008618 -0.0000706 0.0005685 -0.0001096 0.0003725 -0.0004115 0.0008078 -0.0001074 0.0002432 -0.0002949 0.0003986 -0.0000471 -0.0003398 0.0000306 -0.0008206 -0.0000939 -0.0003655 -0.0002738 -0.0005453 -0.0008031 0.0002824 -0.0007553 0.0000758 -0.0012140 -0.0005702 -0.0000204 0.0000035 -0.0001361 0.0003754 0.0018288 -0.0014206 -0.0002525 0.0003990 -0.0000595 0.0003254 0.0001600 -0.0007549 0.0001655 0.0000896 -0.0000596 0.0003461 -0.0050187 0.0066437 -0.0003480 0.0006259 -0.0001918 -0.0004634 0.0013144 -0.0051137 -0.0000930 0.0002029 -0.0149330 0.0207717 0.0002183 0.0010803 -0.0003614 0.0014287 -0.0005781 0.0014129 -0.0003185 0.0008093 -0.0003870 0.0007015 -0.0002545 0.0005783 -0.0003854 0.0003667 -0.0003010 0.0001440 -0.0001284 -0.0005347 0.0001197 0.0001064 -0.0008127 0.0011154 0.0074280 -0.0106642 -0.0153331 0.0229987 0.0056449 -0.0045666 -0.0116546 0.0079534 -0.0000632 -0.0000213 -0.0040997 0.0019040 0.0015901 -0.0018820 -0.0001558 -0.0000183 -0.0002007 0.0002746 -0.0000775 -0.0003639 0.0000922 -0.0004758 0.0006766 -0.0037107 0.0002590 -0.0005600 0.0046592 -0.0040809 0.0012127 -0.0020896 0.0000106 0.0002981 -0.0009831 0.0016843 0.0001864 -0.0001287 -0.0005803 0.0001588 0.0001283 -0.0002036 -0.0000582 -0.0006425 0.0096644 -0.0084579 0.0006394 -0.0007582 0.0008963 -0.0015597 0.0009145 -0.0030382 -0.0007578 0.0008897 0.0001421 -0.0005570 0.0001577 -0.0018587 0.0000464 -0.0000515 -0.0006355 -0.0013395 0.0002119 -0.0006831 0.0002317 -0.0003109 0.0001544 -0.0007654 -0.0016436 0.0053036 -0.0006205 0.0001347 0.0001065 -0.0003631 0.0006308 -0.0005446 0.0005544 0.0051747 -0.0012409 0.0013423 0.0002938 -0.0010468 0.0000981 -0.0002532 0.0000170 -0.0003883 0.0000054 -0.0002474 0.0001001 -0.0004668 -0.0008971 0.0011747
-0.0001346 0.0000166 0.0001257 -0.0000962 -0.0000585 0.0000910 -0.0000365 0.0006337 0.0000088 0.0002438 -0.0001347 0.0001762 0.0001071 -0.0000875 0.0000005 -0.0004309 0.0000497 -0.0001164 0.0000386 -0.0000138 -0.0000525 -0.0001276 -0.0000210 0.0000505 -0.0000931 -0.0002799 0.0000551 0.0000241 0.0000069 -0.0000615 0.0000025 0.0003675 -0.0000759 0.0002766 -0.0001421 0.0001723 -0.0001041 0.0001816 -0.0009802 0.0014449 -0.0001384 0.0001026 -0.0001082 0.0003421 -0.0000727 0.0000156 -0.0000587 0.0003627 0.0000611 0.0009029 -0.0000546 0.0008837 -0.0000706 0.0005514 -0.0001241 0.0003802 -0.0004271 0.0008150 -0.0001247 0.0002346 -0.0003052 0.0004110 0.0000919 -0.0004062 -0.0000760 -0.0006777 -0.0000063 -0.0004943 -0.0003603 -0.0002960 -0.0007987 0.0003366 -0.0008813 0.0001760 -0.0009443 -0.0006763 -0.0000786 0.0000495 -0.0000211 0.0003042 0.0041172 -0.0045493 -0.0002012 0.0002804 -0.0000444 0.0004232 -0.0006016 0.0001718 0.0000728 -0.0000636 0.0000222 0.0002600 -0.0021999 0.0026317 0.0004972 0.0000797 0.0001348 -0.0008116 0.0034967 -0.0049285 -0.0001602 0.0003037 -0.0049656 0.0028030 0.0001881 0.0010972 -0.0005138 0.0015765 -0.0005930 0.0014131 -0.0005745 0.0011330 -0.0004125 0.0007531 -0.0004960 0.0008289 -0.0003970 0.0004338 -0.0002138 0.0000856 -0.0000985 -0.0006990 -0.0002703 0.0006375 -0.0006860 0.0011123 -0.0038322 0.0117465 -0.0076956 0.0051765 0.0101415 -0.0187275 -0.0061047 0.0075338 0.0000198 0.0000992 0.0000152 -0.0017793 -0.0004876 -0.0000834 -0.0000966 -0.0000602 -0.0002446 0.0004053 0.0000902 -0.0002730 0.0001289 -0.0003880 -0.0009691 -0.0016409 0.0004178 -0.0004374 -0.0015942 0.0005082 -0.0004267 -0.0005124 -0.0000822 0.0004434 -0.0008647 0.0015187 0.0004093 -0.0003153 0.0002081 0.0002220 0.0001246 -0.0001579 0.0000198 -0.0006420 0.0060872 -0.0046418 0.0003991 -0.0003895 0.0009952 -0.0007871 0.0032023 -0.0049347 0.0000780 -0.0001621 0.0000991 -0.0004348 0.0004414 -0.0019625 0.0000729 -0.0000117 0.0020025 -0.0102042 -0.0001645 -0.0002582 0.0002465 -0.0001996 0.0002889 -0.0008832 0.0006197 0.0038273 -0.0006575 0.0000027 0.0001773 -0.0003378 0.0022299 -0.0019115 -0.0070014 0.0081315 0.0021130 -0.0015330 0.0000380 -0.0005927 0.0000655 -0.0001380 0.0001389 -0.0004315 0.0001193 -0.0001850 0.0001442 -0.0003807 0.0001383 -0.0001105
-0.0001537 0.0000673 0.0001091 -0.0000509 -0.0000799 0.0001455 -0.0000247 0.0006678 0.0000064 0.0002661 -0.0000971 0.0001971 0.0001014 -0.0000541 0.0000008 -0.0003835 0.0000243 -0.0001226 0.0000302 0.0000248 -0.0000419 -0.0000864 -0.0000300 0.0000796 -0.0000335 -0.0004055 0.0000521 0.0000994 -0.0000039 0.0000152 0.0000160 0.0004594 -0.0000786 0.0003248 -0.0001505 0.0002237 -0.0000952 0.0002885 -0.0004905 0.0014709 -0.0001481 0.0001581 -0.0000264 0.0003245 -0.0002089 0.0001845 -0.0000526 0.0004343 -0.0000561 0.0010518 -0.0000634 0.0009444 -0.0000635 0.0005457 -0.0001408 0.0003888 -0.0004502 0.0008343 -0.0001318 0.0001972 -0.0003154 0.0004276 0.0001310 -0.0003701 -0.0000720 -0.0006847 -0.0000162 -0.0004820 0.0000326 -0.0006294 -0.0007734 0.0002908 -0.0008082 0.0000665 -0.0012968 -0.0002758 -0.0001435 0.0000292 -0.0000784 0.0003889 0.0053893 -0.0064090 -0.0000467 0.0001442 -0.0000441 0.0004128 -0.0005590 0.0002766 -0.0000207 -0.0000758 0.0001292 0.0000177 0.0010751 -0.0031433 0.0004190 0.0001165 -0.0006116 -0.0003334 0.0010691 -0.0006336 -0.0002407 0.0002856 0.0011119 -0.0079237 0.0002026 0.0010295 -0.0002990 0.0012959 -0.0006226 0.0014158 -0.0003303 0.0009272 -0.0004464 0.0007644 -0.0004516 0.0005089 -0.0004152 0.0003939 -0.0000018 -0.0000865 -0.0000349 -0.0007837 -0.0008341 0.0009196 0.0003572 -0.0006973 -0.0087776 0.0134260 0.0048466 0.0036142 -0.0061184 0.0063991 0.0011040 0.0001027 -0.0002024 0.0002757 -0.0004072 -0.0016377 -0.0002461 -0.0003034 -0.0000309 -0.0001791 -0.0001726 0.0003783 0.0000607 -0.0003198 0.0000595 -0.0003720 0.0005242 0.0010254 -0.0002760 0.0001215 -0.0023053 -0.0004592 -0.0026102 0.0015466 0.0000672 0.0003413 -0.0007554 0.0012990 0.0001490 -0.0000360 0.0006543 -0.0007318 0.0000821 -0.0000990 0.0000875 -0.0008192 -0.0019527 -0.0017098 0.0000394 -0.0000086 -0.0003630 -0.0002447 0.0012999 -0.0034711 0.0000034 -0.0006228 -0.0000397 -0.0003044 0.0002052 -0.0012539 0.0000768 -0.0000057 0.0066105 -0.0056509 -0.0001233 -0.0006342 0.0001705 -0.0000623 0.0003236 -0.0009574 0.0019038 0.0017712 0.0004797 -0.0007832 0.0001291 -0.0002477 -0.0004057 0.0010818 -0.0158413 0.0138536 0.0028695 -0.0009110 -0.0004031 -0.0000043 0.0000328 -0.0000508 0.0001538 -0.0003592 -0.0000369 0.0000851 0.0001817 -0.0003136 0.0007123 -0.0010077
-0.0001751 0.0001234 0.0001150 -0.0000327 -0.0000770 0.0001666 -0.0000275 0.0006931 0.0000055 0.0003052 -0.0000910 0.0002144 0.0001138 -0.0000317 0.0000028 -0.0003368 0.0000202 -0.0001205 0.0000163 0.0000619 -0.0000565 -0.0000456 -0.0000187 0.0000972 -0.0000465 -0.0003688 0.0000488 0.0001624 -0.0000060 0.0000864 0.0000259 0.0005464 -0.0000755 0.0003734 -0.0001666 0.0002666 -0.0000939 0.0003703 -0.0002717 0.0013943 -0.0001540 0.0002026 0.0000064 0.0002777 -0.0002359 0.0003042 -0.0000559 0.0004867 -0.0001503 0.0011609 -0.0000707 0.0010220 -0.0000616 0.0005978 -0.0001626 0.0004483 -0.0004605 0.0008677 -0.0001386 0.0002416 -0.0003177 0.0004856 0.0000986 -0.0002732 0.0000067 -0.0008114 -0.0000694 -0.0003090 0.0000367 -0.0007404 -0.0007728 0.0003103 -0.0008775 0.0001234 -0.0015042 -0.0001836 -0.0001309 0.0001012 -0.0001834 0.0005285 0.0041324 -0.0067574 0.0002026 -0.0000477 -0.0000640 0.0005182 -0.0001980 -0.0000253 0.0001233 -0.0001165 0.0001006 0.0001316 0.0026794 -0.0036750 0.0009336 -0.0000112 -0.0003089 -0.0000452 0.0009319 -0.0003429 0.0000204 0.0000968 -0.0117944 0.0092810 0.0003060 0.0010067 -0.0003359 0.0012885 -0.0006503 0.0014749 -0.0000300 0.0007821 -0.0004875 0.0008201 -0.0005701 0.0005673 -0.0004179 0.0004454 -0.0000191 0.0000136 -0.0001152 -0.0006923 -0.0005869 0.0005022 -0.0004397 0.0005480 0.0090740 -0.0153972 0.0018238 0.0020948 -0.0083982 0.0067855 -0.0051294 0.0052775 -0.0001782 0.0002277 0.0004058 -0.0001839 -0.0010871 0.0010119 -0.0000517 -0.0000422 0.0000040 0.0003110 -0.0000772 -0.0002109 -0.0000486 -0.0001679 -0.0005484 0.0012417 -0.0011180 0.0004433 0.0009908 -0.0016829 0.0003942 -0.0012203 0.0002081 0.0003442 -0.0008331 0.0013901 0.0000613 0.0004150 -0.0006710 0.0000833 0.0000785 0.0000230 -0.0002735 -0.0004312 -0.0010195 -0.0015612 0.0000549 0.0001778 -0.0005567 -0.0007418 -0.0010391 -0.0003654 -0.0008058 -0.0002745 -0.0000751 -0.0001789 -0.0008083 -0.0006516 0.0002458 -0.0004386 -0.0013474 0.0040635 0.0001614 -0.0006472 0.0001253 0.0000328 -0.0001384 -0.0003916 0.0093644 -0.0054917 0.0010704 -0.0009474 0.0001418 -0.0002174 -0.0011302 0.0020694 -0.0090746 0.0155059 -0.0002072 0.0017345 -0.0006483 0.0002246 0.0000267 -0.0000474 0.0000870 -0.0002407 -0.0002142 0.0002031 0.0001465 -0.0003643 0.0015390 -0.0014342
-0.0001447 0.0000776 0.0001257 -0.0000684 -0.0000668 0.0001190 -0.0000414 0.0006795 -0.0000006 0.0002719 -0.0000680 0.0000988 0.0001173 -0.0000901 0.0000163 -0.0003788 0.0000437 -0.0001272 -0.0000102 0.0000557 -0.0000280 -0.0001065 -0.0000195 0.0000713 -0.0000784 -0.0003197 0.0000535 0.0000329 0.0000077 0.0000024 0.0000371 0.0004248 -0.0000505 0.0002100 -0.0001470 0.0001578 -0.0000825 0.0002922 -0.0004755 0.0014399 -0.0001321 0.0001012 -0.0001254 0.0002938 -0.0002251 0.0001710 -0.0000496 0.0004110 -0.0002074 0.0011342 -0.0000491 0.0009228 -0.0000615 0.0004933 -0.0001663 0.0004027 -0.0004718 0.0008003 -0.0001282 0.0001227 -0.0003134 0.0004335 0.0000051 -0.0002467 -0.0000163 -0.0008644 -0.0001150 -0.0004408 0.0000329 -0.0002723 -0.0007831 0.0002994 -0.0010790 0.0003180 -0.0019885 0.0001330 -0.0000734 -0.0000720 -0.0001624 0.0003939 -0.0015463 0.0002758 0.0002061 -0.0000864 -0.0000216 0.0005533 0.0000469 -0.0001154 0.0002501 -0.0001959 -0.0000020 0.0002995 -0.0015991 0.0026610 0.0001777 0.0002158 0.0002367 -0.0002967 -0.0005413 0.0042198 0.0004660 -0.0003220 -0.0200769 0.0244468 0.0002664 0.0009945 -0.0002231 0.0009725 -0.0006637 0.0014534 -0.0001651 0.0010285 -0.0004797 0.0007772 -0.0006775 0.0007199 -0.0004231 0.0004384 -0.0000865 -0.0000058 -0.0001989 -0.0004153 -0.0005774 0.0004716 -0.0010096 0.0017626 0.0233757 -0.0568008 -0.0027985 -0.0084718 0.0040347 -0.0222514 -0.0101234 0.0097041 0.0001944 -0.0002190 0.0030225 -0.0032927 -0.0000510 0.0008910 -0.0000787 0.0000288 0.0000848 0.0003337 0.0000357 -0.0003627 -0.0001534 -0.0000820 -0.0007614 0.0013896 -0.0005972 0.0000229 0.0013748 -0.0000585 0.0000698 -0.0009275 0.0002238 0.0004182 0.0001317 0.0005887 0.0000226 0.0005389 -0.0011326 0.0006795 0.0000715 0.0001133 -0.0001132 -0.0002955 -0.0007135 0.0012997 -0.0002527 0.0002117 0.0005648 -0.0011684 -0.0015032 0.0013300 -0.0006475 -0.0002493 0.0000635 -0.0002966 -0.0008188 -0.0004218 0.0002259 -0.0005378 0.0076693 -0.0164228 0.0001339 -0.0003228 0.0001495 0.0000223 0.0000712 -0.0006544 0.0085611 0.0006475 0.0003185 -0.0003596 0.0001468 -0.0001364 -0.0007811 0.0017312 -0.0058852 0.0044102 -0.0004224 0.0015471 -0.0002031 -0.0002719 0.0000410 0.0000111 0.0000278 -0.0001351 -0.0002760 0.0002278 0.0001081 -0.0001757 0.0000981 0.0004704
-0.0001332 0.0001134 0.0001273 -0.0000455 -0.0000757 0.0001640 -0.0000486 0.0006920 -0.0000107 0.0003240 -0.0000718 0.0001439 0.0001133 -0.0000442 0.0000112 -0.0003102 0.0000130 -0.0000776 -0.0000207 0.0000969 -0.0000134 -0.0000615 -0.0000312 0.0000859 -0.0000982 -0.0002312 0.0000481 0.0001291 -0.0000252 0.0001032 0.0000364 0.0005160 -0.0000504 0.0002767 -0.0001584 0.0002183 -0.0000775 0.0003686 -0.0006985 0.0015431 -0.0001402 0.0001423 -0.0001992 0.0004041 -0.0001991 0.0001208 -0.0000431 0.0004485 -0.0004912 0.0012947 -0.0000497 0.0009094 -0.0000668 0.0004827 -0.0001164 0.0003571 -0.0004893 0.0008365 -0.0001078 0.0001361 -0.0003250 0.0004716 -0.0001413 -0.0000315 -0.0000842 -0.0006979 -0.0002575 -0.0002792 0.0003024 -0.0003632 -0.0008100 0.0003611 -0.0010340 0.0003412 -0.0019237 0.0002233 0.0000430 -0.0001735 -0.0000197 0.0003215 -0.0035273 0.0037858 -0.0002836 0.0005337 0.0000201 0.0006330 -0.0002018 0.0001973 0.0002881 0.0000442 0.0000019 0.0004790 -0.0108034 0.0119200 -0.0006765 0.0004386 0.0003158 -0.0005790 -0.0028011 0.0039843 0.0002423 -0.0000278 -0.0229551 0.0313316 0.0001895 0.0011334 -0.0002406 0.0007572 -0.0006709 0.0014036 -0.0002311 0.0008406 -0.0005099 0.0007713 -0.0005798 0.0006552 -0.0004237 0.0003637 -0.0001300 -0.0000118 -0.0002239 -0.0003072 -0.0007953 0.0007983 -0.0002705 0.0010778 -0.0124729 0.0121942 -0.0006399 -0.0131303 -0.0078123 0.0015065 -0.0013695 0.0022196 0.0001399 -0.0003128 0.0003324 -0.0011099 0.0010817 -0.0011066 -0.0000851 -0.0001436 -0.0000233 0.0003707 -0.0004632 -0.0000644 -0.0001353 -0.0002123 -0.0014206 0.0029468 0.0005378 -0.0008790 0.0004848 0.0010274 -0.0035780 0.0025536 0.0001767 0.0004434 -0.0008034 0.0008581 -0.0003222 0.0003271 0.0002485 -0.0004333 0.0000842 0.0000439 0.0002069 -0.0008203 -0.0076728 0.0065636 0.0003466 -0.0007444 0.0008314 -0.0015322 -0.0055623 0.0032502 -0.0002176 -0.0002307 0.0000587 -0.0004210 0.0003750 -0.0015268 0.0000404 -0.0004226 0.0211021 -0.0425431 0.0000206 -0.0004108 0.0000436 -0.0000140 0.0001408 -0.0008209 0.0015956 0.0072962 0.0010327 -0.0012988 0.0001134 -0.0002334 -0.0011116 0.0010145 0.0065980 -0.0423024 0.0007785 0.0005956 0.0006862 -0.0011611 0.0000869 -0.0001349 0.0000125 -0.0001780 0.0000756 -0.0002484 0.0001223 -0.0002786 -0.0006120 0.0010018
-0.0001192 0.0000756 0.0001297 -0.0000728 -0.0000542 0.0000940 -0.0000291 0.0006492 -0.0000122 0.0002692 -0.0000383 0.0000861 0.0001156 -0.0000851 0.0000105 -0.0003472 0.0000204 -0.0000283 -0.0000097 0.0000801 -0.0000363 -0.0000601 -0.0000515 0.0000882 -0.0001782 -0.0000598 0.0000374 0.0000666 -0.0000456 0.0000461 0.0000337 0.0004627 -0.0000672 0.0002341 -0.0001612 0.0001934 -0.0000788 0.0003248 -0.0000079 0.0007478 -0.0001568 0.0001570 -0.0000276 0.0002335 -0.0002467 0.0001013 -0.0000435 0.0004391 -0.0004053 0.0011292 -0.0000521 0.0008884 -0.0000709 0.0004167 -0.0001079 0.0003598 -0.0004986 0.0008397 -0.0000936 0.0001061 -0.0003313 0.0004737 -0.0001444 -0.0000112 -0.0000172 -0.0006839 -0.0002648 -0.0003244 -0.0002158 -0.0002683 -0.0008161 0.0003683 -0.0009842 0.0001816 -0.0012954 -0.0005644 0.0000592 -0.0001592 -0.0000581 0.0003787 0.0010913 -0.0006767 -0.0005272 0.0007504 0.0000396 0.0006673 -0.0003641 0.0003143 0.0000366 0.0002009 0.0001388 0.0004265 -0.0025364 0.0045109 -0.0006578 0.0002661 -0.0009191 -0.0000504 -0.0024715 0.0034127 -0.0001041 0.0003199 -0.0087862 0.0190671 0.0003115 0.0011318 -0.0005046 0.0010223 -0.0006793 0.0013757 -0.0002760 0.0007602 -0.0005416 0.0007918 -0.0004906 0.0006566 -0.0004049 0.0003539 -0.0002077 0.0000956 -0.0001334 -0.0002858 -0.0002603 0.0005192 -0.0001986 0.0005325 -0.0195327 0.0244370 -0.0064655 0.0028919 0.0032157 -0.0029538 -0.0012239 0.0044508 -0.0001899 0.0000332 0.0014105 -0.0012541 -0.0007787 -0.0002925 -0.0000878 -0.0000614 -0.0000824 0.0003806 -0.0006719 0.0002814 -0.0002304 -0.0000755 -0.0041066 0.0034765 0.0006845 -0.0006796 -0.0048215 0.0037655 -0.0029243 0.0017600 0.0002399 0.0004125 -0.0012134 0.0012264 -0.0000255 0.0002320 0.0002962 -0.0008228 0.0001137 0.0000836 0.0004203 -0.0010406 -0.0020389 0.0027695 0.0003871 -0.0006947 -0.0004091 0.0000525 -0.0031681 0.0010780 -0.0006885 -0.0000210 -0.0000133 -0.0002965 0.0000497 -0.0015059 0.0000775 -0.0002006 0.0023296 -0.0037762 0.0000644 -0.0003440 0.0001560 -0.0001017 0.0002762 -0.0005964 0.0051661 -0.0082643 0.0002756 -0.0007685 0.0000957 -0.0001654 -0.0006625 0.0013241 0.0033665 -0.0198274 -0.0005645 0.0014732 0.0007393 -0.0012482 0.0000499 -0.0000425 0.0000742 -0.0001816 0.0001290 -0.0001097 0.0000911 -0.0002139 0.0006756 -0.0007178
-0.0001389 0.0001373 0.0001056 -0.0000319 -0.0000639 0.0001219 -0.0000152 0.0006385 -0.0000168 0.0002961 0.0000296 0.0000576 0.0000935 -0.0000340 0.0000141 -0.0003195 0.0000377 -0.0000275 -0.0000229 0.0001026 -0.0000375 -0.0000612 -0.0000494 0.0001157 -0.0001647 -0.0000986 0.0000232 0.0000209 -0.0000302 -0.0000209 0.0000318 0.0003977 -0.0000855 0.0002002 -0.0001597 0.0001614 -0.0000783 0.0002697 0.0006403 0.0000839 -0.0001504 0.0001239 0.0000152 0.0001514 -0.0002293 0.0000809 -0.0000440 0.0003614 -0.0003073 0.0010530 0.0000040 0.0007766 -0.0000753 0.0002704 -0.0001397 0.0003781 -0.0005086 0.0007819 -0.0000993 -0.0000024 -0.0003382 0.0004133 -0.0000505 -0.0002029 -0.0000456 -0.0006848 -0.0000820 -0.0005849 -0.0004186 -0.0003133 -0.0007842 0.0002580 -0.0008659 -0.0000297 -0.0013498 -0.0005129 0.0000065 -0.0002264 -0.0001429 0.0002841 0.0005144 -0.0017521 -0.0003726 0.0004374 -0.0000011 0.0005953 -0.0004883 0.0001596 -0.0001852 -0.0001595 0.0002008 0.0001619 0.0070059 -0.0055141 0.0001991 -0.0008388 -0.0004099 -0.0006363 -0.0031190 0.0032046 0.0000151 0.0002090 -0.0004584 -0.0007758 0.0003613 0.0009019 -0.0007307 0.0010569 -0.0006842 0.0012880 -0.0006628 0.0010445 -0.0005397 0.0007401 -0.0004840 0.0005662 -0.0004102 0.0002722 -0.0002804 0.0000800 0.0000869 -0.0002679 0.0006381 -0.0004192 0.0002536 -0.0005670 -0.0167059 0.0091370 0.0020377 -0.0064441 0.0120021 -0.0143175 -0.0002177 0.0029033 -0.0000570 -0.0002754 0.0025304 -0.0040817 -0.0001403 -0.0004012 -0.0000338 -0.0001633 -0.0000884 0.0002796 -0.0002521 -0.0001693 -0.0002267 -0.0001326 -0.0053623 0.0053346 -0.0003118 0.0003056 -0.0077770 0.0060912 -0.0009272 0.0010129 0.0000681 0.0005143 -0.0009740 0.0018412 0.0004280 0.0000322 -0.0004870 -0.0002948 0.0000598 0.0000764 0.0002527 -0.0008799 0.0010397 0.0006596 -0.0003844 0.0000723 -0.0002644 -0.0001115 0.0003026 -0.0008630 -0.0008883 0.0003526 0.0001225 -0.0004992 -0.0004371 -0.0007944 0.0001469 -0.0001722 -0.0030006 0.0048607 0.0005703 -0.0006622 0.0001932 -0.0002413 -0.0000145 -0.0004588 0.0040769 -0.0048386 -0.0005993 0.0000399 0.0001200 -0.0001734 -0.0003622 0.0015508 0.0026401 -0.0104263 0.0005729 0.0008171 0.0001209 -0.0005148 0.0000656 -0.0000426 0.0000817 -0.0001952 -0.0001053 0.0000220 0.0000522 -0.0001743 0.0004574 -0.0010721
-0.0001360 0.0001741 0.0001130 -0.0000292 -0.0000685 0.0001356 -0.0000155 0.0006264 -0.0000230 0.0003008 0.0000122 0.0001196 0.0000877 0.0000018 0.0000108 -0.0003017 0.0000451 -0.0000586 -0.0000249 0.0001169 -0.0000627 -0.0000230 -0.0000511 0.0001256 -0.0001279 -0.0001328 0.0000181 0.0000534 -0.0000315 -0.0000179 0.0000284 0.0004207 -0.0000971 0.0002339 -0.0001810 0.0001892 -0.0000772 0.0002961 -0.0006782 0.0012773 -0.0001599 0.0001245 -0.0000536 0.0002334 -0.0001956 0.0001014 -0.0000453 0.0003823 -0.0005447 0.0012770 0.0000411 0.0007583 -0.0000946 0.0002759 -0.0000935 0.0003805 -0.0005214 0.0008264 -0.0000951 0.0000241 -0.0003457 0.0004457 -0.0000746 -0.0002236 -0.0001063 -0.0006393 -0.0000880 -0.0004971 0.0001351 -0.0010704 -0.0008344 0.0003219 -0.0008681 0.0000081 -0.0019169 0.0004240 0.0000253 -0.0002134 -0.0000878 0.0003310 0.0014308 -0.0017819 -0.0002648 0.0003032 -0.0000234 0.0006252 -0.0008413 0.0005672 0.0000356 -0.0001537 0.0002415 0.0001477 0.0010821 -0.0023787 0.0005582 -0.0009577 0.0011058 -0.0017745 -0.0098346 0.0074620 0.0001858 0.0001342 0.0217780 -0.0423027 0.0003197 0.0010009 -0.0003478 0.0007950 -0.0006948 0.0012786 -0.0007172 0.0009694 -0.0005400 0.0007655 -0.0003745 0.0005261 -0.0004251 0.0003329 -0.0003310 0.0001708 0.0001225 -0.0002043 -0.0003133 0.0004247 0.0005999 -0.0006623 0.0070161 -0.0111577 0.0073747 -0.0169841 0.0021578 0.0035754 0.0055601 -0.0037903 0.0000712 -0.0001487 -0.0039690 0.0026756 0.0015325 -0.0013920 0.0000151 -0.0001275 -0.0001485 0.0004469 -0.0000805 -0.0004184 -0.0001579 -0.0000407 -0.0017900 0.0027982 -0.0003604 0.0003665 -0.0014317 0.0027792 -0.0005135 0.0001703 0.0000080 0.0006544 -0.0009496 0.0018078 0.0000078 0.0004390 -0.0010744 0.0007954 0.0000552 0.0001416 -0.0001724 -0.0005449 0.0016648 -0.0027111 0.0003240 -0.0002374 0.0003318 -0.0011113 0.0032836 -0.0016605 -0.0000659 -0.0004843 0.0001564 -0.0004792 0.0000171 -0.0011201 0.0000041 -0.0000747 -0.0015667 0.0055113 0.0005190 -0.0005666 0.0001624 -0.0002761 -0.0001154 -0.0005885 -0.0043024 0.0115553 -0.0018956 0.0008622 0.0002029 -0.0003236 -0.0006549 0.0016521 0.0067124 -0.0168255 0.0009556 0.0007440 0.0002432 -0.0006828 0.0000935 -0.0001866 0.0000069 -0.0001208 -0.0002355 -0.0001059 0.0000759 -0.0003590 -0.0006609 0.0001155
-0.0000920 0.0001009 0.0001064 -0.0000675 -0.0000527 0.0000582 -0.0000155 0.0006019 -0.0000268 0.0002095 0.0000097 0.0000591 0.0000865 -0.0000649 0.0000166 -0.0003813 0.0000697 -0.0001137 -0.0000305 0.0000781 -0.0000782 -0.0000491 -0.0000406 0.0000612 -0.0001469 -0.0001220 0.0000251 -0.0000179 -0.0000331 -0.0001135 0.0000199 0.0003476 -0.0001202 0.0001502 -0.0002053 0.0001419 -0.0000643 0.0002461 -0.0014047 0.0019452 -0.0001744 0.0000840 -0.0000933 0.0002501 -0.0002139 0.0000090 -0.0000393 0.0003874 -0.0004927 0.0012444 0.0000172 0.0008288 -0.0001047 0.0002850 -0.0000270 0.0003291 -0.0005323 0.0008353 -0.0000772 -0.0000205 -0.0003576 0.0004618 -0.0000530 -0.0002010 -0.0001624 -0.0005614 -0.0000623 -0.0005778 0.0002143 -0.0012027 -0.0008624 0.0003497 -0.0009777 0.0001492 -0.0015886 0.0000226 0.0000291 -0.0002136 -0.0000561 0.0003198 0.0024303 -0.0003870 -0.0000789 0.0000646 0.0000098 0.0006049 -0.0003385 0.0005177 0.0001879 -0.0002323 0.0002067 0.0002196 -0.0035844 0.0028805 0.0000889 -0.0004123 0.0009411 -0.0016707 -0.0015079 0.0026264 -0.0001328 0.0002446 0.0096672 -0.0114060 0.0003411 0.0010237 -0.0000113 0.0006465 -0.0007112 0.0013186 -0.0007719 0.0011428 -0.0005257 0.0007709 -0.0003899 0.0005840 -0.0004388 0.0003883 -0.0003367 0.0002461 0.0000194 -0.0001222 -0.0012518 0.0011835 0.0001268 -0.0003454 0.0118648 -0.0188450 0.0003632 -0.0021287 0.0055549 -0.0106277 0.0097722 -0.0111618 -0.0000175 0.0001214 -0.0051647 0.0065616 0.0005400 -0.0010835 -0.0000484 0.0000244 -0.0001577 0.0005842 -0.0002138 -0.0000760 -0.0002739 0.0000909 0.0004410 0.0004227 0.0008802 -0.0007679 0.0009063 -0.0010467 -0.0001164 -0.0007957 0.0001558 0.0005705 -0.0001018 0.0007269 -0.0005833 0.0007604 -0.0004402 0.0006990 0.0000446 0.0002151 -0.0000492 -0.0005513 0.0067787 -0.0084489 0.0006373 -0.0005322 -0.0002877 -0.0001799 0.0034853 -0.0028437 0.0001926 -0.0010321 0.0000935 -0.0003737 0.0000382 -0.0010152 -0.0000142 0.0000215 -0.0016632 0.0057305 0.0003065 -0.0004884 0.0001419 -0.0000259 -0.0000517 -0.0004380 0.0017549 0.0032372 -0.0018572 0.0009811 0.0001972 -0.0001982 -0.0006935 0.0019625 -0.0023642 -0.0008950 0.0000746 0.0009411 0.0010015 -0.0013731 0.0001328 -0.0001316 0.0000576 0.0000018 -0.0000394 -0.0000679 0.0001212 -0.0002513 -0.0000730 -0.0000882
-0.0001148 0.0001747 0.0000673 0.0000030 -0.0000651 0.0001284 -0.0000282 0.0006562 -0.0000371 0.0003106 0.0000160 0.0001279 0.0000622 0.0000353 0.0000086 -0.0002727 0.0000539 -0.0000924 -0.0000539 0.0001374 -0.0001136 0.0000582 -0.0000312 0.0000941 -0.0001775 -0.0000674 0.0000167 0.0001715 -0.0000397 0.0000020 0.0000152 0.0004991 -0.0001655 0.0003040 -0.0002527 0.0002519 -0.0000633 0.0003713 -0.0004919 0.0010926 -0.0001918 0.0001541 -0.0000908 0.0002548 -0.0001448 0.0000238 -0.0000334 0.0004374 -0.0004604 0.0012694 0.0000240 0.0008735 -0.0001040 0.0003107 -0.0000550 0.0003592 -0.0005465 0.0008524 -0.0000767 -0.0000196 -0.0003763 0.0004813 -0.0001947 -0.0000273 -0.0002094 -0.0005120 0.0000404 -0.0006311 0.0001352 -0.0007957 -0.0008761 0.0003134 -0.0010793 0.0002985 -0.0013857 -0.0004402 -0.0000727 -0.0001721 -0.0001526 0.0002781 -0.0002885 0.0002035 -0.0000765 0.0002199 0.0000084 0.0005902 0.0002017 -0.0003272 -0.0002176 -0.0000352 0.0000387 0.0003068 0.0049852 -0.0004508 0.0000107 -0.0004335 0.0002376 -0.0009019 -0.0000648 0.0013326 -0.0004186 0.0004813 -0.0114901 0.0109954 0.0004330 0.0008523 -0.0002918 0.0006758 -0.0007161 0.0013187 -0.0007333 0.0012966 -0.0005535 0.0007416 -0.0002639 0.0001046 -0.0004428 0.0002723 -0.0002876 0.0001838 -0.0000505 0.0000037 -0.0014510 0.0012872 0.0002894 -0.0003074 0.0004592 -0.0121821 0.0042167 -0.0076754 0.0123638 -0.0336637 0.0048504 -0.0105192 0.0001554 -0.0003934 -0.0009815 0.0032040 -0.0010198 0.0002209 -0.0001001 -0.0001329 -0.0001059 0.0003972 -0.0006128 0.0003414 -0.0003461 -0.0000369 -0.0006465 0.0007903 0.0005530 -0.0004425 0.0014709 -0.0039687 -0.0014749 0.0003084 0.0001514 0.0004282 -0.0002425 0.0010139 -0.0004154 0.0003015 -0.0011624 0.0015058 0.0000263 0.0001249 -0.0000181 -0.0007408 0.0066715 -0.0048039 0.0003434 -0.0004969 -0.0000236 -0.0002990 0.0034070 -0.0048705 0.0000534 -0.0008690 0.0001146 -0.0005162 0.0002782 -0.0012190 -0.0001231 -0.0001850 -0.0003101 -0.0078781 0.0005611 -0.0006617 0.0000039 0.0000414 0.0002540 -0.0010283 0.0052695 0.0023863 0.0002711 -0.0005694 0.0001235 -0.0001397 0.0005829 0.0008974 -0.0097746 0.0025073 0.0025263 -0.0011388 0.0005190 -0.0010236 0.0001784 -0.0002042 0.0001058 -0.0000713 0.0001108 -0.0002033 0.0001242 -0.0002950 -0.0006329 0.0006334
