-0.0000000 -0.0000000 -0.0000000 -0.0000000 -0.0000000 -0.0000000 -0.0000000 -0.0000000 -0.0000000 -0.0000000 -0.0000000 -0.0000000 -0.0000000 -0.0000000 -0.0000000 -0.0000000 -0.0000000 -0.0000000 -0.0000000 -0.0000000 -0.0000000 -0.0000000 -0.0000000 -0.0000000 -0.0000000 -0.0000000 -0.0000000 -0.0000000 -0.0000000 -0.0000000 -0.0000000 -0.0000000 -0.0000000 -0.0000000 -0.0000000 -0.0000000 -0.0000000 -0.0000000 -0.0000000 -0.0000000 -0.0000000 -0.0000000 -0.0000000 -0.0000000 -0.0000000 -0.0000000 -0.0000000 -0.0000000 -0.0000000 -0.0000000 -0.0000000 -0.0000000 -0.0000000 -0.0000000 -0.0000000 -0.0000000 -0.0000000 -0.0000000 -0.0000000 -0.0000000 -0.0000000 -0.0000000 -0.0000000 -0.0000000 -0.0000000 -0.0000000 -0.0000000 -0.0000000 -0.0000000 -0.0000000 -0.0000000 -0.0000000 -0.0000000 -0.0000000 -0.0000000 -0.0000000 -0.0000000 -0.0000000 -0.0000000 -0.0000000 -0.0000000 -0.0000000 -0.0000000 -0.0000000 -0.0000000 -0.0000000 -0.0000000 -0.0000000 -0.0000000 -0.0000000 -0.0000000 -0.0000000 -0.0000000 -0.0000000 -0.0000000 -0.0000000 -0.0000000 -0.0000000 -0.0000000 -0.0000000 -0.0000000 -0.0000000 -0.0000000 -0.0000000 -0.0000000 -0.0000000 -0.0000000 -0.0000000 -0.0000000 -0.0000000 -0.0000000 -0.0000000 -0.0000000 -0.0000000 -0.0000000 -0.0000000 -0.0000000 -0.0000000 -0.0000000 -0.0000000 -0.0000000 -0.0000000 -0.0000000 -0.0000000 -0.0000000 -0.0000000 -0.0000000 -0.0000000 -0.0000000 -0.0000000 -0.0000000 -0.0000000 -0.0000000 -0.0000000 -0.0000000 -0.0000000 -0.0000000 -0.0000000 -0.0000000 -0.0000000
-0.0000000 -0.0000000 -0.0000000 -0.0000000 -0.0000000 -0.0000000 -0.0000000 -0.0000000 -0.0000000 -0.0000000 -0.0000000 -0.0000000 -0.0000000 -0.0000000 -0.0000000 -0.0000000 -0.0000000 -0.0000000 -0.0000000 -0.0000000 -0.0000000 -0.0000000 -0.0000000 -0.0000000 -0.0000000 -0.0000000 -0.0000000 -0.0000000 -0.0000000 -0.0000000 -0.0000000 -0.0000000 -0.0000000 -0.0000000 -0.0000000 -0.0000000 -0.0000000 -0.0000000 -0.0000000 -0.0000000 -0.0000000 -0.0000000 -0.0000000 -0.0000000 -0.0000000 -0.0000000 -0.0000000 -0.0000000 -0.0000000 -0.0000000 -0.0000000 -0.0000000 -0.0000000 -0.0000000 -0.0000000 -0.0000000 -0.0000000 -0.0000000 -0.0000000 -0.0000000 -0.0000000 -0.0000000 -0.0000000 -0.0000000 -0.0000000 -0.0000000 -0.0000000 -0.0000000 -0.0000000 -0.0000000 -0.0000000 -0.0000000 -0.0000000 -0.0000000 -0.0000000 -0.0000000 -0.0000000 -0.0000000 -0.0000000 -0.0000000 -0.0000000 -0.0000000 -0.0000000 -0.0000000 -0.0000000 -0.0000000 -0.0000000 -0.0000000 -0.0000000 -0.0000000 -0.0000000 -0.0000000 -0.0000000 -0.0000000 -0.0000000 -0.0000000 -0.0000000 -0.0000000 -0.0000000 -0.0000000 -0.0000000 -0.0000000 -0.0000000 -0.0000000 -0.0000000 -0.0000000 -0.0000000 -0.0000000 -0.0000000 -0.0000000 -0.0000000 -0.0000000 -0.0000000 -0.0000000 -0.0000000 -0.0000000 -0.0000000 -0.0000000 -0.0000000 -0.0000000 -0.0000000 -0.0000000 -0.0000000 -0.0000000 -0.0000000 -0.0000000 -0.0000000 -0.0000000 -0.0000000 -0.0000000 -0.0000000 -0.0000000 -0.0000000 -0.0000000 -0.0000000 -0.0000000 -0.0000000 -0.0000000 -0.0000000 -0.0000000
0.0000074 0.0000491 -0.0000039 0.0000061 0.0000110 0.0000939 0.0000249 0.0001632 0.0000082 0.0001068 0.0000086 0.0000203 -0.0000120 0.0000545 0.0000184 -0.0000001 -0.0000157 0.0000527 -0.0000022 -0.0000113 0.0000057 0.0000765 -0.0000219 0.0000523 0.0000023 0.0000418 -0.0000008 -0.0000346 0.0000135 0.0000363 0.0000012 -0.0000292 0.0000106 0.0000552 0.0000041 0.0000178 -0.0000007 0.0000491 0.0000092 0.0000295 0.0000047 0.0000493 0.0000007 0.0000971 0.0000162 0.0001206 -0.0000170 -0.0028670 -0.0063079 0.0053369 -0.0053722 0.0046774 0.0004405 -0.0006647 0.0069981 -0.0135527 0.0016073 -0.0064423 -0.0006716 0.0002485 0.0018229 -0.0149543 0.0077561 -0.0109110 -0.0003509 -0.0005350 -0.0001871 -0.0037509 0.0079492 -0.0211652 0.0000036 0.0000648 -0.0000017 0.0000498 -0.0000095 0.0000129 -0.0000071 0.0000176 0.0000045 0.0000952 -0.0000019 0.0000804 0.0000016 0.0000778 0.0000045 0.0000809 0.0000004 0.0000586 -0.0000001 0.0000305 0.0000018 0.0000492 0.0000099 0.0000217 0.0000038 0.0000220 -0.0000007 0.0000143 0.0000013 0.0000647 -0.0000027 0.0000264 0.0000079 0.0000632 0.0000017 0.0000823 -0.0000051 0.0000980 -0.0000064 0.0000546 -0.0000069 0.0000934 -0.0000061 0.0000612 -0.0000064 0.0001065 0.0000307 0.0001129 0.0000204 0.0001054 0.0000029 0.0001084 -0.0000001 0.0001583 0.0000062 0.0001539 0.0000011 0.0001794 -0.0000102 0.0000637 -0.0000075 0.0001057 -0.0000222 0.0001402 -0.0000152 0.0001251 0.0000059 0.0001498 -0.0000127 0.0001541
0.0000114 0.0000728 -0.0000043 0.0000300 -0.0000108 0.0000707 0.0000175 0.0002341 0.0000097 0.0001152 0.0000101 0.0000381 -0.0000155 0.0000912 0.0000276 0.0000363 -0.0000235 0.0000709 0.0000288 -0.0000420 -0.0000325 0.0001101 0.0000032 0.0000285 0.0000119 0.0000868 0.0000057 -0.0000646 0.0000064 0.0000346 0.0000000 -0.0000631 0.0000166 0.0000425 0.0000057 0.0000163 -0.0000071 0.0000522 0.0000085 0.0000094 0.0000151 0.0000441 0.0000031 0.0000805 0.0000121 0.0000659 -0.0057664 0.0039851 0.0073819 -0.0128394 -0.0060939 0.0072850 -0.0029369 0.0056548 0.0096272 -0.0200245 -0.0020722 -0.0043067 -0.0003864 -0.0005491 0.0022532 0.0011282 0.0089163 -0.0176267 -0.0012725 -0.0032248 0.0062194 -0.0254170 0.0039299 -0.0145101 -0.0000052 0.0002064 0.0000144 0.0002002 -0.0000260 0.0000860 -0.0000130 0.0000883 -0.0000247 0.0002695 -0.0000043 0.0002913 -0.0000122 0.0002279 0.0000134 0.0002848 -0.0000211 0.0001757 -0.0000093 0.0001339 -0.0000051 0.0001827 0.0000058 0.0001250 0.0000245 0.0000775 -0.0000097 0.0000679 0.0000217 0.0003539 -0.0000222 0.0001187 -0.0000229 0.0001704 0.0000043 0.0002183 -0.0000420 0.0001806 -0.0000102 0.0001223 -0.0000218 0.0001595 -0.0000127 0.0000740 0.0000069 0.0001677 0.0000849 0.0002306 0.0000856 0.0002434 -0.0000016 0.0000823 -0.0000198 0.0001753 0.0000026 0.0000877 -0.0000037 0.0001780 0.0000239 0.0002128 -0.0000638 -0.0000242 -0.0000551 -0.0000003 -0.0000240 0.0000413 -0.0000005 0.0000157 -0.0000104 0.0000573
0.0000148 0.0000264 -0.0000066 -0.0000116 -0.0000443 -0.0000573 -0.0000008 0.0001050 0.0000334 0.0000785 -0.0000023 -0.0000225 -0.0000131 -0.0000249 0.0000033 0.0000177 -0.0000193 0.0000304 0.0000066 -0.0001264 0.0000027 0.0000227 -0.0000335 0.0000501 0.0000307 0.0001756 -0.0000006 -0.0001195 0.0000176 0.0000710 -0.0000011 -0.0000171 -0.0000136 0.0000967 -0.0000138 -0.0000159 -0.0000010 0.0001388 0.0000240 0.0001551 -0.0000032 0.0000476 0.0000043 0.0002121 -0.0000023 0.0000937 0.0077529 -0.0071227 0.0081985 -0.0076942 -0.0046459 0.0107177 0.0086430 -0.0060184 0.0033795 -0.0067495 0.0033933 -0.0095497 0.0008978 -0.0002144 0.0013362 0.0051371 0.0005282 0.0067280 0.0017222 -0.0008862 -0.0010219 -0.0048774 0.0005256 -0.0033905 -0.0000136 0.0000985 0.0000511 0.0002591 -0.0000651 -0.0001943 -0.0000228 0.0000128 -0.0000416 0.0000782 0.0000111 0.0002068 -0.0000254 0.0000176 0.0000613 0.0002621 -0.0000629 0.0000481 0.0000118 0.0000169 0.0000119 0.0001483 -0.0000194 0.0000746 0.0000525 0.0000099 -0.0000272 -0.0000057 0.0000410 0.0007615 -0.0000211 0.0000429 -0.0000003 -0.0000435 0.0000814 0.0001674 -0.0000684 -0.0000912 -0.0000218 -0.0000421 -0.0000315 -0.0000489 -0.0000121 -0.0000451 0.0000435 0.0000303 0.0001556 -0.0000931 0.0001866 0.0001951 0.0000091 -0.0002459 -0.0000080 -0.0000306 0.0000183 -0.0002618 -0.0000070 -0.0000504 0.0000714 0.0001710 -0.0002290 -0.0002944 -0.0000538 -0.0002624 0.0000421 -0.0001350 0.0000179 -0.0003048 0.0000321 -0.0002274
0.0000387 0.0001539 -0.0000058 0.0000446 -0.0000944 -0.0001407 -0.0000287 -0.0000057 0.0000545 0.0002785 0.0000135 0.0000153 -0.0000402 -0.0001844 0.0000000 -0.0000341 -0.0000438 0.0002082 -0.0000846 -0.0001418 0.0000824 0.0001594 0.0000574 0.0001721 0.0000455 0.0002549 -0.0000236 -0.0001948 0.0000731 0.0001993 0.0000115 0.0000700 -0.0000477 0.0001040 -0.0000510 -0.0002321 0.0000587 0.0001895 0.0000923 0.0004310 -0.0000078 -0.0000826 0.0000139 0.0000662 -0.0001956 -0.0004044 0.0068769 -0.0055852 0.0046410 0.0006580 -0.0088445 0.0200637 0.0098012 -0.0145657 -0.0055159 0.0076084 0.0012220 0.0011012 -0.0017516 0.0026201 0.0089938 -0.0153266 0.0012925 0.0023284 0.0029812 -0.0029808 0.0043303 -0.0008058 0.0067391 -0.0105758 -0.0000097 -0.0001886 0.0000797 0.0001328 -0.0001009 -0.0006409 -0.0000276 -0.0001793 -0.0000229 -0.0003155 0.0000084 -0.0001453 -0.0000156 -0.0003474 0.0001187 0.0000323 -0.0000259 -0.0001766 0.0000370 -0.0002127 0.0000082 -0.0000834 -0.0000301 -0.0001323 0.0000362 -0.0001476 -0.0000298 -0.0001592 0.0000114 0.0005195 -0.0000043 -0.0001509 0.0000043 -0.0003443 0.0001560 0.0000625 -0.0000480 -0.0004147 -0.0000532 -0.0003055 -0.0000454 -0.0002309 -0.0000106 -0.0001681 0.0000367 -0.0001116 0.0001303 -0.0004724 0.0002609 0.0003074 0.0000367 -0.0003749 0.0000211 0.0000736 0.0000361 -0.0001698 -0.0000301 0.0001361 0.0001133 0.0001514 -0.0001304 -0.0002176 0.0000208 -0.0000878 0.0001114 0.0001191 0.0000430 -0.0000955 0.0000556 -0.0000645
0.0000764 0.0002632 0.0000071 0.0001099 -0.0001685 -0.0002957 -0.0001060 -0.0002286 0.0000634 0.0004200 0.0000349 0.0000905 -0.0000792 -0.0003999 0.0000044 -0.0000582 -0.0000351 0.0004489 -0.0001356 -0.0001272 0.0001326 0.0004156 0.0001367 0.0002597 0.0000422 0.0003061 -0.0000301 -0.0002403 0.0001456 0.0003827 0.0000334 0.0001268 -0.0000663 -0.0000649 -0.0000786 -0.0004626 0.0001351 0.0001940 0.0001307 0.0005096 0.0000006 -0.0002282 0.0000450 -0.0001086 -0.0004430 -0.0007862 -0.0079953 0.0091458 -0.0081993 0.0157967 -0.0013718 0.0094228 -0.0072493 0.0054091 0.0037930 -0.0046191 0.0021054 0.0072926 -0.0022451 0.0026593 -0.0000760 0.0081936 0.0128998 -0.0335967 0.0026474 -0.0053447 0.0070380 -0.0063807 0.0006907 0.0021554 -0.0000159 -0.0001078 0.0000719 0.0002026 -0.0001059 -0.0005851 -0.0000218 -0.0001251 -0.0000377 -0.0001468 0.0000028 -0.0000164 -0.0000215 -0.0001476 0.0001279 0.0002096 0.0000117 -0.0000260 0.0000286 -0.0001187 -0.0000064 -0.0000620 -0.0000289 -0.0000883 0.0000102 -0.0001000 -0.0000269 -0.0001266 -0.0000146 0.0001751 -0.0000143 -0.0000803 -0.0000074 -0.0002699 0.0001412 0.0002672 -0.0000610 -0.0002562 -0.0000687 -0.0002405 -0.0000593 -0.0000763 -0.0000254 -0.0001178 0.0000166 0.0000246 0.0001003 -0.0002320 0.0002662 0.0005734 0.0000542 -0.0001209 0.0000368 0.0004087 0.0000408 0.0001808 -0.0000153 0.0004620 0.0001078 0.0003311 -0.0000349 -0.0000036 0.0000155 0.0001849 0.0000711 0.0003938 0.0000192 0.0002145 0.0000287 0.0002052
0.0000845 0.0003199 -0.0000014 0.0000981 -0.0002501 -0.0003099 -0.0001895 -0.0003198 0.0000678 0.0004231 0.0000289 0.0000769 -0.0000760 -0.0002555 0.0000054 0.0001061 0.0000068 0.0004977 -0.0001220 -0.0000442 0.0001655 0.0005206 0.0000003 0.0002681 0.0000380 0.0004246 0.0000001 -0.0001066 0.0001832 0.0005442 0.0000610 0.0001684 -0.0000932 -0.0002319 -0.0000634 -0.0004157 0.0001286 0.0001731 0.0000881 0.0003476 -0.0000203 -0.0003200 0.0000613 -0.0001220 -0.0003970 -0.0005479 -0.0142658 0.0078063 -0.0172415 0.0198668 0.0092101 -0.0042470 -0.0102655 0.0172324 0.0082634 -0.0081408 0.0004827 0.0121659 0.0016814 0.0008921 -0.0145118 0.0151879 0.0018445 -0.0020074 -0.0009263 0.0008742 0.0033416 -0.0125621 -0.0078417 0.0111211 -0.0000234 0.0000969 0.0000705 0.0003456 -0.0000685 -0.0001680 -0.0000391 -0.0000649 -0.0000617 0.0001645 -0.0000118 0.0002758 -0.0000259 0.0001411 0.0001006 0.0004521 0.0000149 0.0001788 0.0000203 0.0000751 0.0000181 0.0000786 -0.0000052 0.0000651 0.0000158 0.0000290 -0.0000307 -0.0000305 -0.0000084 0.0001691 -0.0000273 0.0001006 -0.0000151 -0.0000042 0.0000929 0.0004747 -0.0001002 0.0000560 -0.0000616 -0.0000134 -0.0000708 0.0001666 -0.0000334 0.0000287 0.0000067 0.0001901 0.0001555 0.0001701 0.0002186 0.0005554 0.0000841 0.0000520 0.0000309 0.0004907 0.0000255 0.0002609 0.0000021 0.0004332 0.0000662 0.0003157 -0.0000256 0.0000605 -0.0000496 0.0002033 0.0000171 0.0003202 0.0000037 0.0001537 -0.0000002 0.0001576
0.0000796 0.0001989 -0.0000275 -0.0000580 -0.0002946 -0.0003632 -0.0002136 -0.0004667 0.0000547 0.0003064 -0.0000120 -0.0000474 -0.0000498 -0.0000815 0.0000561 0.0001901 -0.0000041 0.0004016 -0.0001156 -0.0000277 0.0001586 0.0004422 0.0000520 0.0000917 0.0000532 0.0004912 0.0000378 -0.0000240 0.0002016 0.0005925 0.0000830 0.0001620 -0.0000814 -0.0003054 -0.0000502 -0.0004476 0.0001143 0.0000732 0.0000758 0.0002993 -0.0000269 -0.0004295 0.0000162 -0.0002558 -0.0002998 -0.0006206 -0.0063452 0.0029673 -0.0085326 0.0089045 0.0075586 -0.0048833 -0.0021661 0.0112919 -0.0044784 0.0086882 -0.0077003 0.0183510 0.0007195 0.0017968 0.0081376 -0.0257057 -0.0013644 0.0074222 -0.0051092 0.0065307 0.0064707 -0.0064250 -0.0017645 0.0057081 -0.0000194 0.0000916 0.0000704 0.0003102 -0.0000390 -0.0000082 -0.0000345 -0.0001029 -0.0000503 0.0001016 0.0000062 0.0002418 -0.0000289 0.0000357 0.0000747 0.0003383 0.0000002 0.0001268 0.0000280 0.0000824 -0.0000026 0.0000858 0.0000209 0.0000559 0.0000218 0.0000522 -0.0000397 -0.0000464 0.0000038 0.0000921 -0.0000197 0.0000817 -0.0000126 -0.0000087 0.0000645 0.0002695 -0.0000875 -0.0000309 -0.0000350 -0.0000050 -0.0000558 0.0000631 -0.0000219 0.0000616 -0.0000029 0.0000401 0.0002439 0.0000277 0.0001597 0.0001584 0.0001205 -0.0001042 0.0000276 0.0002355 0.0000492 0.0000224 0.0000029 0.0001186 0.0000667 0.0000468 -0.0000256 -0.0001079 -0.0000686 -0.0000100 0.0000442 0.0000603 0.0000267 -0.0001518 0.0000055 -0.0001236
0.0000696 0.0002472 -0.0000459 -0.0000336 -0.0001832 -0.0000283 -0.0001194 -0.0003446 0.0000776 0.0003894 -0.0000044 0.0000259 -0.0000292 0.0000102 0.0000884 0.0002288 -0.0000341 0.0003849 -0.0001116 -0.0000071 0.0001504 0.0004880 0.0001718 -0.0000237 0.0000628 0.0005675 0.0000747 0.0001416 0.0002089 0.0006353 0.0000895 0.0002922 -0.0000417 -0.0001478 -0.0000587 -0.0004033 0.0001169 0.0001012 0.0001147 0.0004981 -0.0000197 -0.0003586 -0.0000304 -0.0002242 -0.0002067 -0.0006282 0.0048134 -0.0068416 -0.0047035 0.0095811 0.0074903 -0.0090271 0.0101818 -0.0049522 0.0018714 0.0010098 -0.0045027 0.0081325 -0.0002998 0.0009844 0.0110486 -0.0248326 0.0007135 0.0063430 -0.0108064 0.0125615 0.0053803 -0.0055017 0.0051137 -0.0050149 -0.0000098 -0.0001171 0.0000546 0.0001556 -0.0000253 -0.0001976 -0.0000063 -0.0001284 -0.0000076 -0.0001747 0.0000340 -0.0000329 -0.0000241 -0.0002674 0.0000921 0.0000504 0.0000183 -0.0000752 0.0000334 -0.0000596 -0.0000405 -0.0000605 0.0000186 -0.0001028 0.0000318 0.0000066 -0.0000368 -0.0001330 -0.0000004 0.0000030 0.0000093 -0.0000515 -0.0000099 -0.0002735 0.0000839 -0.0000280 -0.0000672 -0.0003007 -0.0000268 -0.0001783 -0.0000463 -0.0002046 -0.0000010 -0.0000304 -0.0000054 -0.0001577 0.0002891 -0.0003005 0.0001155 -0.0000819 0.0001515 -0.0002090 0.0000530 0.0001633 0.0000693 0.0000057 0.0000207 0.0000739 0.0000745 -0.0000180 0.0000209 -0.0000922 -0.0000345 0.0000304 0.0000667 0.0001806 0.0000367 -0.0000719 0.0000189 -0.0000485
0.0000811 0.0003165 -0.0000504 0.0000274 -0.0001396 0.0000783 -0.0000750 -0.0001501 0.0001340 0.0004793 0.0000289 0.0001251 -0.0000299 -0.0000394 0.0000633 0.0002805 -0.0000281 0.0003636 -0.0001172 0.0000657 0.0001842 0.0005431 0.0001706 0.0000238 0.0000743 0.0006354 0.0001140 0.0003203 0.0001904 0.0005804 0.0000903 0.0003435 -0.0000254 -0.0000899 -0.0000597 -0.0003817 0.0001410 0.0000863 0.0001230 0.0005549 0.0000140 -0.0002518 -0.0000046 -0.0002967 -0.0002161 -0.0007051 0.0053666 -0.0095233 -0.0042552 0.0154847 0.0053876 -0.0073525 0.0061956 -0.0010700 0.0095620 -0.0188175 -0.0022512 0.0037915 0.0019765 -0.0022773 0.0069205 -0.0178939 -0.0016293 0.0042932 -0.0068338 0.0079523 0.0007045 -0.0052403 0.0099166 -0.0196300 0.0000026 -0.0000955 0.0000435 0.0001200 0.0000303 0.0000125 -0.0000151 -0.0001232 0.0000054 -0.0000623 0.0000196 -0.0000030 -0.0000145 -0.0001631 0.0000862 0.0000899 0.0000395 -0.0000051 0.0000348 -0.0000544 -0.0000413 -0.0000822 -0.0000016 -0.0000656 0.0000303 0.0000350 -0.0000396 -0.0000891 -0.0000238 -0.0000264 0.0000102 -0.0000050 -0.0000156 -0.0002227 0.0000746 0.0001047 -0.0000769 -0.0001746 -0.0000408 -0.0001299 -0.0000587 -0.0001041 -0.0000011 -0.0000047 -0.0000067 -0.0000131 0.0002798 -0.0001239 0.0001387 0.0001408 0.0001524 -0.0000174 0.0000656 0.0003602 0.0000490 0.0002641 0.0000096 0.0003719 0.0000853 0.0001529 -0.0000044 0.0002108 0.0000046 0.0002028 0.0000352 0.0004581 0.0000145 0.0001640 0.0000076 0.0001839
0.0000754 0.0004017 -0.0000311 0.0001174 -0.0001803 -0.0000674 -0.0000699 0.0000122 0.0001009 0.0005466 0.0000324 0.0002769 -0.0000351 -0.0000103 0.0000593 0.0003506 0.0000010 0.0003692 -0.0001213 0.0001467 0.0002005 0.0005847 0.0001486 0.0000753 0.0000850 0.0006288 0.0000993 0.0003215 0.0001507 0.0004869 0.0000662 0.0003557 -0.0000068 -0.0000653 -0.0000520 -0.0003118 0.0001172 0.0000588 0.0001291 0.0005089 0.0000326 -0.0002311 -0.0000028 -0.0004212 -0.0001911 -0.0007404 0.0051758 -0.0081472 0.0018956 0.0080829 0.0022035 0.0000979 -0.0007667 0.0065569 0.0111655 -0.0342603 0.0060516 -0.0072028 0.0015660 -0.0041677 0.0107389 -0.0065786 -0.0008994 -0.0071140 -0.0038816 0.0035062 0.0010465 -0.0082911 0.0094627 -0.0292663 0.0000034 0.0000518 0.0000460 0.0002030 0.0000133 0.0000534 -0.0000447 -0.0001035 -0.0000029 0.0000140 -0.0000053 0.0000547 -0.0000183 -0.0000813 0.0000799 0.0001663 0.0000363 0.0000551 0.0000211 -0.0000710 -0.0000298 -0.0000862 -0.0000220 -0.0000028 0.0000474 0.0000203 -0.0000397 -0.0000511 -0.0000352 0.0002304 0.0000018 -0.0000318 -0.0000132 -0.0002608 0.0000823 0.0001751 -0.0001012 -0.0002619 -0.0000585 -0.0001690 -0.0000921 -0.0002395 -0.0000120 -0.0000462 -0.0000029 0.0000106 0.0002888 -0.0000842 0.0001727 0.0003370 0.0001541 -0.0000558 0.0000718 0.0002989 0.0000527 0.0001833 0.0000030 0.0003579 0.0001709 0.0002350 0.0000341 0.0003149 0.0000188 0.0000629 0.0000531 0.0003485 0.0000132 0.0000017 0.0000114 0.0000782
0.0000276 0.0001847 -0.0000244 0.0000775 -0.0000928 -0.0000650 0.0000182 0.0000526 0.0000474 0.0004182 0.0000736 0.0003286 -0.0000047 -0.0000558 0.0000432 0.0002827 -0.0000192 0.0003003 -0.0001121 0.0001985 0.0002534 0.0005414 0.0000880 -0.0001185 0.0000902 0.0003976 0.0000655 0.0002421 0.0001634 0.0005003 0.0000434 0.0003269 -0.0000069 -0.0000700 -0.0000626 -0.0003104 0.0000848 -0.0000157 0.0001474 0.0004548 0.0000246 -0.0002799 -0.0000555 -0.0006067 -0.0001015 -0.0006930 0.0007814 -0.0011106 0.0052142 0.0027464 0.0005815 -0.0027828 0.0037917 0.0013898 -0.0054420 -0.0000946 0.0270065 -0.0551093 -0.0011168 -0.0003184 0.0106072 -0.0061827 0.0076746 -0.0185906 -0.0005080 -0.0011130 0.0038498 -0.0124981 -0.0005952 -0.0007282 -0.0000008 -0.0000332 0.0000460 0.0001921 -0.0001080 -0.0005121 -0.0000415 -0.0000543 -0.0000047 -0.0001477 -0.0000195 -0.0001026 -0.0000459 -0.0002633 0.0001090 0.0001316 0.0000182 -0.0000558 -0.0000173 -0.0002283 -0.0000351 -0.0002256 0.0000005 -0.0000529 0.0000635 -0.0000120 -0.0000493 -0.0001231 -0.0000532 0.0003050 -0.0000017 -0.0001121 -0.0000251 -0.0005284 0.0001147 0.0001378 -0.0001191 -0.0005920 -0.0000817 -0.0003608 -0.0001426 -0.0005762 -0.0000197 -0.0001845 0.0000043 -0.0000874 0.0003149 -0.0001598 0.0002057 0.0003855 0.0001872 -0.0001667 0.0000620 0.0002353 0.0000695 0.0000340 0.0000247 0.0002524 0.0002407 0.0002990 0.0000917 0.0002070 0.0000304 -0.0001544 0.0000753 0.0001343 0.0000315 -0.0002483 0.0000368 -0.0001224
-0.0000213 -0.0000502 -0.0000485 -0.0000326 -0.0000329 -0.0000224 0.0000744 0.0001989 0.0000319 0.0004439 0.0000768 0.0003523 0.0000168 0.0000552 0.0000344 0.0003397 -0.0000257 0.0003124 -0.0000625 0.0002581 0.0002105 0.0006667 -0.0000424 -0.0002923 0.0000850 0.0003275 0.0000660 0.0003128 0.0002021 0.0006846 0.0000352 0.0003708 -0.0000241 -0.0001001 -0.0000791 -0.0002818 0.0001011 0.0000531 0.0001377 0.0004110 0.0000182 -0.0002578 -0.0000686 -0.0006542 -0.0000865 -0.0007223 0.0095532 -0.0090635 0.0033865 0.0036411 -0.0045478 0.0028899 0.0080874 -0.0001344 -0.0113452 0.0206224 0.0089175 -0.0110434 -0.0004547 0.0001302 0.0048352 -0.0138279 0.0016143 -0.0037993 0.0033495 0.0012731 -0.0022927 -0.0027164 -0.0022080 0.0081326 -0.0000001 -0.0001288 0.0000636 0.0001726 -0.0002383 -0.0011466 0.0000002 0.0000993 -0.0000071 -0.0001660 -0.0000148 -0.0001422 -0.0000925 -0.0003604 0.0001511 0.0002294 -0.0000062 -0.0001093 -0.0000287 -0.0002800 -0.0000303 -0.0002453 -0.0000305 -0.0000026 0.0000654 0.0000643 -0.0000700 -0.0001750 -0.0000688 0.0001161 0.0000008 -0.0000649 -0.0000103 -0.0006002 0.0001138 0.0002480 -0.0001201 -0.0006432 -0.0000864 -0.0003542 -0.0001701 -0.0006226 -0.0000168 -0.0002141 0.0000055 -0.0000110 0.0003226 0.0001377 0.0002326 0.0006132 0.0001931 0.0000422 0.0000771 0.0004708 0.0000899 0.0002892 0.0000472 0.0005125 0.0002577 0.0004913 0.0000835 0.0002608 0.0000302 -0.0000076 0.0000616 0.0002775 0.0000382 -0.0000941 0.0000165 0.0000230
-0.0000293 -0.0000996 -0.0000573 -0.0000469 -0.0000077 -0.0000241 0.0000784 0.0000897 0.0000521 0.0004339 0.0000610 0.0003641 0.0000406 0.0000974 0.0000511 0.0003662 0.0000028 0.0003447 -0.0000210 0.0002863 0.0001443 0.0006160 -0.0000685 -0.0003445 0.0000753 0.0002832 0.0000693 0.0004141 0.0002120 0.0007827 0.0000320 0.0004345 -0.0000195 -0.0001654 -0.0000702 -0.0002337 0.0001152 0.0000003 0.0001265 0.0003487 0.0000235 -0.0003145 -0.0000578 -0.0006831 -0.0000623 -0.0008018 0.0142560 -0.0195854 0.0086290 -0.0173362 0.0038536 -0.0031121 0.0125857 -0.0062112 -0.0058259 0.0145371 -0.0040803 0.0107806 -0.0011980 0.0014339 0.0055501 -0.0078516 -0.0020092 0.0054704 0.0000589 0.0070087 0.0101513 -0.0197703 0.0084038 -0.0083985 0.0000039 -0.0000401 0.0000747 0.0002962 -0.0002482 -0.0011733 -0.0000004 0.0001478 -0.0000041 -0.0001028 -0.0000024 -0.0000652 -0.0001111 -0.0003649 0.0001699 0.0003287 -0.0000168 -0.0000937 -0.0000036 -0.0002446 -0.0000565 -0.0001580 -0.0000594 0.0000415 0.0000874 0.0001075 -0.0000675 -0.0001790 -0.0000671 0.0001759 0.0000058 -0.0000646 -0.0000300 -0.0005607 0.0001248 0.0002859 -0.0001285 -0.0007203 -0.0000766 -0.0003454 -0.0001862 -0.0007145 -0.0000106 -0.0002435 0.0000067 -0.0000633 0.0003308 0.0001815 0.0002673 0.0006905 0.0002079 -0.0000211 0.0001201 0.0003371 0.0001135 0.0001755 0.0000601 0.0003648 0.0002610 0.0002944 0.0000709 0.0001939 0.0000605 -0.0001256 0.0000612 0.0001690 0.0000653 -0.0002586 0.0000198 -0.0001022
-0.0000055 -0.0000214 -0.0000473 0.0000079 0.0000202 0.0000473 0.0001211 0.0000704 0.0000571 0.0005026 0.0000721 0.0004626 0.0000346 0.0000136 0.0000638 0.0002874 -0.0000016 0.0004836 -0.0000703 0.0003882 0.0001857 0.0006781 -0.0000596 -0.0001950 0.0000785 0.0003014 0.0000513 0.0004809 0.0002147 0.0008627 0.0000356 0.0005497 -0.0000231 0.0000518 -0.0000742 -0.0001329 0.0001259 0.0001388 0.0001537 0.0005254 0.0000360 -0.0001702 -0.0000764 -0.0005972 0.0000017 -0.0006414 0.0000834 -0.0077447 0.0160640 -0.0297031 -0.0067974 0.0100830 0.0097048 -0.0143428 -0.0057037 -0.0023102 -0.0124447 0.0118790 -0.0032914 0.0031660 0.0127913 -0.0230793 -0.0012091 0.0066851 -0.0084740 0.0099656 0.0031959 0.0009873 0.0147504 -0.0231309 0.0000204 -0.0001696 0.0000905 0.0001900 -0.0002222 -0.0012136 -0.0000145 -0.0000323 0.0000308 -0.0003074 0.0000045 -0.0002374 -0.0001065 -0.0005902 0.0001793 0.0001171 0.0000020 -0.0002282 0.0000049 -0.0003879 -0.0000513 -0.0003129 -0.0000095 -0.0001027 0.0000830 -0.0000121 -0.0000556 -0.0002967 -0.0000777 0.0000194 0.0000096 -0.0002332 -0.0000621 -0.0006866 0.0001627 0.0000848 -0.0000839 -0.0009905 -0.0000700 -0.0005068 -0.0001855 -0.0009487 0.0000068 -0.0003272 0.0000150 -0.0002571 0.0003434 0.0000247 0.0002919 0.0005824 0.0002479 -0.0001745 0.0001694 0.0001508 0.0001349 -0.0000268 0.0000827 0.0000845 0.0002919 -0.0000436 0.0000927 -0.0000533 0.0001071 -0.0003316 0.0000796 -0.0000087 0.0000860 -0.0004679 0.0000547 -0.0002893
0.0000222 0.0000953 -0.0000295 0.0000819 0.0000369 0.0003213 0.0002009 0.0002318 0.0000968 0.0006986 0.0001117 0.0005409 0.0000144 -0.0001033 0.0000585 0.0002852 0.0000078 0.0005416 -0.0001440 0.0005011 0.0002016 0.0007355 -0.0000101 -0.0001207 0.0000754 0.0002871 0.0000419 0.0005240 0.0002088 0.0008734 0.0000242 0.0006227 -0.0000210 0.0001162 -0.0000631 -0.0001206 0.0001447 0.0001490 0.0001834 0.0005943 0.0000541 -0.0000929 -0.0000755 -0.0004629 0.0000636 -0.0005907 0.0030964 -0.0065726 0.0022694 0.0071038 -0.0052639 0.0114431 0.0075929 -0.0226312 0.0089073 -0.0145532 -0.0051331 0.0016278 0.0012067 -0.0013469 -0.0000398 -0.0053763 -0.0038984 0.0016044 0.0063231 -0.0070263 -0.0070427 0.0156398 0.0177438 -0.0350813 0.0000345 -0.0002839 0.0001307 0.0000443 -0.0002109 -0.0012957 -0.0000139 -0.0001367 0.0000739 -0.0003622 0.0000411 -0.0003022 -0.0001016 -0.0006780 0.0001818 0.0000361 0.0000259 -0.0002748 0.0000116 -0.0004667 -0.0000114 -0.0003992 -0.0000028 -0.0001555 0.0000813 -0.0000611 -0.0000545 -0.0003669 -0.0000760 -0.0000492 0.0000172 -0.0002915 -0.0000371 -0.0007060 0.0001636 0.0000794 -0.0000387 -0.0009669 -0.0000682 -0.0005037 -0.0001648 -0.0009078 0.0000165 -0.0002897 0.0000341 -0.0001905 0.0003545 0.0002814 0.0002655 0.0006704 0.0002558 0.0000272 0.0001921 0.0003720 0.0001457 0.0002170 0.0000945 0.0002973 0.0003008 0.0001003 0.0001302 -0.0000058 0.0001155 -0.0002130 0.0000992 0.0001563 0.0000767 -0.0002748 0.0000580 -0.0001533
0.0000334 0.0001339 -0.0000234 0.0000926 0.0000235 0.0004748 0.0002218 0.0003129 0.0001727 0.0007605 0.0001163 0.0005311 0.0000288 -0.0000987 0.0000504 0.0003313 0.0000104 0.0005376 -0.0000857 0.0005130 0.0001447 0.0007735 -0.0000142 -0.0000995 0.0000705 0.0002841 0.0000452 0.0005803 0.0002026 0.0008844 0.0000306 0.0006577 -0.0000183 0.0000700 -0.0000637 -0.0000885 0.0001569 0.0001822 0.0001816 0.0006026 0.0000677 -0.0000117 -0.0000549 -0.0001842 0.0000572 -0.0003916 0.0022829 -0.0048069 -0.0110504 0.0177323 0.0000702 0.0011339 0.0021250 -0.0161444 0.0050865 0.0007256 -0.0088961 0.0049239 -0.0006177 0.0024440 0.0025154 -0.0024548 -0.0006132 -0.0097198 0.0080619 -0.0127946 -0.0007133 0.0070871 0.0024470 -0.0000362 0.0000345 -0.0002325 0.0001271 0.0000888 -0.0002154 -0.0013644 0.0000054 -0.0000519 0.0000995 -0.0003121 0.0000422 -0.0002797 -0.0001085 -0.0007153 0.0001740 0.0000545 0.0000500 -0.0002800 0.0000214 -0.0004835 -0.0000220 -0.0003934 0.0000049 -0.0001455 0.0000925 -0.0000419 -0.0000564 -0.0003970 -0.0000734 -0.0001183 0.0000278 -0.0003170 0.0000194 -0.0007635 0.0001564 0.0000262 -0.0000205 -0.0010169 -0.0000564 -0.0005023 -0.0001598 -0.0009721 0.0000084 -0.0003400 0.0000643 -0.0002061 0.0003647 0.0002694 0.0002849 0.0005401 0.0002646 -0.0000744 0.0001795 0.0001708 0.0001750 0.0000874 0.0000774 0.0000982 0.0002593 -0.0001910 0.0002030 -0.0001760 0.0001777 -0.0003527 0.0001614 -0.0000177 0.0001252 -0.0004173 0.0000760 -0.0003035
0.0000260 0.0001256 -0.0000208 0.0001376 0.0000508 0.0004944 0.0001973 0.0002977 0.0001500 0.0006713 0.0001083 0.0005602 0.0000557 0.0000427 0.0000488 0.0003532 0.0000023 0.0005667 -0.0000293 0.0005477 0.0001100 0.0007595 -0.0000031 -0.0000039 0.0000559 0.0002459 0.0000443 0.0006555 0.0001865 0.0008871 0.0000559 0.0006718 -0.0000110 0.0000491 -0.0000566 -0.0000548 0.0001435 0.0001626 0.0001629 0.0005365 0.0000684 0.0000280 -0.0000349 -0.0001665 0.0000469 -0.0002538 -0.0049420 0.0040470 -0.0055831 -0.0037690 0.0004677 -0.0058495 0.0020055 -0.0108685 -0.0023460 0.0020076 -0.0101243 0.0117283 -0.0028285 0.0034514 0.0039636 0.0004355 -0.0024162 0.0010066 -0.0048489 0.0067451 -0.0054774 0.0199881 -0.0077060 0.0130741 0.0000436 -0.0004049 0.0001319 -0.0000455 -0.0002284 -0.0016742 0.0000488 -0.0000212 0.0001414 -0.0005209 0.0000471 -0.0004793 -0.0001307 -0.0010297 0.0001923 -0.0001490 0.0000625 -0.0004167 0.0000400 -0.0006006 -0.0000130 -0.0004960 0.0000384 -0.0002835 0.0000927 -0.0001068 -0.0000473 -0.0005271 -0.0000762 -0.0003664 0.0000480 -0.0004580 0.0000432 -0.0009031 0.0001871 -0.0002055 0.0000628 -0.0012130 -0.0000438 -0.0006248 -0.0001219 -0.0011046 0.0000180 -0.0004676 0.0000952 -0.0003981 0.0003459 0.0000874 0.0003373 0.0003598 0.0003040 -0.0002935 0.0002149 -0.0001715 0.0002133 -0.0001037 0.0001012 -0.0002447 0.0002446 -0.0006814 0.0002571 -0.0003794 0.0002459 -0.0005041 0.0002430 -0.0002561 0.0001676 -0.0005631 0.0001024 -0.0004313
-0.0000058 -0.0000268 -0.0000230 0.0001093 0.0000829 0.0003879 0.0001424 0.0001579 0.0000999 0.0004677 0.0001099 0.0004847 0.0000955 0.0002126 0.0000445 0.0003622 0.0000005 0.0004771 0.0000080 0.0005328 0.0000961 0.0006623 -0.0000254 -0.0000069 0.0000471 0.0002254 0.0000601 0.0006932 0.0001693 0.0008656 0.0000493 0.0006501 -0.0000093 0.0000437 -0.0000513 -0.0000320 0.0001340 0.0000837 0.0001535 0.0004781 0.0000521 0.0000269 -0.0000688 -0.0001125 0.0001448 0.0000279 -0.0138761 0.0144095 0.0067867 -0.0233041 0.0022209 -0.0090586 0.0021514 -0.0056168 0.0050403 -0.0097157 0.0033049 0.0011713 0.0010297 -0.0007102 0.0008593 -0.0016458 -0.0044743 0.0080362 -0.0069877 0.0114395 -0.0194084 0.0274710 -0.0073022 0.0047218 0.0000582 -0.0005134 0.0001475 -0.0001430 -0.0002184 -0.0017928 0.0000764 -0.0000292 0.0001870 -0.0005494 0.0000878 -0.0004864 -0.0001370 -0.0011390 0.0001922 -0.0002488 0.0000713 -0.0004290 0.0000606 -0.0006385 0.0000395 -0.0005041 0.0000462 -0.0003011 0.0000863 -0.0001318 -0.0000483 -0.0006271 -0.0000688 -0.0004737 0.0000589 -0.0005213 0.0000678 -0.0008058 0.0002052 -0.0003056 0.0001253 -0.0010258 -0.0000259 -0.0005309 -0.0000610 -0.0008394 0.0000338 -0.0003949 0.0000801 -0.0004237 0.0003380 0.0003931 0.0003179 0.0004649 0.0003257 -0.0000091 0.0002399 -0.0000608 0.0002154 0.0002127 0.0001218 -0.0000625 0.0001992 -0.0006467 0.0002893 -0.0002370 0.0002386 -0.0002567 0.0002334 -0.0000510 0.0001520 -0.0002051 0.0001049 -0.0001414
-0.0000104 0.0000817 -0.0000332 0.0002012 0.0001963 0.0007532 0.0003402 0.0006953 0.0000772 0.0005997 0.0001194 0.0006054 0.0000875 0.0002475 -0.0000027 0.0002960 -0.0000352 0.0005176 -0.0000339 0.0005752 0.0001529 0.0007374 -0.0000997 0.0001473 0.0000337 0.0001671 0.0000624 0.0006939 0.0001554 0.0008402 0.0000093 0.0006249 0.0000108 0.0002335 -0.0000453 0.0000209 0.0001138 0.0001386 0.0001970 0.0006974 0.0000678 0.0001737 -0.0001563 -0.0000180 0.0003204 0.0002363 -0.0186843 0.0127112 0.0095594 -0.0188109 -0.0033429 -0.0128093 -0.0051987 0.0075835 0.0082909 -0.0043575 0.0141948 -0.0196062 0.0007383 -0.0010685 0.0043555 -0.0090544 -0.0080274 0.0148327 -0.0132121 0.0090023 -0.0029996 -0.0025112 0.0049716 -0.0018727 0.0000607 -0.0002932 0.0001278 -0.0000218 -0.0001426 -0.0012674 0.0000330 -0.0000859 0.0001875 -0.0002484 0.0000927 -0.0002225 -0.0001119 -0.0008051 0.0001558 -0.0000797 0.0000686 -0.0001892 0.0000704 -0.0004903 0.0000617 -0.0003249 0.0000475 -0.0001205 0.0000682 -0.0000684 -0.0000594 -0.0005836 -0.0000646 -0.0005568 0.0000455 -0.0003837 0.0000882 -0.0005098 0.0001484 -0.0001593 0.0001226 -0.0006466 -0.0000025 -0.0002518 -0.0000376 -0.0004891 0.0000266 -0.0002480 0.0000488 -0.0002522 0.0003202 0.0009547 0.0002667 0.0007061 0.0003176 0.0003994 0.0002018 0.0001620 0.0001893 0.0005719 0.0000960 0.0002264 0.0001353 -0.0005686 0.0003246 -0.0000616 0.0001831 -0.0000982 0.0001969 0.0000619 0.0001350 -0.0000296 0.0000879 -0.0000025
0.0000029 0.0001792 -0.0000210 0.0003221 0.0003673 0.0012425 0.0006410 0.0014864 0.0000926 0.0006303 0.0001566 0.0007854 0.0000794 0.0002319 -0.0000426 0.0001329 -0.0000623 0.0005798 -0.0000674 0.0006926 0.0001733 0.0008260 -0.0000287 0.0002129 -0.0000095 -0.0000664 0.0000688 0.0007163 0.0001286 0.0007418 -0.0000092 0.0006031 0.0000402 0.0003252 -0.0000253 0.0000909 0.0000755 0.0001060 0.0002152 0.0007754 0.0000823 0.0003356 -0.0001821 0.0000001 0.0003905 0.0003596 -0.0132004 0.0096998 0.0077079 -0.0149547 0.0145362 -0.0271861 -0.0102487 0.0126905 0.0029317 0.0006119 0.0124061 -0.0286716 0.0022859 -0.0033841 0.0113181 -0.0103841 -0.0078594 0.0093850 -0.0074021 0.0008322 0.0184615 -0.0333921 0.0054072 -0.0011437 0.0000686 -0.0001821 0.0000989 -0.0000257 -0.0000832 -0.0009346 -0.0000149 -0.0002167 0.0001811 -0.0002465 0.0000797 -0.0002330 -0.0000748 -0.0006943 0.0001233 -0.0001284 0.0000552 -0.0001322 0.0000633 -0.0004191 0.0000556 -0.0002553 0.0000610 -0.0000819 0.0000476 -0.0001072 -0.0000614 -0.0005638 -0.0000717 -0.0006998 0.0000501 -0.0003895 0.0001008 -0.0004567 0.0001096 -0.0003071 0.0001409 -0.0006782 0.0000141 -0.0002063 -0.0000224 -0.0005392 0.0000286 -0.0002855 0.0000607 -0.0003564 0.0002952 0.0009475 0.0002426 0.0005773 0.0003166 0.0002511 0.0001950 -0.0001190 0.0001955 0.0003811 0.0001060 -0.0000480 0.0001167 -0.0007584 0.0003137 -0.0001676 0.0001487 -0.0002830 0.0002045 -0.0002128 0.0001518 -0.0003004 0.0001023 -0.0002581
-0.0000141 0.0001795 -0.0000098 0.0003820 0.0004221 0.0012446 0.0007047 0.0018225 0.0000792 0.0005644 0.0001615 0.0008499 0.0000987 0.0003012 -0.0000576 0.0000877 -0.0000410 0.0005807 -0.0000432 0.0007413 0.0001590 0.0008551 -0.0000108 0.0002134 -0.0000253 -0.0000975 0.0000810 0.0007602 0.0001119 0.0007233 0.0000077 0.0006069 0.0000423 0.0002944 -0.0000260 0.0001280 0.0000662 0.0001091 0.0001973 0.0007376 0.0000801 0.0004341 -0.0001614 0.0000379 0.0003032 0.0003339 -0.0090186 0.0123161 0.0112845 -0.0218455 0.0124972 -0.0138965 -0.0001320 0.0068210 0.0017727 -0.0063545 0.0069478 -0.0278471 -0.0008333 0.0016316 0.0005519 0.0048262 -0.0100292 0.0076128 -0.0123912 0.0000410 0.0066734 -0.0109398 -0.0102366 0.0097381 0.0000890 -0.0003355 0.0001163 -0.0002390 -0.0000789 -0.0011286 -0.0000031 -0.0002973 0.0002106 -0.0005174 0.0000847 -0.0004780 -0.0000263 -0.0009026 0.0001176 -0.0004022 0.0000654 -0.0003242 0.0000548 -0.0005322 0.0000775 -0.0003929 0.0000920 -0.0002339 0.0000451 -0.0001942 -0.0000504 -0.0006336 -0.0000733 -0.0008254 0.0000713 -0.0005466 0.0001282 -0.0006041 0.0001285 -0.0006506 0.0001755 -0.0008994 0.0000262 -0.0003054 0.0000023 -0.0007406 0.0000479 -0.0003831 0.0000825 -0.0005602 0.0002882 0.0007122 0.0002443 0.0003452 0.0003082 0.0000185 0.0002207 -0.0004769 0.0002009 0.0001285 0.0001216 -0.0003867 0.0001089 -0.0009070 0.0002811 -0.0003417 0.0001761 -0.0004001 0.0002078 -0.0003538 0.0001659 -0.0003853 0.0001079 -0.0003010
-0.0000177 0.0001818 -0.0000099 0.0003831 0.0003582 0.0009512 0.0005865 0.0015745 0.0000609 0.0005985 0.0001348 0.0007819 0.0001142 0.0003571 -0.0000563 0.0001006 0.0000118 0.0005598 -0.0000219 0.0007093 0.0001458 0.0008349 -0.0000443 0.0002630 -0.0000093 0.0000385 0.0000844 0.0007805 0.0001136 0.0007743 0.0000108 0.0006069 0.0000365 0.0002353 -0.0000391 0.0000808 0.0000673 0.0001628 0.0001786 0.0006963 0.0000793 0.0004658 -0.0001505 0.0000677 0.0002011 0.0001669 0.0026983 0.0016001 0.0004727 0.0040605 -0.0061055 0.0043339 0.0042480 -0.0026740 0.0044997 -0.0088396 0.0180929 -0.0296282 -0.0019114 0.0027351 -0.0077678 0.0110815 -0.0097973 0.0138795 -0.0198165 0.0154947 -0.0057694 0.0075112 -0.0161504 0.0200144 0.0001012 -0.0003527 0.0001133 -0.0003078 -0.0000453 -0.0010297 -0.0000038 -0.0003091 0.0002286 -0.0004717 0.0000854 -0.0004598 0.0000067 -0.0007956 0.0001230 -0.0003953 0.0000812 -0.0002985 0.0000596 -0.0005369 0.0000939 -0.0003806 0.0000840 -0.0002232 0.0000465 -0.0001679 -0.0000458 -0.0005969 -0.0000646 -0.0007905 0.0000659 -0.0004821 0.0001175 -0.0004658 0.0001095 -0.0005235 0.0001909 -0.0007087 0.0000326 -0.0002114 0.0000197 -0.0005735 0.0000456 -0.0003401 0.0000671 -0.0003693 0.0002421 0.0010928 0.0002443 0.0006665 0.0002872 0.0003365 0.0002257 -0.0001774 0.0001661 0.0004596 0.0001082 -0.0000311 0.0001161 -0.0006267 0.0002139 -0.0001364 0.0001458 -0.0001408 0.0001872 -0.0000744 0.0001406 -0.0000224 0.0000945 0.0000404
-0.0000170 0.0003740 -0.0000179 0.0004419 0.0002432 0.0008191 0.0004098 0.0013506 0.0000547 0.0006837 0.0000602 0.0007457 0.0001417 0.0006722 -0.0000336 0.0002632 0.0000420 0.0005654 0.0000083 0.0007424 0.0000963 0.0008300 -0.0000661 0.0003128 -0.0000073 0.0001969 0.0000933 0.0007905 0.0001024 0.0008046 0.0000192 0.0006160 0.0000217 0.0001857 -0.0000395 0.0001306 0.0000360 0.0002350 0.0001328 0.0005604 0.0000591 0.0005059 -0.0001296 0.0002043 0.0001579 0.0002613 0.0028567 -0.0014045 -0.0065194 0.0158436 0.0045378 -0.0116715 0.0071441 -0.0222356 0.0067232 -0.0025356 0.0078581 -0.0075349 0.0005012 0.0007540 0.0054266 -0.0127892 -0.0031078 0.0069029 -0.0176891 0.0180093 -0.0039071 0.0048850 -0.0057798 0.0032412 0.0000915 -0.0000902 0.0000629 -0.0000879 -0.0000267 -0.0007183 -0.0000024 -0.0001476 0.0001963 -0.0001172 0.0000509 -0.0001292 0.0000091 -0.0003990 0.0000920 -0.0000746 0.0000705 -0.0000452 0.0000534 -0.0003407 0.0000712 -0.0001463 0.0000884 -0.0000437 0.0000448 -0.0000267 -0.0000544 -0.0004228 -0.0000619 -0.0006420 0.0000263 -0.0002519 0.0000564 -0.0001031 0.0000587 -0.0002517 0.0001621 -0.0003145 0.0000249 0.0000181 0.0000180 -0.0002369 0.0000213 -0.0002358 0.0000460 -0.0000510 0.0001805 0.0016396 0.0002183 0.0011085 0.0002440 0.0007400 0.0001769 0.0002192 0.0001198 0.0009235 0.0000722 0.0004213 0.0000922 -0.0002342 0.0001482 0.0002044 0.0000538 0.0002110 0.0001591 0.0002329 0.0000779 0.0004494 0.0000614 0.0004047
-0.0000137 0.0004238 -0.0000360 0.0004161 0.0001689 0.0007664 0.0003565 0.0012491 0.0000698 0.0006821 0.0000174 0.0006701 0.0001384 0.0006995 -0.0000429 0.0002897 0.0000292 0.0005949 0.0000177 0.0007506 0.0001105 0.0007572 -0.0000786 0.0003744 0.0000012 0.0002586 0.0000846 0.0006930 0.0000819 0.0007064 0.0000214 0.0005700 0.0000211 0.0002533 -0.0000287 0.0001058 0.0000276 0.0001694 0.0001233 0.0006253 0.0000547 0.0005340 -0.0001319 0.0003485 0.0002699 0.0006350 -0.0007176 -0.0023792 -0.0101024 0.0189378 0.0165369 -0.0204061 0.0109231 -0.0172216 0.0126564 -0.0056710 -0.0096465 0.0074252 -0.0006898 0.0017405 -0.0010208 -0.0087782 0.0028384 -0.0164031 0.0001085 -0.0077768 -0.0063555 0.0131224 0.0274547 -0.0694144 0.0000733 0.0001867 0.0000380 0.0001453 -0.0000160 -0.0004570 -0.0000011 -0.0000034 0.0001506 0.0000963 0.0000046 0.0001204 0.0000151 -0.0001464 0.0000439 0.0001586 0.0000478 0.0001148 0.0000384 -0.0001660 0.0000594 0.0000269 0.0000865 0.0000916 0.0000374 0.0000326 -0.0000562 -0.0002922 -0.0000704 -0.0006136 0.0000171 -0.0001360 0.0000531 0.0000179 0.0000370 -0.0002237 0.0001165 -0.0002079 0.0000245 0.0001169 0.0000175 -0.0001893 0.0000098 -0.0002082 0.0000443 -0.0000439 0.0001480 0.0017006 0.0001772 0.0010840 0.0002066 0.0006686 0.0001353 0.0000358 0.0000848 0.0007911 0.0000521 0.0001893 0.0000380 -0.0004034 0.0002077 0.0000573 0.0000402 -0.0000007 0.0001483 -0.0000190 0.0000606 0.0001950 0.0000444 0.0001395
-0.0000212 0.0004392 -0.0000409 0.0004084 0.0002739 0.0011712 0.0005259 0.0020411 0.0000310 0.0007041 0.0000491 0.0007653 0.0001894 0.0012526 -0.0000513 0.0002485 0.0000670 0.0005345 0.0002144 0.0010608 -0.0000302 0.0006864 -0.0001164 0.0002458 -0.0000118 0.0001728 0.0001188 0.0007832 -0.0000118 0.0003939 0.0000238 0.0005521 0.0000858 0.0005603 0.0000230 0.0004133 -0.0000219 0.0001047 0.0001209 0.0006876 0.0000410 0.0005908 -0.0001182 0.0006558 0.0005141 0.0014429 0.0049007 -0.0038015 -0.0041242 0.0047780 0.0034695 0.0009176 0.0065200 -0.0072744 0.0096897 -0.0079914 -0.0050756 0.0035853 0.0014624 -0.0029033 0.0030354 -0.0105719 -0.0034743 -0.0061106 0.0019145 -0.0094978 -0.0028272 0.0098087 0.0010075 -0.0049958 0.0000806 0.0000120 0.0000509 -0.0000543 0.0000299 -0.0004087 -0.0000101 -0.0001083 0.0001517 -0.0001911 0.0000032 -0.0001202 0.0000562 -0.0002849 0.0000379 -0.0000592 0.0000451 -0.0000350 0.0000277 -0.0002111 0.0000715 -0.0000779 0.0001083 -0.0000335 0.0000265 -0.0000589 -0.0000445 -0.0002968 -0.0000787 -0.0007214 0.0000361 -0.0002187 0.0000897 -0.0001591 0.0000488 -0.0003971 0.0001231 -0.0004528 0.0000242 0.0000045 0.0000276 -0.0004129 0.0000244 -0.0002689 0.0000518 -0.0002470 0.0001280 0.0014561 0.0001706 0.0008458 0.0001859 0.0004204 0.0001291 -0.0003476 0.0000692 0.0004340 0.0000608 -0.0002473 0.0000281 -0.0007429 0.0002221 -0.0001890 0.0000745 -0.0003531 0.0001438 -0.0003339 0.0000766 -0.0001946 0.0000783 -0.0002093
-0.0000523 0.0003601 -0.0000442 0.0004053 0.0003125 0.0012094 0.0005659 0.0022884 -0.0000336 0.0005228 0.0000482 0.0007181 0.0002430 0.0014897 -0.0000661 0.0002169 0.0000821 0.0003312 0.0002526 0.0011773 -0.0001318 0.0004405 -0.0001537 0.0001015 -0.0000428 0.0000279 0.0001372 0.0007784 -0.0000737 0.0001434 0.0000334 0.0005374 0.0001432 0.0006828 0.0000562 0.0005799 -0.0000818 0.0000217 0.0001066 0.0006091 0.0000124 0.0005426 -0.0000838 0.0008040 0.0005946 0.0017817 -0.0027554 0.0080072 0.0070431 -0.0129446 -0.0006236 -0.0003055 -0.0043604 0.0002743 0.0067686 -0.0193445 -0.0042298 0.0087725 0.0000447 -0.0004830 0.0147190 -0.0339308 0.0000911 0.0080973 -0.0034129 -0.0007522 -0.0025071 -0.0016617 -0.0138431 0.0160344 0.0000930 -0.0001981 0.0000558 -0.0003095 0.0000833 -0.0003442 -0.0000121 -0.0002001 0.0001671 -0.0003614 0.0000222 -0.0002952 0.0000971 -0.0002649 0.0000452 -0.0001975 0.0000425 -0.0001201 0.0000294 -0.0002432 0.0000788 -0.0001447 0.0000940 -0.0000961 0.0000210 -0.0000656 -0.0000413 -0.0002691 -0.0000764 -0.0006809 0.0000309 -0.0001806 0.0000632 -0.0001460 0.0000783 -0.0003289 0.0001493 -0.0004577 0.0000044 0.0000090 0.0000303 -0.0003614 0.0000365 -0.0002358 0.0000422 -0.0001610 0.0000933 0.0016955 0.0001640 0.0010560 0.0001598 0.0006385 0.0001201 -0.0001048 0.0000464 0.0007176 0.0000387 0.0000626 0.0000269 -0.0004592 0.0002071 -0.0000065 0.0000730 -0.0001483 0.0001260 -0.0000435 0.0000238 0.0001963 0.0000583 0.0001471
-0.0000620 0.0003283 -0.0000389 0.0003933 0.0002111 0.0008406 0.0004146 0.0016253 -0.0000392 0.0005649 0.0000184 0.0005963 0.0001730 0.0010945 -0.0000716 0.0001838 0.0000055 0.0004129 0.0000712 0.0008830 0.0000128 0.0004758 -0.0001209 0.0002651 -0.0000594 0.0000822 0.0000912 0.0005900 -0.0000485 0.0001922 0.0000296 0.0005519 0.0001312 0.0007889 0.0000253 0.0004943 -0.0000702 0.0001682 0.0001221 0.0007648 -0.0000021 0.0005569 -0.0000870 0.0007544 0.0005309 0.0015770 -0.0132277 0.0117202 0.0091212 -0.0150914 0.0042228 -0.0031814 -0.0030993 0.0009712 0.0166875 -0.0442666 0.0049247 -0.0012506 -0.0012708 0.0030583 0.0152518 -0.0369319 -0.0005106 0.0139996 0.0033239 -0.0012964 0.0114477 -0.0231965 -0.0080424 0.0060594 0.0000728 0.0000634 0.0000165 -0.0000821 0.0001040 0.0000143 -0.0000123 -0.0000540 0.0001304 -0.0000169 -0.0000113 0.0000590 0.0001037 0.0001592 0.0000131 0.0001333 0.0000192 0.0001192 0.0000302 -0.0000671 0.0000325 0.0000819 0.0000272 0.0001218 0.0000206 0.0000731 -0.0000527 -0.0001010 -0.0000701 -0.0004936 0.0000046 0.0000592 0.0000466 0.0001077 0.0000708 -0.0000249 0.0001143 -0.0001055 -0.0000066 0.0002438 0.0000173 -0.0000370 0.0000173 -0.0000928 0.0000250 0.0001599 0.0000465 0.0022329 0.0001176 0.0014851 0.0001221 0.0010462 0.0000927 0.0003365 0.0000101 0.0011914 -0.0000023 0.0005590 0.0000014 -0.0000266 0.0002293 0.0002316 0.0000244 0.0002017 0.0000637 0.0003334 -0.0000325 0.0007129 0.0000189 0.0005794
-0.0000272 0.0004411 -0.0000295 0.0004081 0.0002157 0.0009188 0.0004455 0.0014693 -0.0000108 0.0006788 0.0000175 0.0006283 0.0001037 0.0008032 -0.0000797 0.0000671 -0.0000593 0.0005040 0.0000155 0.0007556 0.0000858 0.0005260 -0.0001227 0.0003859 -0.0000579 0.0000005 0.0000729 0.0004324 -0.0000423 0.0001042 0.0000240 0.0004918 0.0001208 0.0008256 0.0000159 0.0003612 -0.0000393 0.0001538 0.0001583 0.0008939 -0.0000026 0.0005401 -0.0001015 0.0006484 0.0005085 0.0013620 -0.0049650 0.0029440 0.0099870 -0.0212297 0.0044829 -0.0015262 0.0150853 -0.0250230 0.0118208 -0.0274418 0.0158101 -0.0240531 -0.0003773 0.0003866 0.0168248 -0.0318818 0.0007667 0.0045009 0.0008187 0.0018215 0.0085625 -0.0167484 0.0032058 -0.0081120 0.0000462 0.0003964 -0.0000135 0.0002406 0.0001025 0.0003843 -0.0000112 0.0001454 0.0000741 0.0003263 -0.0000559 0.0004392 0.0000875 0.0005125 -0.0000282 0.0004835 0.0000012 0.0003714 0.0000080 0.0001524 -0.0000084 0.0003227 0.0000189 0.0003223 0.0000200 0.0001732 -0.0000571 0.0000478 -0.0000686 -0.0003965 -0.0000184 0.0002295 0.0000456 0.0002833 0.0000293 0.0000947 0.0000694 0.0000422 0.0000017 0.0003852 -0.0000014 0.0000479 -0.0000023 -0.0000296 0.0000222 0.0002470 0.0000183 0.0023029 0.0000852 0.0015190 0.0000758 0.0010512 0.0000620 0.0002333 -0.0000299 0.0011028 -0.0000252 0.0004200 -0.0000329 -0.0001110 0.0001595 0.0002255 0.0000134 0.0000431 0.0000385 0.0001596 -0.0000290 0.0004700 0.0000193 0.0003473
-0.0000158 0.0004444 -0.0000332 0.0004110 0.0002219 0.0009043 0.0004525 0.0013129 -0.0000030 0.0006427 0.0000047 0.0006126 0.0000826 0.0006740 -0.0000997 0.0000007 -0.0000621 0.0004711 0.0000038 0.0006985 0.0000740 0.0004868 -0.0001679 0.0004166 -0.0000478 -0.0000187 0.0000581 0.0003587 -0.0000451 0.0000589 0.0000282 0.0004706 0.0001183 0.0008174 0.0000034 0.0003187 -0.0000433 0.0002181 0.0001594 0.0009434 -0.0000137 0.0006042 -0.0001137 0.0006365 0.0004783 0.0012966 -0.0011767 0.0026815 -0.0077607 0.0130226 0.0052668 -0.0055062 0.0131594 -0.0202701 0.0005433 -0.0034460 -0.0014117 0.0053919 -0.0003192 -0.0004085 0.0035795 0.0004460 0.0045100 -0.0178538 0.0023838 -0.0073910 -0.0031631 -0.0143343 0.0058211 -0.0109242 0.0000512 0.0002545 -0.0000198 0.0001482 0.0000973 0.0002671 0.0000062 0.0001389 0.0000667 0.0001002 -0.0000545 0.0002541 0.0000878 0.0003173 -0.0000317 0.0003153 -0.0000013 0.0002490 -0.0000042 0.0001480 0.0000084 0.0002501 0.0000329 0.0002390 0.0000255 0.0001491 -0.0000531 0.0000348 -0.0000600 -0.0003775 -0.0000094 0.0001774 0.0000543 0.0001607 0.0000321 -0.0000718 0.0000707 -0.0001919 0.0000150 0.0002787 0.0000004 -0.0001711 0.0000122 -0.0000835 0.0000224 0.0000282 0.0000295 0.0020488 0.0000794 0.0012877 0.0000602 0.0008095 0.0000343 -0.0001124 -0.0000443 0.0007468 -0.0000155 0.0000109 -0.0000330 -0.0003756 0.0001126 0.0001002 0.0000534 -0.0003240 0.0000627 -0.0001873 -0.0000038 0.0000138 0.0000269 -0.0000092
-0.0000197 0.0003803 -0.0000387 0.0003900 0.0001641 0.0006257 0.0003291 0.0009670 -0.0000163 0.0005938 -0.0000334 0.0005855 0.0000791 0.0007066 -0.0001160 0.0000701 0.0000157 0.0003366 0.0000144 0.0006253 0.0000268 0.0004119 -0.0002178 0.0003951 -0.0000356 0.0000206 0.0000511 0.0003156 -0.0000457 0.0000289 0.0000422 0.0003939 0.0001302 0.0006975 0.0000005 0.0002681 -0.0000491 0.0002118 0.0001265 0.0008613 -0.0000304 0.0005498 -0.0001018 0.0005318 0.0004401 0.0011560 0.0039154 -0.0055085 -0.0055175 0.0062052 0.0031288 -0.0048720 -0.0022528 0.0018600 -0.0119534 0.0178838 -0.0115204 0.0135636 -0.0043551 0.0036813 -0.0066319 0.0093712 0.0123667 -0.0345335 0.0049091 -0.0087291 0.0041709 -0.0292189 0.0123425 -0.0125564 0.0000529 -0.0000204 -0.0000076 0.0000021 0.0000940 0.0000410 0.0000324 0.0000805 0.0000804 -0.0001605 -0.0000166 0.0000634 0.0000727 0.0000471 -0.0000177 0.0001364 -0.0000149 0.0000592 0.0000028 0.0001157 0.0000085 0.0002170 0.0000439 0.0001128 0.0000484 0.0002299 -0.0000611 0.0000172 -0.0000267 -0.0001843 0.0000096 0.0002409 0.0000603 0.0001588 0.0000599 -0.0000990 0.0000830 -0.0002127 0.0000190 0.0002950 0.0000355 -0.0001176 0.0000290 -0.0000437 0.0000144 -0.0000453 0.0000694 0.0022641 0.0000435 0.0013556 0.0000484 0.0009597 0.0000128 0.0000331 -0.0000632 0.0008984 -0.0000127 0.0001613 -0.0000136 -0.0000335 0.0000486 0.0002819 0.0000217 -0.0001858 0.0000247 -0.0000124 -0.0000184 0.0002966 0.0000065 0.0002928
-0.0000032 0.0004118 -0.0000429 0.0003464 0.0001342 0.0006284 0.0003345 0.0009030 0.0000367 0.0007277 -0.0000270 0.0005927 0.0000427 0.0005354 -0.0001223 -0.0000017 -0.0000011 0.0003450 0.0000029 0.0004999 0.0000322 0.0004344 -0.0002022 0.0004240 -0.0000309 -0.0000235 0.0000485 0.0002056 -0.0000352 -0.0000240 0.0000383 0.0002924 0.0001383 0.0006717 -0.0000058 0.0001866 -0.0000494 0.0002014 0.0001372 0.0009216 -0.0000332 0.0005224 -0.0000976 0.0005890 0.0004407 0.0012631 0.0025116 -0.0039571 0.0033706 -0.0140417 0.0017742 -0.0036160 -0.0026449 0.0024014 -0.0083958 0.0192370 -0.0005516 -0.0003936 -0.0046186 0.0039952 0.0004578 0.0047459 0.0102468 -0.0221503 -0.0051876 0.0033842 -0.0068799 0.0006879 0.0190827 -0.0219817 0.0000350 0.0001799 0.0000397 0.0002910 0.0000711 0.0001863 0.0000365 0.0001664 0.0000451 0.0001994 -0.0000140 0.0005004 0.0000317 0.0003018 -0.0000377 0.0005221 -0.0000536 0.0002446 0.0000008 0.0003363 0.0000209 0.0005280 0.0000509 0.0002723 0.0000814 0.0004630 -0.0000775 0.0001352 0.0000162 0.0001861 0.0000034 0.0005424 0.0000255 0.0005210 0.0000348 0.0001333 0.0000678 0.0001199 0.0000251 0.0005616 0.0000551 0.0002337 0.0000113 0.0001535 -0.0000106 0.0001236 0.0000965 0.0028176 0.0000048 0.0017285 0.0000177 0.0013007 -0.0000350 0.0004070 -0.0000822 0.0012218 -0.0000247 0.0005369 -0.0000318 0.0004908 0.0000036 0.0005737 -0.0000371 0.0000939 -0.0000142 0.0002228 -0.0000671 0.0006919 -0.0000164 0.0006224
-0.0000079 0.0003972 -0.0000455 0.0003117 0.0001261 0.0005521 0.0003064 0.0007476 0.0000382 0.0006925 -0.0000204 0.0005325 0.0000342 0.0004775 -0.0001157 -0.0000666 -0.0000360 0.0003991 0.0000243 0.0004221 0.0000735 0.0004163 -0.0000797 0.0003024 -0.0000288 -0.0000698 0.0000589 0.0001428 -0.0000014 0.0000509 0.0000460 0.0002412 0.0000875 0.0005599 -0.0000267 0.0000216 -0.0000297 0.0002312 0.0001418 0.0008939 -0.0000433 0.0004377 -0.0000658 0.0002534 0.0001455 0.0005417 -0.0010184 0.0022629 -0.0081644 0.0129777 -0.0013247 0.0031366 0.0007264 -0.0034636 0.0081637 -0.0066400 0.0038072 -0.0036024 0.0004170 -0.0007545 0.0007779 0.0105819 0.0084585 -0.0205013 -0.0003076 -0.0040762 -0.0130527 0.0194414 0.0170031 -0.0240936 0.0000163 0.0003922 0.0000671 0.0005804 -0.0000058 0.0001232 0.0000331 0.0002400 0.0000196 0.0004364 -0.0000227 0.0007678 -0.0000029 0.0003892 -0.0000624 0.0007398 -0.0000596 0.0003654 -0.0000127 0.0004687 0.0000710 0.0007090 0.0000317 0.0004109 0.0001095 0.0005269 -0.0000733 0.0002166 0.0000368 0.0004188 -0.0000052 0.0006446 0.0000174 0.0006224 -0.0000102 0.0001396 0.0000448 0.0001527 0.0000390 0.0006449 0.0000561 0.0002401 0.0000097 0.0002361 -0.0000189 0.0000802 0.0000921 0.0026279 -0.0001607 0.0014348 -0.0000087 0.0011509 -0.0000509 0.0002677 -0.0000821 0.0009837 -0.0000257 0.0002928 -0.0000546 0.0002761 0.0001009 0.0003322 -0.0000146 -0.0000664 0.0000118 0.0000031 -0.0000762 0.0004344 0.0000024 0.0003250
-0.0000267 0.0002564 -0.0000503 0.0002703 0.0000874 0.0002187 0.0001874 0.0003064 -0.0000131 0.0004485 -0.0000445 0.0004433 0.0000503 0.0004817 -0.0001220 -0.0000477 -0.0000426 0.0003827 0.0000557 0.0003279 0.0000798 0.0004684 -0.0000569 0.0002719 -0.0000312 -0.0000794 0.0000713 0.0001530 0.0000399 0.0002094 0.0000377 0.0002008 0.0000383 0.0003302 -0.0000510 -0.0001091 -0.0000310 0.0001784 0.0000978 0.0007153 -0.0000728 0.0002796 -0.0000613 -0.0001106 -0.0001936 -0.0003556 -0.0092993 0.0100177 -0.0136349 0.0266318 0.0049708 -0.0080657 0.0033248 -0.0069681 0.0189384 -0.0410209 0.0070883 -0.0189045 0.0024480 -0.0034310 -0.0001998 -0.0031473 0.0106325 -0.0191844 -0.0001417 -0.0027954 -0.0003781 0.0112063 0.0014227 -0.0048448 0.0000213 0.0001913 0.0000476 0.0004506 -0.0001330 -0.0005385 0.0000423 0.0002103 0.0000602 0.0001729 0.0000051 0.0004690 -0.0000204 0.0000328 -0.0000509 0.0004670 -0.0000434 0.0002145 -0.0000125 0.0003736 0.0000715 0.0006065 0.0000249 0.0003058 0.0001213 0.0004158 -0.0000574 0.0001503 0.0000423 0.0003889 0.0000077 0.0004937 0.0000600 0.0003716 -0.0000098 -0.0000959 0.0000723 -0.0001460 0.0000529 0.0004744 0.0000587 -0.0000473 0.0000293 0.0001144 -0.0000012 -0.0001768 0.0000861 0.0020239 -0.0003433 0.0007829 -0.0000254 0.0007844 -0.0000472 -0.0000404 -0.0000847 0.0006089 -0.0000111 -0.0001179 -0.0000368 -0.0000955 0.0000829 0.0000340 0.0000435 -0.0003481 0.0000649 -0.0002838 -0.0000359 0.0000363 0.0000276 -0.0000080
-0.0000467 0.0002025 -0.0000398 0.0002935 0.0000068 0.0000223 0.0000646 0.0000208 -0.0000502 0.0002788 -0.0000729 0.0004135 0.0000611 0.0004230 -0.0000970 0.0000111 -0.0000973 0.0003155 -0.0000041 0.0002431 0.0001589 0.0005490 -0.0000963 0.0002956 -0.0000340 -0.0000988 0.0000586 0.0001178 0.0000283 0.0002347 -0.0000126 0.0000284 -0.0000081 0.0000335 -0.0000536 -0.0000090 -0.0001500 -0.0000518 -0.0000256 0.0003149 -0.0000718 0.0003677 -0.0001279 -0.0001993 -0.0000262 0.0000611 -0.0206135 0.0205576 -0.0032248 0.0094668 0.0073433 -0.0086208 -0.0003303 -0.0048073 0.0166748 -0.0247072 0.0083829 -0.0176864 0.0031130 -0.0047570 0.0002453 -0.0035830 0.0016396 0.0008784 0.0013324 -0.0011107 0.0157173 -0.0173165 -0.0073483 0.0113467 0.0000370 -0.0000114 0.0000602 0.0002648 -0.0001869 -0.0009489 0.0000391 0.0001277 0.0000850 0.0000508 0.0000288 0.0003430 -0.0000309 -0.0001158 -0.0000216 0.0003597 -0.0000800 0.0001396 -0.0000163 0.0003358 0.0000710 0.0006066 0.0000283 0.0002222 0.0001575 0.0004130 -0.0000715 0.0001389 0.0000794 0.0008546 0.0000103 0.0004987 0.0000770 0.0003640 0.0000352 -0.0000613 0.0000862 -0.0001455 0.0000455 0.0004680 0.0000614 0.0000029 0.0000452 0.0001687 0.0000018 -0.0001406 0.0000562 0.0022425 -0.0003345 0.0010366 -0.0001026 0.0008942 -0.0000647 0.0002793 -0.0000940 0.0008896 0.0000114 0.0002910 0.0000298 0.0004881 0.0000377 0.0001795 0.0000091 -0.0001332 0.0000327 -0.0000136 -0.0000636 0.0003694 0.0000140 0.0003402
-0.0000888 0.0000254 -0.0000039 0.0003367 -0.0000673 -0.0002614 -0.0001057 -0.0003903 -0.0000800 -0.0000180 -0.0001120 0.0002502 0.0000928 0.0003493 -0.0000678 0.0001401 -0.0000917 0.0001281 -0.0000153 0.0002024 0.0001083 0.0002511 -0.0000991 0.0001351 -0.0000177 -0.0001257 -0.0000140 -0.0001306 -0.0000422 0.0000103 -0.0000793 -0.0002771 -0.0002659 -0.0008627 -0.0000483 0.0001158 -0.0002662 -0.0003120 -0.0002288 -0.0003381 -0.0000288 0.0006929 -0.0000980 -0.0004166 0.0000887 0.0005180 -0.0124398 0.0172052 0.0157429 -0.0382235 0.0015008 0.0001724 -0.0093538 -0.0005245 0.0102124 -0.0049205 0.0198390 -0.0359590 -0.0012214 0.0012942 -0.0007215 -0.0028964 -0.0075076 0.0139145 0.0105171 -0.0133552 0.0119883 -0.0185594 0.0081493 -0.0046365 0.0000201 0.0002263 0.0001158 0.0004956 -0.0002005 -0.0007994 0.0000398 0.0002887 0.0000290 0.0004136 0.0000044 0.0006939 -0.0000713 0.0001864 -0.0000255 0.0007707 -0.0001169 0.0003579 -0.0000432 0.0005077 0.0001006 0.0008035 0.0000037 0.0003904 0.0001726 0.0004906 -0.0000861 0.0002546 0.0001013 0.0012408 -0.0000245 0.0007283 0.0000310 0.0006260 0.0000378 0.0002732 0.0000403 0.0002026 0.0000226 0.0006599 0.0000477 0.0003450 0.0000356 0.0003148 0.0000046 0.0001857 0.0000208 0.0028141 -0.0003345 0.0015056 -0.0001742 0.0012089 -0.0000803 0.0007534 -0.0001262 0.0012914 -0.0000171 0.0008830 0.0000688 0.0011058 0.0000322 0.0003578 -0.0000595 0.0000702 -0.0000116 0.0002178 -0.0001247 0.0005718 0.0000245 0.0004947
-0.0000881 -0.0000084 0.0000235 0.0004045 -0.0000398 -0.0003246 -0.0001343 -0.0005967 -0.0000262 -0.0000060 -0.0000960 0.0001693 0.0000308 -0.0000196 -0.0000866 0.0000068 -0.0000512 0.0001823 0.0000063 0.0001891 0.0000362 -0.0000402 -0.0000443 -0.0000103 -0.0000207 -0.0002346 -0.0001062 -0.0004161 -0.0001224 -0.0003221 -0.0001224 -0.0003872 -0.0005408 -0.0016299 -0.0000382 0.0001484 -0.0002683 -0.0004338 -0.0003037 -0.0005031 -0.0000149 0.0007737 -0.0000444 -0.0008674 -0.0001355 -0.0001687 -0.0040783 0.0125082 -0.0045248 -0.0047597 -0.0163788 0.0153685 -0.0099547 -0.0030672 -0.0063785 0.0161387 0.0142045 -0.0251882 -0.0056736 0.0059254 -0.0036098 -0.0006340 -0.0122918 0.0268528 0.0156587 -0.0217425 -0.0039869 -0.0051264 0.0152420 -0.0214162 0.0000089 0.0003257 0.0000932 0.0006517 -0.0001814 -0.0006416 0.0000240 0.0003428 -0.0000057 0.0004210 -0.0000290 0.0006773 -0.0000661 0.0002398 -0.0000255 0.0008360 -0.0001001 0.0004047 -0.0000611 0.0005454 0.0000970 0.0007953 -0.0000244 0.0004675 0.0001309 0.0003850 -0.0000781 0.0002709 0.0000722 0.0009250 -0.0000330 0.0007122 0.0000051 0.0005523 0.0000355 0.0003286 0.0000261 0.0001315 0.0000170 0.0005622 0.0000315 0.0002245 0.0000099 0.0001863 0.0000224 0.0001499 0.0000242 0.0026695 -0.0002396 0.0014982 -0.0001577 0.0010064 -0.0000891 0.0005556 -0.0001196 0.0010338 -0.0000099 0.0006490 0.0000748 0.0009106 -0.0000466 0.0003045 -0.0000645 -0.0000940 0.0000189 -0.0000011 -0.0001214 0.0002811 0.0000500 0.0001968
-0.0000215 0.0001335 0.0000282 0.0004004 -0.0000909 -0.0004291 -0.0002151 -0.0008722 0.0000273 0.0001394 -0.0000926 0.0001136 -0.0000457 -0.0003650 -0.0000935 -0.0002004 -0.0000562 0.0005422 -0.0000237 0.0004804 0.0001109 0.0002710 0.0000150 0.0001862 -0.0000189 -0.0002386 -0.0001033 -0.0003967 -0.0001221 -0.0003825 -0.0001010 -0.0003125 -0.0004819 -0.0015169 -0.0000458 -0.0000033 -0.0002249 -0.0004475 -0.0002065 -0.0002532 -0.0000282 0.0005672 -0.0000512 -0.0013967 -0.0004411 -0.0010729 0.0017508 0.0074401 -0.0295258 0.0255553 -0.0153169 0.0095636 0.0084033 -0.0157648 -0.0020920 0.0030155 -0.0000993 0.0057864 -0.0022202 0.0019398 -0.0103280 0.0129485 -0.0031143 0.0124525 0.0163915 -0.0300492 0.0066245 -0.0200092 0.0065201 -0.0111993 0.0000167 0.0001252 0.0000945 0.0004683 -0.0001320 -0.0007067 0.0000156 0.0002079 0.0000217 0.0000670 -0.0000227 0.0003509 -0.0000350 -0.0000155 0.0000029 0.0005214 -0.0000838 0.0002137 -0.0000590 0.0003931 0.0000864 0.0006158 -0.0000336 0.0003516 0.0001092 0.0002113 -0.0000718 0.0001780 0.0000512 0.0007017 0.0000003 0.0005176 0.0000067 0.0002913 0.0000691 0.0001634 0.0000529 -0.0002170 0.0000175 0.0002843 0.0000236 -0.0001212 0.0000167 -0.0000106 0.0000398 -0.0001159 0.0000399 0.0022192 -0.0001030 0.0013716 -0.0001143 0.0006956 -0.0000798 0.0002440 -0.0000733 0.0007085 0.0000421 0.0003084 0.0000939 0.0006045 -0.0000578 0.0001777 -0.0000325 -0.0001910 0.0000661 -0.0001105 -0.0000953 0.0001752 0.0000495 0.0000912
-0.0000098 0.0000855 0.0000168 0.0003198 -0.0001600 -0.0007004 -0.0003669 -0.0013699 0.0000121 0.0000130 -0.0001282 0.0000819 -0.0000550 -0.0005626 -0.0001065 -0.0002399 -0.0000117 0.0007366 -0.0000485 0.0006047 0.0001594 0.0004878 0.0000294 0.0004048 -0.0000035 -0.0002291 -0.0000796 -0.0003345 -0.0001138 -0.0004272 -0.0000705 -0.0003233 -0.0003578 -0.0013111 -0.0000588 -0.0002070 -0.0002197 -0.0004303 -0.0001446 -0.0002431 -0.0000509 0.0003517 0.0000703 -0.0016482 -0.0006280 -0.0010987 -0.0009276 0.0056580 -0.0149744 0.0208983 0.0018657 -0.0209186 0.0102850 -0.0126960 0.0109127 -0.0115843 -0.0002553 -0.0000111 0.0008420 -0.0005056 -0.0034470 0.0003434 0.0066007 -0.0142855 0.0035337 -0.0086209 0.0045013 -0.0091112 0.0075126 -0.0219266 0.0000193 0.0000916 0.0001239 0.0003561 -0.0001164 -0.0007636 0.0000337 0.0002602 0.0000302 0.0000974 -0.0000177 0.0003532 -0.0000323 0.0000543 0.0000129 0.0005640 -0.0000804 0.0002512 -0.0000597 0.0003845 0.0000772 0.0005839 -0.0000121 0.0003174 0.0001015 0.0002182 -0.0000666 0.0001971 0.0000441 0.0006411 -0.0000085 0.0005413 0.0000377 0.0003283 0.0000813 0.0003236 0.0000451 -0.0000959 -0.0000013 0.0002990 0.0000045 0.0000345 0.0000128 0.0000088 0.0000334 0.0000525 0.0000388 0.0024544 -0.0000952 0.0016206 -0.0001221 0.0010296 -0.0000574 0.0006213 -0.0000826 0.0011106 0.0000344 0.0007740 0.0000753 0.0009003 -0.0000600 0.0004309 -0.0000707 0.0001476 0.0000422 0.0002446 -0.0001284 0.0006096 0.0000180 0.0004540
-0.0000156 -0.0000717 -0.0000058 0.0001330 -0.0003072 -0.0011508 -0.0005203 -0.0018588 0.0000344 -0.0001747 -0.0001373 -0.0000053 -0.0000642 -0.0007817 -0.0000756 -0.0002379 0.0000609 0.0007468 -0.0000568 0.0003888 0.0001327 0.0004252 0.0000137 0.0003781 0.0000120 -0.0002519 -0.0001025 -0.0004657 -0.0001540 -0.0007108 -0.0000686 -0.0005088 -0.0003022 -0.0013270 -0.0000574 -0.0004476 -0.0002247 -0.0005312 -0.0001237 -0.0003374 -0.0001111 -0.0000399 0.0002818 -0.0017494 -0.0006980 -0.0007615 -0.0037018 0.0039299 0.0020565 0.0085723 -0.0089192 0.0017558 0.0057880 -0.0059554 0.0033996 0.0053261 0.0070346 -0.0146612 0.0036629 -0.0035453 0.0009205 -0.0052299 -0.0107838 0.0167219 0.0070593 -0.0055782 -0.0070455 0.0082629 0.0319333 -0.0778925 -0.0000024 0.0003656 0.0000839 0.0005766 -0.0001103 -0.0004706 0.0000475 0.0004553 -0.0000192 0.0004915 -0.0000350 0.0007222 -0.0000425 0.0004508 -0.0000020 0.0009373 -0.0000909 0.0004925 -0.0000820 0.0005787 0.0000570 0.0007625 -0.0000186 0.0004879 0.0001091 0.0003951 -0.0000716 0.0003520 0.0000514 0.0007806 -0.0000502 0.0007504 0.0000287 0.0006449 0.0000723 0.0006643 -0.0000206 0.0003155 -0.0000118 0.0005495 -0.0000149 0.0004444 -0.0000146 0.0001376 0.0000133 0.0004135 0.0000174 0.0029211 -0.0001180 0.0018843 -0.0001491 0.0012910 -0.0000615 0.0008850 -0.0001200 0.0012839 -0.0000017 0.0010417 0.0000205 0.0011008 -0.0000448 0.0005695 -0.0001295 0.0002766 0.0000196 0.0003225 -0.0001532 0.0006814 -0.0000068 0.0004904
0.0000147 -0.0001741 -0.0000865 -0.0002061 -0.0006024 -0.0016229 -0.0006744 -0.0018923 0.0000633 -0.0001847 -0.0001451 -0.0002023 -0.0000421 -0.0006726 -0.0000143 -0.0001722 0.0001246 0.0008202 0.0002623 0.0008482 0.0003772 0.0009907 0.0000363 0.0002437 0.0000429 -0.0001122 -0.0000926 -0.0004790 -0.0001737 -0.0008484 -0.0000617 -0.0006191 -0.0002166 -0.0011215 -0.0000691 -0.0006918 -0.0001302 -0.0003617 -0.0000543 -0.0001463 -0.0001356 -0.0002092 0.0002881 -0.0018940 -0.0006021 -0.0005897 -0.0041753 -0.0003635 0.0029761 0.0029349 -0.0037281 -0.0052662 -0.0005455 -0.0066404 -0.0005816 -0.0014856 -0.0011876 0.0058036 0.0018262 -0.0014157 -0.0190156 0.0252446 0.0013471 0.0035403 0.0129619 -0.0137607 -0.0128594 0.0181202 0.0186383 -0.0399205 -0.0000131 0.0004048 0.0000702 0.0006668 -0.0001243 -0.0004647 0.0000607 0.0005109 -0.0000431 0.0004587 -0.0000342 0.0007357 -0.0000401 0.0003956 0.0000041 0.0009236 -0.0001120 0.0004778 -0.0000836 0.0005863 0.0000640 0.0007543 -0.0000374 0.0005180 0.0001246 0.0004175 -0.0000799 0.0003404 0.0000600 0.0008576 -0.0000551 0.0007258 0.0000135 0.0005873 0.0000546 0.0005721 -0.0000629 0.0002346 -0.0000106 0.0005012 -0.0000237 0.0003262 -0.0000158 0.0000867 0.0000173 0.0003288 -0.0000030 0.0028448 -0.0001133 0.0017717 -0.0001451 0.0011354 -0.0000927 0.0007022 -0.0001273 0.0010421 -0.0000050 0.0008207 0.0000181 0.0009738 -0.0000973 0.0004783 -0.0001645 0.0001197 0.0000208 0.0000594 -0.0001631 0.0003618 0.0000029 0.0002116
0.0000498 -0.0002180 -0.0001187 -0.0003602 -0.0006299 -0.0016979 -0.0006027 -0.0017841 0.0000659 -0.0002062 -0.0001425 -0.0002626 -0.0000253 -0.0007448 0.0000085 -0.0002652 0.0001182 0.0007646 0.0002915 0.0008833 0.0005059 0.0012459 0.0000693 0.0003647 0.0000825 -0.0000412 -0.0000579 -0.0004413 -0.0001316 -0.0007384 -0.0000482 -0.0006102 -0.0001480 -0.0008918 -0.0000662 -0.0008420 -0.0000334 -0.0002403 0.0000030 0.0000248 -0.0001327 -0.0003244 0.0002362 -0.0019037 -0.0004850 -0.0005562 -0.0069373 0.0020978 -0.0061356 0.0009916 0.0206703 -0.0441551 0.0059725 -0.0242969 0.0069536 -0.0156278 -0.0221466 0.0280676 -0.0021888 0.0024369 -0.0058833 0.0179567 0.0087653 -0.0009082 0.0102362 -0.0091846 -0.0012421 0.0052334 0.0108299 -0.0216957 -0.0000124 0.0001952 0.0000886 0.0005887 -0.0001285 -0.0006939 0.0000816 0.0004330 -0.0000314 0.0001724 -0.0000115 0.0005308 -0.0000541 0.0000274 0.0000194 0.0006712 -0.0001201 0.0002418 -0.0000604 0.0004071 0.0000624 0.0006309 -0.0000472 0.0003923 0.0001556 0.0003251 -0.0000864 0.0002114 0.0000860 0.0010845 -0.0000409 0.0005788 0.0000186 0.0003270 0.0000550 0.0003196 -0.0000589 -0.0000544 -0.0000103 0.0002885 -0.0000106 0.0000170 0.0000092 -0.0000153 0.0000209 0.0000461 0.0000357 0.0026373 -0.0001092 0.0016343 -0.0001464 0.0010216 -0.0000782 0.0005561 -0.0001157 0.0009821 0.0000094 0.0007125 0.0000351 0.0010554 -0.0001837 0.0004010 -0.0002041 0.0001685 -0.0000255 0.0000695 -0.0001851 0.0004221 0.0000112 0.0002702
0.0000418 -0.0002321 -0.0000964 -0.0002890 -0.0005249 -0.0015549 -0.0005073 -0.0018415 0.0000581 -0.0003456 -0.0001202 -0.0002853 -0.0000025 -0.0008508 0.0000145 -0.0003303 0.0001005 0.0005201 0.0000826 0.0003083 0.0003128 0.0008657 0.0000417 0.0005519 0.0001009 -0.0001033 -0.0000600 -0.0005073 -0.0001467 -0.0008269 -0.0000528 -0.0007160 -0.0000712 -0.0007376 0.0000012 -0.0006377 -0.0000866 -0.0005507 0.0000043 -0.0001112 -0.0001736 -0.0005870 0.0002111 -0.0015805 -0.0002095 -0.0000811 -0.0017771 0.0020059 -0.0078623 0.0066002 0.0075104 -0.0106763 0.0113133 -0.0206346 -0.0013668 -0.0001810 -0.0258993 0.0333184 -0.0008277 -0.0004396 0.0036309 -0.0014626 -0.0000788 0.0112137 0.0057468 -0.0110163 0.0089095 -0.0077083 -0.0011390 -0.0032208 -0.0000271 0.0002335 0.0000975 0.0006740 -0.0001440 -0.0007062 0.0000883 0.0004519 -0.0000454 0.0003375 0.0000042 0.0006897 -0.0000969 0.0000726 0.0000190 0.0007979 -0.0001227 0.0002625 -0.0000567 0.0004364 0.0000572 0.0007388 -0.0000193 0.0004029 0.0001917 0.0003754 -0.0000945 0.0002420 0.0001286 0.0015399 -0.0000496 0.0006956 -0.0000063 0.0004588 0.0000670 0.0004368 -0.0000628 0.0001792 -0.0000067 0.0003918 -0.0000089 0.0002720 0.0000276 0.0001206 -0.0000004 0.0002035 0.0000536 0.0029794 -0.0002815 0.0015815 -0.0002052 0.0012606 -0.0000725 0.0008300 -0.0001390 0.0013161 0.0000001 0.0010354 0.0000136 0.0014955 -0.0002924 0.0003844 -0.0002809 0.0004047 -0.0000982 0.0003259 -0.0002073 0.0007218 -0.0000251 0.0005331
-0.0000329 -0.0005193 -0.0001091 -0.0003453 -0.0003953 -0.0013578 -0.0004086 -0.0017839 0.0000156 -0.0006535 -0.0001041 -0.0004479 0.0000644 -0.0007441 0.0000054 -0.0003999 0.0001410 0.0002896 0.0001075 0.0003344 0.0002202 0.0006822 0.0000301 0.0001991 0.0000910 -0.0003440 -0.0000686 -0.0005070 -0.0002127 -0.0011337 -0.0000821 -0.0008259 -0.0000350 -0.0006794 0.0000476 -0.0004108 -0.0001601 -0.0007216 -0.0000244 -0.0003480 -0.0001917 -0.0005592 0.0001230 -0.0012985 0.0000620 0.0002903 0.0020015 -0.0039808 0.0063364 -0.0071210 -0.0142375 0.0201615 0.0031293 -0.0081883 -0.0062290 0.0018234 -0.0017205 0.0118984 0.0022064 -0.0050205 0.0069496 -0.0201417 0.0033849 -0.0052170 0.0006054 -0.0131870 0.0060459 -0.0110667 -0.0095044 0.0199989 -0.0000405 0.0004091 0.0001106 0.0008302 -0.0001708 -0.0006553 0.0000737 0.0004775 -0.0000641 0.0005122 0.0000081 0.0008662 -0.0001162 0.0001313 0.0000104 0.0009118 -0.0001429 0.0003052 -0.0000649 0.0004744 0.0000937 0.0008322 0.0000091 0.0004551 0.0002303 0.0003414 -0.0000935 0.0002706 0.0001730 0.0019488 -0.0000564 0.0007226 0.0000013 0.0004947 0.0000563 0.0003958 -0.0000804 0.0002599 0.0000030 0.0004366 -0.0000065 0.0003196 0.0000423 0.0002040 -0.0000009 0.0002079 -0.0000085 0.0028660 -0.0005370 0.0010516 -0.0002566 0.0010290 -0.0000935 0.0007061 -0.0001586 0.0010210 -0.0000374 0.0007386 -0.0000163 0.0014170 -0.0004767 -0.0000813 -0.0003341 0.0002478 -0.0001131 0.0001455 -0.0002273 0.0005653 -0.0000661 0.0003583
-0.0001162 -0.0007124 -0.0001162 -0.0003277 0.0000625 -0.0003922 0.0001942 -0.0001283 -0.0000601 -0.0010135 -0.0000341 -0.0000878 0.0003800 0.0005211 -0.0000417 -0.0006320 -0.0000220 -0.0004698 0.0003318 0.0009843 -0.0002976 -0.0004802 -0.0003171 -0.0008757 0.0001125 -0.0007053 0.0002592 0.0008407 -0.0004302 -0.0022868 -0.0000540 -0.0006767 0.0001439 -0.0001161 0.0002802 0.0007302 -0.0002684 -0.0008292 -0.0000531 -0.0004886 -0.0001451 -0.0001569 0.0000497 -0.0002293 0.0003611 0.0008421 0.0013087 -0.0046326 0.0156344 -0.0278804 -0.0119681 0.0216223 -0.0015680 -0.0104555 0.0029866 -0.0147855 0.0069258 0.0034536 0.0046801 -0.0099261 0.0043553 -0.0008709 0.0012180 -0.0024561 0.0000207 -0.0019849 0.0029370 -0.0097825 -0.0077645 0.0212037 -0.0000171 0.0002972 0.0001414 0.0006853 -0.0001752 -0.0007862 0.0000487 0.0003129 -0.0000321 0.0003356 0.0000365 0.0006616 -0.0001069 -0.0001280 0.0000130 0.0006725 -0.0001213 0.0001853 -0.0000594 0.0003512 0.0001150 0.0007090 0.0000134 0.0003838 0.0002071 0.0001481 -0.0000891 0.0001419 0.0001751 0.0016767 -0.0000526 0.0005730 0.0000079 0.0003689 0.0000343 0.0001699 -0.0000749 0.0001139 0.0000197 0.0003297 0.0000048 0.0001316 0.0000399 0.0001557 0.0000028 0.0000027 -0.0000234 0.0025312 -0.0004548 0.0009809 -0.0001952 0.0008057 -0.0000801 0.0004496 -0.0001059 0.0006778 -0.0000307 0.0002292 -0.0000267 0.0008059 -0.0005092 -0.0004453 -0.0003112 0.0001583 -0.0000762 0.0000753 -0.0002329 0.0004386 -0.0000829 0.0001438
-0.0001105 -0.0006801 -0.0001345 -0.0003606 0.0004432 0.0003897 0.0010461 0.0029947 -0.0001258 -0.0012247 0.0000438 0.0003142 0.0005592 0.0014226 -0.0000557 -0.0007460 -0.0002118 -0.0013653 0.0003628 0.0013146 -0.0009836 -0.0019921 -0.0007748 -0.0014125 0.0001349 -0.0009707 0.0003918 0.0013915 -0.0005143 -0.0029204 -0.0000036 -0.0004070 0.0002854 0.0003398 0.0004142 0.0013642 -0.0003140 -0.0009014 -0.0000357 -0.0004941 -0.0001054 0.0001141 0.0000030 0.0007358 0.0006178 0.0012444 -0.0027660 -0.0044102 0.0098548 -0.0170683 -0.0030832 0.0035460 0.0140855 -0.0318513 0.0023937 0.0082291 -0.0048149 0.0091662 0.0006579 -0.0038744 -0.0002937 0.0007825 -0.0053851 0.0083713 0.0070205 -0.0010417 0.0042665 -0.0051860 -0.0026007 0.0066550 0.0000148 0.0001924 0.0001196 0.0004296 -0.0001217 -0.0006201 -0.0000272 0.0000619 0.0000012 0.0002809 0.0000370 0.0004363 -0.0000754 -0.0000630 -0.0000044 0.0005082 -0.0000626 0.0002321 -0.0000552 0.0003242 0.0000857 0.0005788 0.0000121 0.0003506 0.0001047 0.0000648 -0.0000929 0.0000671 0.0001175 0.0007892 -0.0000677 0.0005105 -0.0000239 0.0004099 0.0000073 0.0002015 -0.0000828 0.0002439 0.0000281 0.0003337 -0.0000160 0.0001975 0.0000262 0.0001590 -0.0000181 0.0000638 -0.0000248 0.0027563 -0.0002440 0.0015384 -0.0001369 0.0011774 -0.0000542 0.0006770 -0.0000588 0.0011102 -0.0000129 0.0004784 -0.0000305 0.0006521 -0.0004768 -0.0001575 -0.0002917 0.0004912 -0.0000995 0.0004872 -0.0002718 0.0008753 -0.0001132 0.0004293
-0.0000783 -0.0004433 -0.0001221 -0.0002293 0.0003435 0.0001646 0.0011343 0.0038999 -0.0001275 -0.0009887 -0.0000040 0.0002302 0.0003313 0.0008504 -0.0000252 -0.0004664 -0.0001426 -0.0009961 0.0000425 0.0007554 -0.0008745 -0.0016313 -0.0006351 -0.0005312 0.0000517 -0.0009222 0.0000722 0.0002704 -0.0002720 -0.0015615 -0.0000373 -0.0003026 0.0001754 0.0000569 0.0002082 0.0005715 -0.0002639 -0.0005676 -0.0000401 -0.0004592 -0.0001109 0.0001888 -0.0000040 0.0005210 0.0004851 0.0007364 -0.0077913 -0.0001226 0.0112791 -0.0163494 0.0123221 -0.0245098 0.0070291 -0.0209781 0.0002195 0.0092338 0.0038844 -0.0075820 -0.0020624 0.0005349 0.0151184 -0.0416259 -0.0170247 0.0245539 0.0122277 -0.0074279 -0.0063889 0.0134916 0.0052682 -0.0085230 0.0000031 0.0003987 0.0000894 0.0004772 -0.0001075 -0.0002627 -0.0000813 0.0000987 -0.0000389 0.0005606 -0.0000067 0.0006634 -0.0000744 0.0003458 -0.0000393 0.0007698 -0.0000824 0.0004198 -0.0000833 0.0004961 0.0000641 0.0006989 -0.0000315 0.0005165 0.0001224 0.0002542 -0.0001098 0.0001844 0.0001359 0.0010632 -0.0001020 0.0006714 -0.0000642 0.0006533 -0.0000243 0.0004819 -0.0001378 0.0005131 0.0000336 0.0005471 -0.0000354 0.0004345 0.0000398 0.0003136 -0.0000198 0.0001982 -0.0000052 0.0030194 -0.0002711 0.0014839 -0.0001737 0.0011345 -0.0000846 0.0005661 -0.0000819 0.0010106 -0.0000510 0.0004505 -0.0000914 0.0007815 -0.0006567 -0.0003638 -0.0003486 0.0003635 -0.0001270 0.0003079 -0.0002883 0.0007700 -0.0001264 0.0003409
-0.0000889 -0.0004371 -0.0000953 -0.0000905 0.0000284 -0.0005901 0.0006017 0.0022370 -0.0000989 -0.0008157 -0.0000884 0.0000427 0.0001937 0.0002377 -0.0000012 -0.0002568 -0.0000539 -0.0004816 -0.0001144 0.0000737 -0.0005509 -0.0010217 -0.0002893 -0.0000898 -0.0000293 -0.0008604 -0.0000604 -0.0001992 -0.0001512 -0.0006517 -0.0000775 -0.0004237 0.0000928 -0.0002118 0.0000954 0.0001363 -0.0002487 -0.0004331 -0.0001026 -0.0005722 -0.0001282 0.0002292 0.0000086 0.0002455 0.0002860 0.0001909 -0.0009824 -0.0117209 -0.0001705 -0.0046406 0.0077084 -0.0182715 -0.0007717 -0.0077112 0.0070256 -0.0237718 0.0145210 -0.0152821 0.0006876 -0.0056204 -0.0045062 0.0061145 -0.0228050 0.0300704 0.0052109 -0.0026522 -0.0097238 0.0147449 0.0215986 -0.0327878 -0.0000073 0.0002945 0.0001254 0.0004719 -0.0001498 -0.0004964 -0.0000356 0.0001784 -0.0000470 0.0003747 0.0000111 0.0005607 -0.0000860 0.0000989 -0.0000107 0.0006450 -0.0001027 0.0002299 -0.0000951 0.0003829 0.0000680 0.0006581 -0.0000218 0.0004283 0.0001923 0.0001804 -0.0001112 0.0001259 0.0001882 0.0016214 -0.0000945 0.0005970 -0.0000765 0.0005183 -0.0000344 0.0003642 -0.0001193 0.0003131 0.0000333 0.0004479 -0.0000290 0.0002692 0.0000682 0.0003109 0.0000004 0.0000159 0.0000131 0.0027803 -0.0003897 0.0010013 -0.0002008 0.0008109 -0.0000723 0.0002641 -0.0001080 0.0006382 -0.0000398 0.0001351 -0.0000660 0.0007121 -0.0007580 -0.0008597 -0.0004123 0.0000559 -0.0001555 -0.0000603 -0.0002743 0.0003521 -0.0001204 0.0000063
-0.0000875 -0.0003382 -0.0001109 -0.0000705 -0.0002224 -0.0009759 0.0002442 0.0012449 -0.0000987 -0.0004778 -0.0001150 0.0000373 0.0001639 0.0003079 -0.0000051 -0.0000930 -0.0000660 -0.0001698 -0.0002295 -0.0001731 -0.0004678 -0.0006976 -0.0001503 0.0000396 -0.0000351 -0.0006505 -0.0000614 -0.0001295 -0.0001318 -0.0003701 -0.0001057 -0.0003612 0.0000538 -0.0000809 0.0000694 0.0001939 -0.0002595 -0.0002169 -0.0001283 -0.0004756 -0.0001643 0.0003003 0.0000116 0.0003002 0.0001980 0.0001695 0.0035562 -0.0093832 -0.0165059 0.0106402 -0.0050060 -0.0000407 -0.0029880 0.0003618 0.0120182 -0.0307028 -0.0007094 0.0055221 0.0026013 -0.0060358 -0.0059150 0.0218499 0.0034193 -0.0032895 0.0025715 -0.0005231 0.0060166 -0.0086823 0.0165923 -0.0160227 -0.0000030 0.0000564 0.0001540 0.0003587 -0.0001914 -0.0010045 0.0000277 0.0002082 0.0000021 0.0000669 0.0000499 0.0002967 -0.0001191 -0.0003880 0.0000292 0.0003399 -0.0001108 -0.0000187 -0.0000803 0.0001334 0.0000776 0.0004991 0.0000055 0.0002309 0.0002045 0.0000023 -0.0001081 -0.0000282 0.0001992 0.0015823 -0.0000861 0.0004099 -0.0000739 0.0002843 -0.0000116 0.0001587 -0.0000800 0.0000710 0.0000244 0.0002275 -0.0000215 0.0000460 0.0000772 0.0001858 0.0000067 -0.0001509 -0.0000142 0.0027006 -0.0004219 0.0008767 -0.0001856 0.0008291 -0.0000178 0.0004635 -0.0000906 0.0007920 0.0000089 0.0003288 0.0000187 0.0009924 -0.0007971 -0.0009933 -0.0004623 0.0001146 -0.0002089 0.0000408 -0.0003070 0.0004282 -0.0001675 0.0000868
-0.0000701 -0.0001915 -0.0001342 -0.0000576 -0.0002909 -0.0008685 0.0001153 0.0009450 -0.0000799 -0.0003315 -0.0001060 0.0000725 0.0001618 0.0004586 -0.0000410 -0.0000115 -0.0000529 -0.0000690 -0.0002670 -0.0001253 -0.0004430 -0.0006233 -0.0002166 0.0002362 -0.0000301 -0.0005235 -0.0000553 -0.0000724 -0.0001510 -0.0003749 -0.0001028 -0.0003078 0.0000405 0.0000139 0.0000608 0.0002567 -0.0003122 -0.0001427 -0.0001286 -0.0003712 -0.0001981 0.0003244 0.0000090 0.0003961 0.0001735 0.0002488 -0.0032434 0.0073454 -0.0018740 -0.0005944 -0.0009850 0.0001239 0.0042445 -0.0125293 0.0047821 -0.0178255 -0.0119665 0.0124727 0.0005601 -0.0007434 0.0015280 0.0128466 0.0108665 -0.0160533 -0.0000361 0.0016473 0.0067897 -0.0048052 0.0057842 0.0017526 -0.0000203 0.0001803 0.0001288 0.0005067 -0.0002587 -0.0012240 0.0000758 0.0004596 -0.0000064 0.0003486 0.0000503 0.0006094 -0.0002223 -0.0004265 0.0000270 0.0006165 -0.0001487 0.0000755 -0.0001036 0.0002122 0.0000750 0.0006755 -0.0000286 0.0003381 0.0003399 0.0001030 -0.0001084 0.0000333 0.0002868 0.0025426 -0.0001231 0.0005738 -0.0000582 0.0004760 0.0000196 0.0003479 -0.0001206 0.0003212 0.0000190 0.0004093 -0.0000291 0.0003065 0.0000738 0.0002915 -0.0000007 0.0000445 -0.0000721 0.0030944 -0.0004909 0.0009322 -0.0002179 0.0010986 -0.0000018 0.0009422 -0.0000802 0.0011901 -0.0000030 0.0007542 0.0000706 0.0015701 -0.0008958 -0.0010181 -0.0004849 0.0003449 -0.0002206 0.0004153 -0.0003524 0.0006768 -0.0001991 0.0002720
-0.0000641 -0.0000971 -0.0001552 -0.0000322 -0.0002896 -0.0006922 0.0000810 0.0009237 -0.0000802 -0.0002343 -0.0001271 0.0001633 0.0001624 0.0006043 -0.0000448 0.0000375 -0.0000160 -0.0000773 -0.0002348 -0.0001057 -0.0004689 -0.0006068 -0.0002366 0.0002576 -0.0000363 -0.0003626 -0.0000628 -0.0000365 -0.0001710 -0.0003797 -0.0000923 -0.0002384 0.0000387 0.0001402 0.0000332 0.0003565 -0.0003467 0.0000474 -0.0001308 -0.0001991 -0.0002397 0.0004156 -0.0000004 0.0006061 0.0001193 0.0003509 -0.0127376 0.0117860 0.0032806 0.0015462 0.0038445 -0.0103722 0.0151396 -0.0315102 0.0005415 0.0043112 0.0050600 -0.0120559 -0.0042031 0.0036491 -0.0049224 0.0127516 0.0050874 -0.0069137 -0.0077294 0.0101112 0.0050021 -0.0032635 0.0102497 -0.0113375 -0.0000309 0.0003114 0.0001010 0.0006502 -0.0002761 -0.0011874 0.0000709 0.0005526 -0.0000295 0.0004996 0.0000436 0.0007402 -0.0002620 -0.0004674 0.0000228 0.0007516 -0.0001287 0.0001176 -0.0001098 0.0002484 0.0000491 0.0007502 -0.0000418 0.0003758 0.0004091 0.0000479 -0.0000963 0.0000214 0.0003100 0.0028303 -0.0001371 0.0005800 -0.0000614 0.0004749 0.0000131 0.0003733 -0.0001493 0.0002907 0.0000088 0.0004260 -0.0000328 0.0002448 0.0000626 0.0002658 0.0000092 0.0000173 -0.0001120 0.0029271 -0.0005470 0.0006000 -0.0002518 0.0009318 0.0000166 0.0007925 -0.0000737 0.0009085 -0.0000437 0.0004265 0.0001136 0.0014497 -0.0009139 -0.0012860 -0.0004558 0.0001383 -0.0002086 0.0003355 -0.0003443 0.0004496 -0.0001601 0.0000506
-0.0000732 0.0000032 -0.0001621 0.0000249 -0.0002954 -0.0005495 0.0000805 0.0010007 -0.0001036 -0.0001154 -0.0001433 0.0002754 0.0001380 0.0006804 -0.0000668 0.0001164 -0.0000299 -0.0000533 -0.0002076 -0.0000982 -0.0004763 -0.0006158 -0.0002092 0.0002546 -0.0000402 -0.0002650 -0.0000751 -0.0000444 -0.0001706 -0.0003267 -0.0001080 -0.0002193 0.0000315 0.0002300 0.0000222 0.0004028 -0.0003628 0.0000875 -0.0001340 -0.0001003 -0.0002621 0.0004030 -0.0000040 0.0006879 0.0000905 0.0004521 -0.0079569 0.0077502 0.0016779 0.0063927 -0.0043680 0.0056126 0.0058347 -0.0291997 0.0062744 -0.0028493 0.0063373 -0.0091822 -0.0033862 0.0017701 -0.0166071 0.0169397 0.0015605 0.0001122 0.0002538 0.0020101 0.0062370 -0.0135115 0.0135106 -0.0161960 -0.0000201 0.0001032 0.0000852 0.0004429 -0.0002468 -0.0012763 0.0000167 0.0003092 0.0000008 0.0002245 0.0000254 0.0004149 -0.0002401 -0.0006890 0.0000353 0.0004320 -0.0000914 0.0000043 -0.0000760 0.0000736 0.0000534 0.0005290 -0.0000381 0.0002195 0.0003155 -0.0001341 -0.0000959 -0.0001470 0.0002367 0.0019470 -0.0001366 0.0003698 -0.0000876 0.0002694 0.0000174 0.0002057 -0.0001077 0.0000230 0.0000090 0.0002193 -0.0000256 -0.0000127 0.0000612 0.0001147 0.0000237 -0.0002074 -0.0001130 0.0025030 -0.0005205 0.0003489 -0.0002121 0.0006680 0.0000449 0.0004332 -0.0000400 0.0005425 -0.0000237 -0.0000219 0.0001354 0.0010725 -0.0009316 -0.0015206 -0.0003860 -0.0001416 -0.0001752 0.0001190 -0.0003090 0.0001967 -0.0001416 -0.0001584
-0.0000831 0.0000267 -0.0001680 0.0000531 -0.0003291 -0.0005415 0.0000564 0.0010359 -0.0001147 -0.0000496 -0.0001440 0.0003113 0.0001140 0.0006727 -0.0001055 0.0002034 -0.0000542 -0.0000766 -0.0001874 -0.0001200 -0.0004573 -0.0005790 -0.0002183 0.0002981 -0.0000211 -0.0001913 -0.0000806 -0.0000802 -0.0001636 -0.0003010 -0.0001141 -0.0002511 0.0000207 0.0002849 0.0000089 0.0004348 -0.0003799 0.0001262 -0.0001426 -0.0000255 -0.0002732 0.0004328 -0.0000139 0.0008003 0.0000311 0.0005401 -0.0111066 0.0105386 -0.0057946 0.0093943 -0.0047080 0.0096984 0.0094725 -0.0215226 0.0126792 -0.0350656 0.0033079 -0.0019552 0.0025818 -0.0037532 -0.0046497 0.0028465 -0.0137735 0.0234168 0.0006375 -0.0003531 -0.0064194 0.0117237 0.0056465 -0.0057433 -0.0000146 -0.0000621 0.0000858 0.0002694 -0.0002403 -0.0013533 0.0000159 0.0002289 0.0000153 0.0001441 0.0000298 0.0003062 -0.0002476 -0.0007557 0.0000371 0.0003478 -0.0000760 -0.0000205 -0.0000819 0.0000470 0.0000663 0.0004313 -0.0000236 0.0001351 0.0002367 -0.0000663 -0.0001351 -0.0001784 0.0001963 0.0014843 -0.0001571 0.0004017 -0.0000927 0.0002921 0.0000177 0.0002839 -0.0000702 0.0000896 0.0000112 0.0001984 -0.0000130 0.0001041 0.0000500 0.0000769 0.0000185 -0.0001308 -0.0001833 0.0025822 -0.0005625 0.0005602 -0.0001891 0.0009409 0.0000973 0.0006307 -0.0000287 0.0009223 -0.0000250 0.0003028 0.0001190 0.0011339 -0.0008542 -0.0013946 -0.0003052 0.0000929 -0.0001614 0.0004897 -0.0003047 0.0005636 -0.0001780 0.0001325
-0.0000849 0.0000853 -0.0001783 0.0000906 -0.0003657 -0.0006179 0.0000324 0.0010833 -0.0001025 0.0000348 -0.0001809 0.0003746 0.0000915 0.0006394 -0.0001197 0.0002875 -0.0000436 -0.0001036 -0.0001845 -0.0001716 -0.0004197 -0.0005586 -0.0001533 0.0002969 -0.0000074 -0.0001156 -0.0000813 -0.0001380 -0.0001491 -0.0003188 -0.0001078 -0.0002729 0.0000131 0.0002984 -0.0000145 0.0003949 -0.0003853 0.0001768 -0.0001459 0.0000613 -0.0002835 0.0004185 -0.0000287 0.0007506 -0.0000348 0.0003687 -0.0133233 0.0035763 -0.0065758 0.0079666 0.0119571 -0.0206784 0.0138745 -0.0199439 0.0126445 -0.0341451 0.0070162 -0.0089901 0.0005011 -0.0008139 0.0056618 -0.0023702 -0.0097277 0.0153412 0.0029271 -0.0016038 -0.0207798 0.0327316 -0.0094943 -0.0066551 -0.0000286 0.0001241 0.0000846 0.0004284 -0.0002571 -0.0011633 0.0000484 0.0004566 -0.0000195 0.0004680 0.0000134 0.0006144 -0.0002723 -0.0004306 0.0000058 0.0007058 -0.0000639 0.0001902 -0.0001135 0.0002614 0.0000612 0.0005368 -0.0000371 0.0002837 0.0001828 0.0001943 -0.0001739 -0.0000525 0.0001545 0.0011905 -0.0001830 0.0006056 -0.0001170 0.0004761 -0.0000065 0.0005144 -0.0001061 0.0003086 0.0000058 0.0003370 -0.0000224 0.0002340 0.0000151 0.0000796 0.0000296 0.0000226 -0.0002572 0.0026136 -0.0005774 0.0007301 -0.0001957 0.0009959 0.0001025 0.0005928 -0.0000392 0.0009325 -0.0000273 0.0003017 0.0000788 0.0008897 -0.0008028 -0.0013507 -0.0002756 0.0000206 -0.0001550 0.0004635 -0.0002881 0.0004971 -0.0001715 0.0000444
-0.0000662 0.0001732 -0.0001900 0.0001272 -0.0003606 -0.0006107 0.0000405 0.0010796 -0.0000814 0.0001472 -0.0001848 0.0004636 0.0000741 0.0006296 -0.0001391 0.0003668 -0.0000309 -0.0000699 -0.0002389 -0.0001475 -0.0004029 -0.0005238 -0.0001345 0.0003951 0.0000024 -0.0000813 -0.0000817 -0.0002023 -0.0001459 -0.0003575 -0.0001136 -0.0002741 -0.0000102 0.0003330 -0.0000349 0.0003475 -0.0003969 0.0002109 -0.0001460 0.0001293 -0.0002935 0.0003891 -0.0000312 0.0008022 -0.0000546 0.0003660 -0.0004778 -0.0032436 0.0082741 -0.0074522 0.0019077 -0.0098520 0.0020140 -0.0053243 0.0108879 -0.0071914 0.0093364 -0.0116936 -0.0018014 0.0025366 0.0036507 -0.0117815 -0.0013150 -0.0012139 0.0001942 -0.0050166 -0.0319184 0.0385025 -0.0084569 0.0024145 -0.0000261 0.0000174 0.0000913 0.0003628 -0.0002495 -0.0012057 0.0000677 0.0004556 -0.0000080 0.0002904 0.0000053 0.0004667 -0.0002654 -0.0005388 0.0000075 0.0005757 -0.0000578 0.0001035 -0.0000989 0.0001895 0.0000196 0.0004621 -0.0000392 0.0002361 0.0001836 0.0002017 -0.0001733 -0.0000861 0.0001401 0.0010606 -0.0001812 0.0005313 -0.0001125 0.0003468 -0.0000032 0.0004040 -0.0001029 0.0001378 0.0000080 0.0002294 -0.0000115 0.0000682 0.0000237 0.0000746 0.0000436 -0.0001349 -0.0002431 0.0024311 -0.0005813 0.0006110 -0.0002334 0.0007811 0.0000793 0.0002816 -0.0000329 0.0006501 -0.0000199 0.0000095 0.0000643 0.0005550 -0.0008188 -0.0014520 -0.0002381 -0.0002861 -0.0001380 0.0001447 -0.0002506 0.0001706 -0.0001541 -0.0001849
-0.0000405 0.0002343 -0.0001917 0.0001288 -0.0003505 -0.0005581 0.0000402 0.0010676 -0.0000748 0.0002378 -0.0001460 0.0004931 0.0000714 0.0006286 -0.0001484 0.0004442 -0.0000482 -0.0000389 -0.0002179 -0.0001750 -0.0004418 -0.0004523 -0.0001529 0.0004837 0.0000097 -0.0000808 -0.0000900 -0.0002722 -0.0001569 -0.0004407 -0.0001166 -0.0003304 -0.0000112 0.0003376 -0.0000394 0.0002868 -0.0003931 0.0001780 -0.0001503 0.0001301 -0.0002980 0.0003358 -0.0000234 0.0006981 -0.0000585 0.0003343 -0.0022878 0.0038186 0.0090565 -0.0109524 0.0042117 -0.0162561 0.0055943 -0.0087339 0.0174049 -0.0187400 0.0046330 -0.0049962 -0.0007775 0.0005023 -0.0097248 0.0072718 -0.0098887 0.0061398 0.0030578 -0.0155915 -0.0111576 0.0157222 -0.0142770 0.0132476 -0.0000145 -0.0001917 0.0001410 0.0002305 -0.0002358 -0.0013326 0.0000938 0.0003355 0.0000227 0.0000013 0.0000449 0.0002386 -0.0002616 -0.0008389 0.0000393 0.0002999 -0.0000741 -0.0001389 -0.0000961 0.0000077 0.0000239 0.0003494 -0.0000178 0.0000831 0.0002657 0.0000701 -0.0001643 -0.0002330 0.0001987 0.0014966 -0.0001628 0.0004154 -0.0000526 0.0001788 0.0000110 0.0002740 -0.0000496 -0.0000664 0.0000222 0.0001169 0.0000141 -0.0000357 0.0000601 0.0000979 0.0000450 -0.0002424 -0.0002007 0.0026168 -0.0005341 0.0007822 -0.0002657 0.0008375 0.0000603 0.0003179 -0.0000385 0.0007406 -0.0000324 0.0001372 0.0000789 0.0008177 -0.0009061 -0.0015641 -0.0002319 -0.0003041 -0.0001844 0.0001267 -0.0002757 0.0003305 -0.0001692 0.0000529
-0.0000354 0.0002113 -0.0001940 0.0000802 -0.0003426 -0.0005816 0.0000285 0.0009797 -0.0000676 0.0002313 -0.0001429 0.0004920 0.0000623 0.0005719 -0.0001223 0.0004784 -0.0000729 -0.0000608 -0.0002168 -0.0002142 -0.0004664 -0.0004354 -0.0001125 0.0004990 0.0000215 -0.0000824 -0.0000993 -0.0003507 -0.0001679 -0.0005763 -0.0001194 -0.0004063 -0.0000026 0.0003285 -0.0000422 0.0002067 -0.0003942 0.0001422 -0.0001502 0.0000922 -0.0002936 0.0002826 -0.0000093 0.0005588 -0.0000660 0.0002963 -0.0022720 -0.0026474 0.0025878 -0.0043781 0.0111432 -0.0171682 0.0132415 -0.0241503 0.0112616 -0.0140245 -0.0031587 -0.0057229 -0.0034610 0.0007522 -0.0093791 0.0115508 -0.0088589 -0.0003168 -0.0011900 -0.0070552 0.0055142 -0.0106011 -0.0137316 0.0143069 -0.0000309 -0.0000209 0.0001406 0.0004195 -0.0002607 -0.0012195 0.0000899 0.0003660 -0.0000091 0.0002856 0.0000593 0.0005913 -0.0002932 -0.0006305 0.0000305 0.0005813 -0.0001115 -0.0000476 -0.0001145 0.0001192 0.0000537 0.0006025 -0.0000280 0.0002230 0.0003784 0.0000635 -0.0001669 -0.0002064 0.0002966 0.0024465 -0.0001738 0.0005812 -0.0000512 0.0004227 -0.0000070 0.0004707 -0.0000262 0.0001701 0.0000261 0.0003452 0.0000192 0.0002600 0.0000584 0.0002032 0.0000504 0.0000006 -0.0002291 0.0031024 -0.0004542 0.0012253 -0.0002814 0.0011619 0.0000506 0.0006768 -0.0000715 0.0010480 -0.0000200 0.0004836 0.0000757 0.0011111 -0.0009127 -0.0016188 -0.0002567 -0.0001680 -0.0001871 0.0002581 -0.0002637 0.0004473 -0.0001847 0.0001908
-0.0000128 0.0002237 -0.0001970 0.0000415 -0.0003514 -0.0006394 0.0000109 0.0009099 -0.0000356 0.0002757 -0.0001767 0.0005613 0.0000418 0.0005227 -0.0001003 0.0005297 -0.0000442 -0.0000432 -0.0002297 -0.0002206 -0.0004034 -0.0004842 -0.0000725 0.0005964 0.0000374 -0.0000833 -0.0001102 -0.0004628 -0.0001636 -0.0006765 -0.0001219 -0.0004775 -0.0000085 0.0002443 -0.0000561 0.0000682 -0.0003828 0.0001915 -0.0001547 0.0000926 -0.0002901 0.0002258 0.0000725 0.0002891 -0.0002804 -0.0001645 0.0051826 -0.0080983 -0.0094344 0.0146524 0.0041963 -0.0059325 0.0010991 -0.0142716 -0.0169404 0.0270768 -0.0216251 -0.0085582 -0.0034795 0.0011553 -0.0164528 0.0238747 0.0008794 -0.0101899 -0.0110230 0.0035785 0.0182602 -0.0344984 -0.0070681 0.0165441 -0.0000217 0.0000992 0.0000532 0.0005058 -0.0002579 -0.0011337 0.0000226 0.0002145 -0.0000228 0.0003158 0.0000327 0.0005947 -0.0002699 -0.0005351 0.0000133 0.0005666 -0.0001016 0.0000233 -0.0001212 0.0001769 0.0000339 0.0006759 -0.0000280 0.0002737 0.0003329 -0.0000348 -0.0001641 -0.0002242 0.0002674 0.0021366 -0.0001821 0.0005396 -0.0000575 0.0004279 -0.0000141 0.0003845 -0.0000013 0.0001398 0.0000240 0.0003229 0.0000398 0.0002597 0.0000338 0.0001222 0.0000497 -0.0000833 -0.0002700 0.0028689 -0.0004151 0.0011706 -0.0002663 0.0010704 0.0000852 0.0005208 -0.0000605 0.0009190 -0.0000094 0.0003026 0.0000509 0.0007754 -0.0007840 -0.0017940 -0.0001861 -0.0002579 -0.0001122 0.0002051 -0.0002071 0.0002653 -0.0001771 0.0000214
0.0000163 0.0002298 -0.0001853 -0.0000207 -0.0004375 -0.0008889 -0.0000151 0.0007297 -0.0000209 0.0002481 -0.0001941 0.0005586 0.0000224 0.0003105 -0.0000946 0.0005454 -0.0000280 0.0000510 -0.0002093 -0.0003394 -0.0003253 -0.0004197 0.0000395 0.0005895 0.0000642 -0.0000858 -0.0001278 -0.0006526 -0.0001346 -0.0006922 -0.0001407 -0.0006039 -0.0000591 -0.0000317 -0.0000917 -0.0002456 -0.0003269 0.0002486 -0.0001665 0.0000605 -0.0002888 0.0001184 0.0001629 -0.0001798 -0.0006297 -0.0007448 0.0021235 -0.0017561 -0.0158442 0.0202784 -0.0019890 -0.0037769 -0.0071735 -0.0033432 -0.0305644 0.0310924 -0.0024699 0.0047504 -0.0026187 -0.0007221 -0.0094761 0.0233676 -0.0088943 0.0111538 0.0006758 -0.0051241 0.0124042 -0.0208159 -0.0050089 0.0182657 -0.0000017 -0.0000159 0.0000277 0.0003424 -0.0002267 -0.0011139 -0.0000153 0.0000260 0.0000043 0.0000822 0.0000056 0.0002929 -0.0002222 -0.0006214 0.0000195 0.0002881 -0.0000630 -0.0000227 -0.0001255 0.0000776 0.0000122 0.0004520 -0.0000281 0.0001757 0.0002246 -0.0001388 -0.0001717 -0.0003084 0.0001754 0.0012193 -0.0001822 0.0003347 -0.0000198 0.0002055 -0.0000103 0.0001751 0.0000148 -0.0000707 0.0000287 0.0001288 0.0000378 0.0000212 0.0000213 -0.0000125 0.0000490 -0.0002832 -0.0003050 0.0024752 -0.0003988 0.0010943 -0.0002106 0.0008949 0.0000885 0.0003085 -0.0000369 0.0007832 -0.0000078 0.0000926 0.0000632 0.0004705 -0.0006899 -0.0018501 -0.0001235 -0.0002672 -0.0001113 0.0002650 -0.0001870 0.0003001 -0.0001677 0.0000349
0.0000199 0.0002582 -0.0001836 -0.0000190 -0.0004702 -0.0009912 -0.0000110 0.0006172 -0.0000196 0.0002481 -0.0001567 0.0005613 0.0000095 0.0001955 -0.0000819 0.0005334 -0.0000462 0.0001592 -0.0002291 -0.0004251 -0.0002871 -0.0002034 0.0000262 0.0006510 0.0000855 -0.0000845 -0.0001368 -0.0007708 -0.0001104 -0.0006670 -0.0001613 -0.0007183 -0.0001386 -0.0002379 -0.0001318 -0.0004677 -0.0002994 0.0002893 -0.0001708 0.0000162 -0.0002995 0.0000212 0.0001611 -0.0004895 -0.0007600 -0.0008294 0.0007619 -0.0001983 -0.0047683 0.0012584 0.0086708 -0.0134690 -0.0012230 0.0047530 -0.0013039 -0.0066444 0.0020482 0.0054041 -0.0011010 -0.0033978 -0.0040377 0.0096808 -0.0185918 0.0172226 0.0085243 -0.0099300 -0.0065671 0.0078315 -0.0051476 0.0156813 -0.0000088 0.0000264 0.0000490 0.0003096 -0.0002289 -0.0009955 -0.0000058 0.0000838 -0.0000009 0.0001971 -0.0000195 0.0003724 -0.0002165 -0.0004489 0.0000091 0.0003889 -0.0000621 0.0000919 -0.0001290 0.0001083 0.0000071 0.0004356 -0.0000515 0.0002361 0.0001811 -0.0000292 -0.0002004 -0.0002261 0.0001415 0.0010667 -0.0002060 0.0003870 -0.0000242 0.0002827 -0.0000473 0.0003669 -0.0000251 0.0001010 0.0000095 0.0002077 0.0000038 0.0001451 0.0000064 0.0000626 0.0000433 -0.0000958 -0.0003537 0.0028033 -0.0004012 0.0014177 -0.0002284 0.0012046 0.0000733 0.0006340 -0.0000553 0.0011815 -0.0000209 0.0004977 0.0000697 0.0007100 -0.0006742 -0.0015213 -0.0001502 0.0000520 -0.0001607 0.0006073 -0.0001849 0.0006839 -0.0001984 0.0003830
0.0000395 0.0002025 -0.0001886 -0.0000688 -0.0004554 -0.0009804 -0.0000085 0.0005243 -0.0000069 0.0001891 -0.0001605 0.0005751 -0.0000026 0.0000824 -0.0000798 0.0004934 -0.0000281 0.0001298 -0.0002302 -0.0004736 -0.0002093 -0.0001604 -0.0000351 0.0007188 0.0001029 -0.0001566 -0.0001449 -0.0008493 -0.0000929 -0.0007041 -0.0001614 -0.0008364 -0.0001795 -0.0003967 -0.0001398 -0.0006450 -0.0002872 0.0002137 -0.0001730 -0.0000399 -0.0003001 -0.0001027 0.0001478 -0.0007081 -0.0007766 -0.0008816 0.0027286 -0.0086337 -0.0027971 0.0029863 0.0115358 -0.0206538 0.0077746 -0.0065523 -0.0060728 0.0013095 -0.0034606 0.0019878 0.0000177 -0.0020628 -0.0004934 0.0009799 -0.0029659 -0.0163987 0.0143072 -0.0170962 -0.0109711 0.0138505 -0.0068906 0.0023039 -0.0000219 0.0002622 0.0000270 0.0005247 -0.0002358 -0.0007285 -0.0000167 0.0001566 -0.0000382 0.0004615 -0.0000631 0.0006377 -0.0002242 -0.0001943 -0.0000294 0.0005772 -0.0000827 0.0002626 -0.0001376 0.0002370 -0.0000117 0.0005424 -0.0000513 0.0003603 0.0001458 0.0000469 -0.0002136 -0.0001606 0.0001270 0.0009645 -0.0002154 0.0004494 -0.0000577 0.0003617 -0.0000692 0.0004182 -0.0000564 0.0002059 0.0000061 0.0003132 0.0000046 0.0001961 -0.0000012 0.0001571 0.0000278 -0.0000872 -0.0003711 0.0028960 -0.0003861 0.0015231 -0.0002429 0.0012065 0.0000716 0.0004964 -0.0000657 0.0010338 -0.0000463 0.0003306 0.0000340 0.0005580 -0.0006828 -0.0015116 -0.0001477 -0.0001205 -0.0001687 0.0003825 -0.0001834 0.0005181 -0.0002067 0.0002918
0.0000417 0.0003877 -0.0001965 -0.0000082 -0.0004532 -0.0008309 -0.0000012 0.0006804 -0.0000151 0.0002989 -0.0001479 0.0006522 -0.0000215 0.0001337 -0.0000722 0.0005445 0.0000079 0.0001462 -0.0001915 -0.0005128 -0.0001729 -0.0000538 0.0000150 0.0007449 0.0001154 -0.0001770 -0.0001510 -0.0008794 -0.0000798 -0.0007170 -0.0001716 -0.0008850 -0.0001898 -0.0004556 -0.0001438 -0.0007225 -0.0002918 0.0001959 -0.0001715 -0.0000557 -0.0003076 -0.0001959 0.0001216 -0.0007936 -0.0007574 -0.0008752 -0.0005096 -0.0054081 -0.0011258 0.0071018 0.0021223 -0.0153219 -0.0014523 -0.0018885 -0.0307999 0.0282251 -0.0135587 0.0115931 -0.0022127 0.0005756 0.0100931 -0.0192511 0.0128119 -0.0411968 0.0072684 -0.0139601 -0.0133545 0.0179368 0.0048978 -0.0237485 -0.0000365 0.0001355 0.0000301 0.0004673 -0.0002057 -0.0005367 -0.0000694 -0.0001578 -0.0000530 0.0003115 -0.0000420 0.0005394 -0.0002112 -0.0002590 -0.0000375 0.0004162 -0.0001068 0.0001383 -0.0001242 0.0001911 -0.0000509 0.0005542 -0.0000649 0.0003146 0.0001727 -0.0000103 -0.0002167 -0.0002239 0.0001635 0.0012626 -0.0001972 0.0003785 -0.0000669 0.0003169 -0.0000549 0.0002205 -0.0000497 0.0000901 0.0000299 0.0003102 0.0000403 0.0000983 0.0000224 0.0002184 0.0000167 -0.0002682 -0.0003297 0.0028571 -0.0003461 0.0015682 -0.0002390 0.0010426 0.0000495 0.0002104 -0.0000793 0.0007098 -0.0000656 -0.0000127 -0.0000007 0.0003960 -0.0006952 -0.0016467 -0.0001375 -0.0004429 -0.0001749 0.0000226 -0.0001602 0.0002076 -0.0001975 0.0001057
0.0000351 0.0003290 -0.0001824 -0.0000574 -0.0004153 -0.0007977 0.0000362 0.0006323 -0.0000102 0.0002677 -0.0001006 0.0005710 -0.0000239 0.0000528 -0.0000507 0.0004588 0.0000199 0.0001304 -0.0001995 -0.0005328 -0.0001714 -0.0000678 0.0000211 0.0006773 0.0001192 -0.0002403 -0.0001414 -0.0008921 -0.0000660 -0.0007264 -0.0001701 -0.0009415 -0.0001840 -0.0005490 -0.0001493 -0.0008032 -0.0002939 0.0001083 -0.0001586 -0.0001130 -0.0003164 -0.0003209 0.0001013 -0.0009052 -0.0007335 -0.0009976 0.0025410 -0.0082997 -0.0097616 0.0182155 -0.0006101 -0.0035526 -0.0002550 0.0009755 -0.0103957 0.0144258 -0.0146067 0.0204612 -0.0039109 0.0012419 -0.0005451 0.0043847 0.0353395 -0.0777935 -0.0097994 0.0046149 0.0022348 0.0001140 0.0279600 -0.0611242 -0.0000379 -0.0000050 0.0000503 0.0003499 -0.0001815 -0.0003702 -0.0001220 -0.0004753 -0.0000543 0.0002205 -0.0000165 0.0004690 -0.0001949 -0.0002500 -0.0000417 0.0003549 -0.0001183 0.0000732 -0.0001291 0.0001945 -0.0000386 0.0006248 -0.0000745 0.0002954 0.0001957 -0.0000510 -0.0002199 -0.0002274 0.0001919 0.0015671 -0.0001849 0.0004106 -0.0000811 0.0004471 -0.0000486 0.0002088 -0.0000326 0.0001860 0.0000458 0.0003782 0.0000527 0.0002366 0.0000300 0.0002849 0.0000037 -0.0001878 -0.0003341 0.0030870 -0.0003220 0.0018226 -0.0002537 0.0012618 0.0000247 0.0004368 -0.0000920 0.0010073 -0.0000675 0.0002816 0.0000016 0.0006320 -0.0007098 -0.0014713 -0.0001550 -0.0002062 -0.0001914 0.0002790 -0.0001707 0.0005348 -0.0002225 0.0004225
0.0000434 0.0002700 -0.0001753 -0.0001180 -0.0004173 -0.0007563 0.0000377 0.0007441 -0.0000127 0.0004097 -0.0001216 0.0005793 -0.0000390 0.0001741 -0.0000305 0.0005008 0.0000190 0.0002757 -0.0002117 -0.0004414 -0.0001579 0.0001564 -0.0000412 0.0007511 0.0001200 -0.0001118 -0.0001396 -0.0008062 -0.0000587 -0.0005854 -0.0001704 -0.0008790 -0.0001988 -0.0004733 -0.0001526 -0.0007501 -0.0002845 0.0002001 -0.0001617 -0.0001005 -0.0003132 -0.0002899 0.0001098 -0.0009084 -0.0007475 -0.0010062 0.0054399 -0.0129832 -0.0094195 0.0121689 -0.0041412 0.0116067 0.0022678 0.0035653 -0.0141589 0.0301933 -0.0109910 0.0183488 0.0000552 0.0002724 0.0023065 -0.0005289 0.0068955 -0.0073618 0.0116705 -0.0111524 0.0070275 -0.0057116 0.0029080 0.0055204 -0.0000491 0.0002471 0.0000298 0.0005116 -0.0001763 -0.0000262 -0.0001450 -0.0004019 -0.0000953 0.0005535 -0.0000539 0.0007759 -0.0002029 0.0001181 -0.0000800 0.0006638 -0.0001134 0.0003048 -0.0001350 0.0003839 -0.0000490 0.0008243 -0.0000403 0.0004452 0.0001551 -0.0000153 -0.0002238 -0.0001133 0.0001605 0.0013773 -0.0001980 0.0005274 -0.0001195 0.0006119 -0.0000773 0.0002596 -0.0000508 0.0003714 0.0000478 0.0004948 0.0000488 0.0003271 0.0000020 0.0002855 0.0000008 -0.0001289 -0.0003661 0.0029663 -0.0004208 0.0016452 -0.0002555 0.0012581 0.0000333 0.0003585 -0.0001041 0.0009369 -0.0000592 0.0001457 -0.0000077 0.0003489 -0.0006286 -0.0016371 -0.0001321 -0.0002706 -0.0001833 0.0002485 -0.0001515 0.0003499 -0.0002287 0.0002676
0.0000575 0.0002212 -0.0001884 -0.0001558 -0.0004288 -0.0007946 0.0000076 0.0006888 -0.0000001 0.0004031 -0.0001375 0.0005883 -0.0000280 0.0001114 -0.0000216 0.0004897 -0.0000049 0.0003157 -0.0002056 -0.0003876 -0.0001334 0.0001443 -0.0000737 0.0008273 0.0001241 -0.0000853 -0.0001383 -0.0008144 -0.0000626 -0.0005817 -0.0001701 -0.0009164 -0.0002185 -0.0004748 -0.0001565 -0.0007800 -0.0002675 0.0001141 -0.0001626 -0.0001421 -0.0003033 -0.0003481 0.0001248 -0.0009531 -0.0007509 -0.0010244 0.0033238 -0.0021609 0.0031410 0.0011840 -0.0047855 0.0085760 -0.0143979 0.0176074 -0.0150799 0.0285498 -0.0075387 -0.0014753 -0.0003714 0.0000770 0.0168740 -0.0414986 0.0000624 0.0062268 0.0154911 -0.0153929 -0.0045663 0.0059911 -0.0059170 0.0202604 -0.0000443 0.0001074 0.0000200 0.0003311 -0.0001430 -0.0000073 -0.0001553 -0.0005075 -0.0000990 0.0003228 -0.0000492 0.0004959 -0.0001777 -0.0000404 -0.0000854 0.0004318 -0.0000969 0.0001645 -0.0001337 0.0003081 -0.0000672 0.0006719 -0.0000227 0.0003275 0.0001212 -0.0000988 -0.0002200 -0.0001527 0.0001294 0.0011086 -0.0001804 0.0003958 -0.0001022 0.0004051 -0.0000765 0.0000905 -0.0000432 0.0001470 0.0000388 0.0003479 0.0000402 0.0000658 -0.0000028 0.0001652 0.0000071 -0.0003144 -0.0003485 0.0026874 -0.0004573 0.0014115 -0.0002479 0.0010029 0.0000393 0.0000377 -0.0001283 0.0005854 -0.0000538 -0.0002402 0.0000112 -0.0000017 -0.0005326 -0.0019904 -0.0000805 -0.0005648 -0.0001432 -0.0000663 -0.0000930 -0.0000708 -0.0001984 -0.0000450
0.0000653 0.0001483 -0.0001940 -0.0002148 -0.0004215 -0.0007799 0.0000131 0.0005987 0.0000056 0.0003813 -0.0001375 0.0005715 -0.0000334 0.0000301 -0.0000320 0.0004530 -0.0000201 0.0003042 -0.0001962 -0.0004072 -0.0001652 0.0001342 -0.0001258 0.0008939 0.0001363 0.0000025 -0.0001480 -0.0008195 -0.0000652 -0.0005768 -0.0001853 -0.0009079 -0.0002406 -0.0004224 -0.0001761 -0.0007428 -0.0002762 0.0002266 -0.0001667 -0.0000918 -0.0003009 -0.0002580 0.0001189 -0.0008018 -0.0007474 -0.0008473 0.0041087 -0.0017491 -0.0115519 0.0235347 0.0002239 -0.0103251 -0.0173904 0.0044122 -0.0051619 0.0199736 0.0072628 -0.0099783 -0.0012008 -0.0037075 0.0091951 -0.0214883 0.0011902 0.0020387 0.0005729 -0.0001504 0.0097714 -0.0116063 0.0051467 -0.0059072 -0.0000209 -0.0001393 0.0000171 0.0001058 -0.0000690 0.0000192 -0.0001735 -0.0007763 -0.0000650 -0.0000090 -0.0000302 0.0001238 -0.0001489 -0.0003078 -0.0000666 0.0000578 -0.0000889 -0.0000327 -0.0001408 0.0001494 -0.0000583 0.0004750 -0.0000344 0.0001539 0.0000906 -0.0002148 -0.0002180 -0.0002565 0.0000985 0.0008810 -0.0001501 0.0002413 -0.0000804 0.0002361 -0.0000642 0.0000014 -0.0000175 -0.0000148 0.0000405 0.0001892 0.0000402 -0.0000484 -0.0000009 0.0000837 -0.0000087 -0.0003824 -0.0003689 0.0027258 -0.0004925 0.0015581 -0.0002359 0.0010739 0.0000281 0.0001448 -0.0001409 0.0007340 -0.0000618 -0.0000841 0.0000272 0.0001175 -0.0005505 -0.0018348 -0.0000388 -0.0004246 -0.0001235 0.0000885 -0.0000824 0.0001445 -0.0002173 0.0001878
0.0000758 0.0000954 -0.0001863 -0.0002652 -0.0004205 -0.0007832 0.0000240 0.0005195 -0.0000016 0.0003156 -0.0001397 0.0004969 -0.0000324 -0.0000689 -0.0000324 0.0004176 -0.0000055 0.0002631 -0.0001426 -0.0004664 -0.0001755 0.0001313 -0.0001564 0.0009354 0.0001432 0.0000117 -0.0001486 -0.0008239 -0.0000657 -0.0005992 -0.0001850 -0.0009430 -0.0002367 -0.0005061 -0.0001689 -0.0008265 -0.0002811 0.0001541 -0.0001665 -0.0001448 -0.0002861 -0.0003039 0.0001238 -0.0008361 -0.0007402 -0.0008669 0.0030848 -0.0038555 -0.0264811 0.0271735 -0.0021469 -0.0001173 -0.0168851 0.0119657 -0.0101667 0.0300512 0.0097021 -0.0116851 -0.0035721 -0.0042451 0.0126776 -0.0196416 -0.0020623 -0.0068815 0.0016379 -0.0049302 0.0120574 -0.0113377 0.0115700 -0.0265903 -0.0000264 0.0000156 -0.0000054 0.0002276 -0.0000118 0.0004184 -0.0001867 -0.0007587 -0.0000915 0.0002677 -0.0000599 0.0003742 -0.0001716 0.0000102 -0.0000892 0.0002630 -0.0000911 0.0001564 -0.0001555 0.0002840 -0.0000520 0.0006011 -0.0000642 0.0002937 0.0000706 -0.0001537 -0.0002216 -0.0001737 0.0000798 0.0008603 -0.0001639 0.0003547 -0.0001016 0.0004292 -0.0001146 0.0002169 -0.0000409 0.0002593 0.0000401 0.0003336 0.0000444 0.0001970 -0.0000242 0.0001502 -0.0000226 -0.0002132 -0.0004454 0.0028725 -0.0006318 0.0015627 -0.0002431 0.0011895 0.0000155 0.0002678 -0.0001620 0.0008170 -0.0000724 -0.0000309 0.0000134 0.0000619 -0.0005967 -0.0016775 -0.0000147 -0.0003965 -0.0001278 0.0001158 -0.0000573 0.0000915 -0.0002325 0.0001558
0.0000897 0.0000335 -0.0001841 -0.0003337 -0.0004166 -0.0008020 0.0000203 0.0004639 0.0000088 0.0002082 -0.0001349 0.0004247 -0.0000218 -0.0001945 -0.0000083 0.0003390 0.0000033 0.0002125 -0.0001539 -0.0004143 -0.0001422 0.0000707 -0.0001202 0.0008790 0.0001571 -0.0000002 -0.0001450 -0.0008436 -0.0000644 -0.0006367 -0.0001762 -0.0009912 -0.0002374 -0.0005739 -0.0001701 -0.0009167 -0.0002494 0.0000117 -0.0001684 -0.0002156 -0.0002630 -0.0003571 0.0001419 -0.0007220 -0.0007442 -0.0007762 -0.0019939 0.0019426 -0.0087176 0.0019124 -0.0029177 0.0055650 -0.0112398 0.0189379 -0.0051480 0.0121179 -0.0002995 -0.0093173 -0.0043253 0.0012943 0.0161167 -0.0228568 -0.0006063 -0.0056364 0.0098109 -0.0154423 0.0016319 -0.0042080 0.0071055 -0.0116281 -0.0000284 -0.0000617 -0.0000243 0.0001632 0.0000055 0.0004786 -0.0001876 -0.0007786 -0.0001009 0.0001584 -0.0000623 0.0002393 -0.0001492 -0.0000492 -0.0000940 0.0001410 -0.0000866 0.0000970 -0.0001699 0.0002688 -0.0000173 0.0004896 -0.0000626 0.0002596 0.0000513 -0.0002332 -0.0002127 -0.0002063 0.0000588 0.0007028 -0.0001507 0.0002549 -0.0000676 0.0002827 -0.0001192 0.0000943 -0.0000342 0.0001138 0.0000456 0.0002243 0.0000528 0.0000651 -0.0000211 0.0000791 -0.0000137 -0.0003517 -0.0004499 0.0026585 -0.0006202 0.0014516 -0.0002472 0.0010000 -0.0000118 0.0000612 -0.0001593 0.0005819 -0.0000697 -0.0002973 0.0000299 -0.0001502 -0.0005140 -0.0019129 0.0000144 -0.0006162 -0.0000798 -0.0001944 -0.0000200 -0.0002177 -0.0002169 -0.0000964
0.0001056 0.0000022 -0.0001792 -0.0003703 -0.0003998 -0.0007358 0.0000205 0.0004750 0.0000336 0.0001621 -0.0001129 0.0004215 -0.0000239 -0.0002716 -0.0000061 0.0002805 -0.0000039 0.0002074 -0.0001924 -0.0003266 -0.0001390 0.0000682 -0.0000487 0.0008039 0.0001553 -0.0000047 -0.0001487 -0.0008447 -0.0000624 -0.0006726 -0.0001748 -0.0010075 -0.0002187 -0.0006404 -0.0001644 -0.0010238 -0.0002380 -0.0001308 -0.0001668 -0.0002413 -0.0002460 -0.0004278 0.0001350 -0.0007641 -0.0007145 -0.0008347 0.0081275 -0.0055851 0.0034369 -0.0050182 0.0065299 -0.0140491 -0.0035395 0.0086841 -0.0102882 0.0170275 -0.0013199 -0.0074918 -0.0004482 0.0000103 0.0046576 0.0031763 -0.0040557 0.0047875 0.0075333 -0.0094313 0.0067214 -0.0292335 0.0056643 -0.0041381 -0.0000315 -0.0002901 0.0000157 0.0000144 0.0000271 0.0003749 -0.0001910 -0.0009468 -0.0000821 -0.0001259 -0.0000373 -0.0000216 -0.0001179 -0.0003221 -0.0000658 -0.0000869 -0.0000952 -0.0000658 -0.0001447 0.0000908 0.0000277 0.0003010 -0.0000746 0.0001326 0.0000523 -0.0003651 -0.0001997 -0.0003191 0.0000334 0.0006094 -0.0001203 0.0000787 -0.0000307 0.0000066 -0.0000309 -0.0001058 -0.0000065 -0.0002328 0.0000454 -0.0000096 0.0000433 -0.0002450 -0.0000149 -0.0001210 0.0000117 -0.0005562 -0.0004391 0.0024763 -0.0004684 0.0016607 -0.0002704 0.0009289 0.0000151 0.0000661 -0.0001703 0.0006090 -0.0000628 -0.0001708 0.0000802 0.0000666 -0.0004233 -0.0019425 0.0000516 -0.0005584 -0.0000286 -0.0001481 -0.0000071 -0.0001525 -0.0001886 -0.0000448
0.0001082 -0.0001207 -0.0001578 -0.0004170 -0.0003165 -0.0006154 0.0000698 0.0003698 0.0000716 -0.0000069 -0.0000603 0.0003117 -0.0000049 -0.0004598 -0.0000248 0.0001219 -0.0000308 0.0001993 -0.0001952 -0.0003455 -0.0000928 0.0001077 0.0000305 0.0007781 0.0001471 -0.0001095 -0.0001406 -0.0008562 -0.0000607 -0.0007184 -0.0001737 -0.0009957 -0.0001981 -0.0006532 -0.0001394 -0.0011736 -0.0002074 -0.0003025 -0.0001281 -0.0001962 -0.0002166 -0.0005326 0.0000799 -0.0008881 -0.0006554 -0.0011096 0.0155329 -0.0209212 0.0158777 -0.0249465 -0.0021785 0.0078600 -0.0096982 0.0103787 -0.0203610 0.0225730 0.0037632 -0.0063322 0.0001295 -0.0025479 0.0020381 0.0018004 0.0078809 -0.0196573 -0.0075333 0.0067335 0.0349706 -0.0899625 -0.0076168 0.0090574 -0.0000465 -0.0001729 0.0000434 0.0001749 -0.0000876 -0.0000724 -0.0000970 -0.0006161 -0.0000897 0.0000714 -0.0000202 0.0001919 -0.0001547 -0.0002421 -0.0000491 0.0001289 -0.0001043 0.0000315 -0.0001400 0.0001354 0.0000030 0.0004109 -0.0000841 0.0001874 0.0001112 -0.0002801 -0.0001906 -0.0002768 0.0000547 0.0009908 -0.0001245 0.0001730 -0.0000279 0.0000835 0.0000189 0.0000803 -0.0000039 -0.0001451 0.0000288 0.0000782 0.0000219 -0.0001058 -0.0000179 -0.0001466 0.0000206 -0.0003756 -0.0004479 0.0028007 -0.0003692 0.0020268 -0.0002984 0.0011277 0.0000242 0.0004497 -0.0001994 0.0009199 -0.0000548 0.0002890 0.0001374 0.0005656 -0.0005139 -0.0016036 0.0000281 -0.0002678 -0.0000489 0.0001810 -0.0000006 0.0001829 -0.0001744 0.0002238
0.0001216 -0.0000641 -0.0001366 -0.0003287 -0.0001155 -0.0002165 0.0002149 0.0005638 0.0001060 0.0000843 -0.0000084 0.0003603 -0.0000063 -0.0005074 -0.0000165 -0.0000846 -0.0000738 0.0002655 -0.0001708 -0.0002347 -0.0000605 0.0002626 -0.0000161 0.0008547 0.0001449 -0.0001886 -0.0001159 -0.0007527 -0.0000447 -0.0007200 -0.0001449 -0.0008665 -0.0001863 -0.0005318 -0.0001201 -0.0012685 -0.0001393 -0.0003777 -0.0000705 -0.0000194 -0.0001797 -0.0005574 0.0000032 -0.0009413 -0.0005506 -0.0012454 0.0103310 -0.0203270 0.0192345 -0.0431256 0.0007140 0.0044519 -0.0150062 0.0127736 -0.0103791 0.0037295 -0.0018061 0.0003284 -0.0006695 -0.0008235 0.0051778 -0.0098104 0.0105479 -0.0227926 -0.0070172 -0.0011662 0.0243427 -0.0478863 -0.0231418 0.0197114 -0.0000646 0.0001213 -0.0000036 0.0004720 -0.0002458 -0.0006594 0.0000083 -0.0000736 -0.0001260 0.0003635 -0.0000503 0.0004464 -0.0002092 -0.0001396 -0.0000441 0.0004015 -0.0001068 0.0001917 -0.0001607 0.0002462 -0.0000499 0.0005633 -0.0000697 0.0002980 0.0000865 -0.0002458 -0.0001882 -0.0002460 0.0000245 0.0007633 -0.0001350 0.0002009 -0.0000536 0.0001141 0.0000001 0.0001404 -0.0000459 -0.0000579 0.0000068 0.0000739 0.0000334 -0.0000212 -0.0000413 -0.0002058 0.0000144 -0.0003717 -0.0004882 0.0026863 -0.0004169 0.0018634 -0.0002957 0.0010103 0.0000074 0.0003768 -0.0001994 0.0007610 -0.0000297 0.0001666 0.0001401 0.0003954 -0.0004850 -0.0018027 0.0000257 -0.0003947 -0.0000073 0.0000217 0.0000155 -0.0000397 -0.0001772 -0.0000040
0.0001571 -0.0001611 -0.0001188 -0.0003890 -0.0000250 -0.0001316 0.0002898 0.0006291 0.0001240 0.0001214 0.0000079 0.0002927 0.0000136 -0.0006131 -0.0000037 -0.0002954 -0.0000667 0.0002208 -0.0001383 -0.0001798 -0.0000227 0.0002309 -0.0000124 0.0007968 0.0001549 -0.0002564 -0.0000694 -0.0005621 -0.0000021 -0.0007089 -0.0001057 -0.0008977 -0.0001603 -0.0006931 -0.0001120 -0.0014622 -0.0000787 -0.0005142 -0.0000447 -0.0000961 -0.0001529 -0.0006604 -0.0000071 -0.0010365 -0.0005199 -0.0013444 0.0051334 -0.0087092 -0.0112606 0.0135970 -0.0008489 -0.0062613 -0.0088538 -0.0000172 -0.0096307 -0.0035875 -0.0035935 -0.0023602 0.0004392 -0.0007808 -0.0023662 0.0095681 0.0024147 -0.0212138 -0.0002353 -0.0011183 0.0036934 -0.0005471 -0.0154267 0.0134986 -0.0000747 -0.0000823 0.0000549 0.0003954 -0.0002493 -0.0008994 0.0000539 0.0000132 -0.0001569 0.0001289 -0.0000524 0.0002804 -0.0002233 -0.0004210 0.0000039 0.0003537 -0.0001318 0.0000492 -0.0001329 0.0001501 -0.0000277 0.0004711 -0.0000306 0.0001905 0.0001039 -0.0002764 -0.0001769 -0.0003212 0.0000290 0.0007492 -0.0001089 0.0001743 -0.0000208 -0.0000692 0.0000610 0.0001012 -0.0000577 -0.0003030 -0.0000063 -0.0001210 0.0000304 -0.0002673 -0.0000322 -0.0003267 0.0000491 -0.0005144 -0.0005041 0.0023796 -0.0004180 0.0016599 -0.0003090 0.0007449 0.0000027 0.0001063 -0.0001817 0.0004434 -0.0000167 -0.0001091 0.0001599 0.0001132 -0.0004101 -0.0021667 0.0000620 -0.0006249 0.0000522 -0.0002138 0.0000565 -0.0004097 -0.0001547 -0.0003256
0.0001565 -0.0001182 -0.0001316 -0.0004586 -0.0001223 -0.0001581 0.0002175 0.0008586 0.0001245 0.0003326 -0.0000037 0.0002824 0.0000181 -0.0002910 -0.0000173 -0.0001452 -0.0000378 0.0002675 -0.0001081 -0.0001573 -0.0000301 0.0004040 -0.0000252 0.0008347 0.0001696 -0.0000703 -0.0000439 -0.0003765 0.0000334 -0.0005164 -0.0001191 -0.0009620 -0.0001754 -0.0007701 -0.0001065 -0.0014302 -0.0000540 -0.0004131 -0.0000645 -0.0002283 -0.0001394 -0.0006627 0.0000187 -0.0009924 -0.0005593 -0.0014010 0.0037026 -0.0031320 -0.0203056 0.0255124 -0.0124650 0.0053227 -0.0146574 0.0123144 -0.0013871 0.0010347 0.0101960 -0.0163029 -0.0006668 -0.0012634 -0.0019588 0.0096383 -0.0166515 -0.0022883 -0.0060463 0.0106804 -0.0108363 0.0209766 -0.0048809 0.0102692 -0.0000536 -0.0003400 0.0001587 0.0001785 -0.0002151 -0.0009605 0.0000653 -0.0001290 -0.0001459 -0.0001135 -0.0000121 0.0000749 -0.0002038 -0.0006331 0.0000582 0.0002220 -0.0001200 -0.0001093 -0.0001210 0.0000272 0.0000176 0.0003454 -0.0000102 0.0000700 0.0001716 -0.0003318 -0.0001625 -0.0003957 0.0000637 0.0011057 -0.0000879 0.0001538 0.0000159 -0.0001254 0.0001027 0.0001740 -0.0000562 -0.0004258 -0.0000071 -0.0001842 -0.0000096 -0.0003886 0.0000030 -0.0003142 0.0000802 -0.0004065 -0.0004784 0.0024862 -0.0004551 0.0016681 -0.0003487 0.0008581 -0.0000093 0.0002774 -0.0001721 0.0006797 -0.0000116 0.0001491 0.0001648 0.0003085 -0.0004084 -0.0020509 0.0000724 -0.0003903 0.0000436 0.0000714 0.0000688 -0.0001131 -0.0001476 -0.0000978
0.0001591 -0.0002538 -0.0001475 -0.0005988 -0.0001628 -0.0002890 0.0001946 0.0007754 0.0001562 0.0002574 0.0000163 0.0001644 0.0000136 -0.0004115 -0.0000307 -0.0002348 -0.0000301 0.0001853 -0.0000948 -0.0002406 -0.0000519 0.0003454 0.0000067 0.0007248 0.0001877 -0.0000744 -0.0000402 -0.0004503 0.0000607 -0.0005119 -0.0001368 -0.0011201 -0.0001700 -0.0009368 -0.0000930 -0.0016135 -0.0000134 -0.0005597 -0.0000531 -0.0002678 -0.0001160 -0.0008127 0.0000212 -0.0010536 -0.0005592 -0.0016133 0.0020404 -0.0082215 -0.0021934 0.0037423 0.0031458 -0.0153332 -0.0147749 0.0217230 0.0073787 -0.0025417 -0.0005538 -0.0020699 -0.0038542 0.0008579 0.0047703 0.0007757 -0.0194047 0.0191795 -0.0052863 0.0086247 -0.0127340 0.0159642 0.0059119 -0.0027708 -0.0000414 -0.0001489 0.0001497 0.0002525 -0.0002315 -0.0009429 0.0000534 -0.0000660 -0.0001434 0.0001665 -0.0000290 0.0002674 -0.0002136 -0.0004585 0.0000453 0.0003817 -0.0001054 0.0000661 -0.0001397 0.0001168 0.0000161 0.0004232 -0.0000495 0.0002113 0.0001682 -0.0002909 -0.0001614 -0.0003451 0.0000463 0.0011128 -0.0000993 0.0002067 -0.0000139 0.0000599 0.0000806 0.0003570 -0.0001044 -0.0002401 -0.0000145 -0.0000322 -0.0000757 -0.0003004 0.0000104 -0.0002103 0.0000720 -0.0001058 -0.0005271 0.0028354 -0.0005801 0.0017525 -0.0003937 0.0011842 -0.0000051 0.0006243 -0.0001959 0.0010468 -0.0000055 0.0005216 0.0001311 0.0005046 -0.0003846 -0.0018676 0.0000505 -0.0002095 0.0000197 0.0002582 0.0000462 -0.0000243 -0.0001403 -0.0000769
0.0001844 -0.0004120 -0.0001265 -0.0007335 -0.0002347 -0.0005250 0.0001469 0.0005567 0.0002055 0.0001407 0.0000363 0.0000235 0.0000004 -0.0006731 0.0000129 -0.0003619 -0.0000564 0.0001398 -0.0001131 -0.0003049 -0.0000344 0.0002858 0.0000472 0.0006742 0.0002050 -0.0000260 -0.0000427 -0.0005567 0.0000614 -0.0005919 -0.0001319 -0.0012410 -0.0001592 -0.0010371 -0.0000964 -0.0017543 0.0000336 -0.0005746 -0.0000356 -0.0002111 -0.0000936 -0.0008627 0.0000207 -0.0008240 -0.0005626 -0.0014931 0.0034228 -0.0196762 -0.0026667 0.0061579 0.0078502 -0.0237666 0.0015487 0.0003582 0.0182709 -0.0268008 0.0081236 -0.0059545 -0.0051130 0.0002283 0.0013488 -0.0063920 -0.0013581 0.0022087 0.0047820 -0.0000154 0.0015076 -0.0074076 0.0053440 -0.0026919 -0.0000402 -0.0001146 0.0001358 0.0003555 -0.0002762 -0.0011764 0.0000877 0.0000626 -0.0001414 0.0001678 -0.0000294 0.0002924 -0.0002636 -0.0006457 0.0000408 0.0003945 -0.0000974 0.0000583 -0.0001292 0.0001088 0.0000220 0.0003522 -0.0000358 0.0002090 0.0001750 -0.0002732 -0.0001485 -0.0003708 0.0000327 0.0009574 -0.0000809 0.0001866 -0.0000241 -0.0000632 0.0001247 0.0002461 -0.0001385 -0.0004591 -0.0000200 -0.0001232 -0.0001432 -0.0006593 0.0000192 -0.0003078 0.0000759 -0.0001448 -0.0005689 0.0026300 -0.0004828 0.0018450 -0.0003899 0.0011028 0.0000612 0.0005350 -0.0001767 0.0008887 0.0000225 0.0003753 0.0001830 0.0003981 -0.0003345 -0.0019757 0.0000659 -0.0003237 0.0000502 0.0001771 0.0000411 -0.0002942 -0.0001037 -0.0003617
0.0001992 -0.0004998 -0.0001138 -0.0008043 -0.0003581 -0.0007719 0.0000800 0.0004422 0.0001942 0.0001177 0.0000297 -0.0000683 -0.0000091 -0.0007542 0.0000650 -0.0004295 -0.0000626 0.0000759 -0.0001328 -0.0003881 -0.0000608 0.0002789 -0.0000219 0.0006851 0.0002240 0.0000038 -0.0000435 -0.0006679 0.0000745 -0.0006847 -0.0001109 -0.0013915 -0.0001625 -0.0012277 -0.0000726 -0.0019074 0.0000793 -0.0007135 -0.0000393 -0.0003126 -0.0000866 -0.0010389 0.0000422 -0.0009166 -0.0005620 -0.0015263 0.0071883 -0.0159081 0.0012322 -0.0046831 0.0094839 -0.0174294 0.0016634 -0.0055875 0.0091153 -0.0151480 0.0167048 -0.0214899 -0.0007444 -0.0047245 -0.0225436 0.0175314 0.0094922 -0.0301278 -0.0010091 0.0017233 -0.0023143 -0.0013570 -0.0049885 0.0039938 -0.0000347 -0.0002814 0.0001688 0.0002858 -0.0002826 -0.0013926 0.0001089 -0.0000113 -0.0001140 -0.0000575 -0.0000080 0.0000955 -0.0002915 -0.0010012 0.0000781 0.0002204 -0.0000622 -0.0000961 -0.0001115 -0.0000230 0.0000084 0.0001146 -0.0000080 0.0000660 0.0001994 -0.0002769 -0.0001317 -0.0004751 -0.0000168 0.0005700 -0.0000533 0.0000591 -0.0000363 -0.0003401 0.0001730 0.0000691 -0.0001628 -0.0008333 -0.0000286 -0.0003813 -0.0002000 -0.0011435 0.0000399 -0.0004776 0.0000852 -0.0003117 -0.0005504 0.0022819 -0.0003445 0.0018953 -0.0003471 0.0008957 0.0001233 0.0004115 -0.0001658 0.0006642 0.0000531 0.0001497 0.0002429 0.0003481 -0.0002774 -0.0019711 0.0001009 -0.0003710 0.0000952 0.0001210 0.0000434 -0.0003309 -0.0001121 -0.0003843
0.0001957 -0.0006977 -0.0001323 -0.0009680 -0.0004278 -0.0010212 0.0000714 0.0002794 0.0001629 -0.0000807 -0.0000018 -0.0002971 0.0000077 -0.0009031 0.0000891 -0.0005991 -0.0000084 -0.0000493 -0.0001165 -0.0006416 -0.0000583 0.0002368 0.0000272 0.0004239 0.0002630 0.0000108 -0.0000362 -0.0007835 0.0001332 -0.0006877 -0.0001008 -0.0015064 -0.0001715 -0.0014293 -0.0000524 -0.0020247 0.0001263 -0.0008493 -0.0000334 -0.0004306 -0.0000882 -0.0012099 0.0000604 -0.0010411 -0.0005688 -0.0015777 0.0075593 -0.0170812 -0.0022193 0.0031497 0.0157460 -0.0282842 -0.0084410 0.0056400 -0.0035942 0.0006595 0.0037225 -0.0073441 0.0012648 -0.0035578 -0.0086101 0.0200653 -0.0038526 -0.0065514 -0.0293112 0.0163632 -0.0342403 0.0311223 -0.0066763 0.0102762 -0.0000382 -0.0003299 0.0002166 0.0002278 -0.0002690 -0.0013949 0.0001235 -0.0000438 -0.0000918 0.0000214 0.0000040 0.0000994 -0.0003153 -0.0010945 0.0000998 0.0002404 -0.0000532 -0.0000787 -0.0001113 -0.0000323 0.0000036 0.0000670 0.0000122 0.0000355 0.0002449 -0.0001924 -0.0001324 -0.0005723 -0.0000059 0.0006989 -0.0000450 0.0001055 -0.0000419 -0.0002998 0.0001873 0.0001505 -0.0001630 -0.0007535 -0.0000280 -0.0003529 -0.0002094 -0.0010343 0.0000431 -0.0005030 0.0000674 -0.0002328 -0.0005388 0.0024927 -0.0003728 0.0019649 -0.0003238 0.0010972 0.0001324 0.0007167 -0.0001594 0.0009405 0.0000736 0.0004024 0.0002331 0.0006237 -0.0002536 -0.0015949 0.0000868 -0.0001151 0.0000823 0.0003228 0.0000385 -0.0000053 -0.0001468 -0.0000505
0.0001633 -0.0005391 -0.0001441 -0.0008926 -0.0003983 -0.0008287 0.0000894 0.0004408 0.0001380 -0.0000987 -0.0000346 -0.0002970 0.0000276 -0.0005894 0.0000711 -0.0005140 -0.0000302 0.0000259 -0.0000966 -0.0006241 -0.0000373 0.0003307 -0.0000335 0.0002812 0.0002793 0.0000848 -0.0000228 -0.0007520 0.0001762 -0.0005673 -0.0001026 -0.0014697 -0.0001863 -0.0014056 -0.0000420 -0.0019326 0.0001387 -0.0008162 -0.0000201 -0.0004006 -0.0000867 -0.0012412 0.0000442 -0.0010646 -0.0005391 -0.0015596 -0.0097931 0.0002193 -0.0148080 0.0209691 0.0033445 -0.0115425 0.0080220 -0.0183016 -0.0142435 0.0150397 0.0015594 -0.0058946 -0.0034793 0.0013568 0.0006783 0.0109895 0.0011450 -0.0027661 -0.0281789 0.0173032 -0.0162164 0.0179330 -0.0119923 0.0172495 -0.0000380 -0.0001291 0.0001878 0.0003505 -0.0002628 -0.0012158 0.0001364 0.0000817 -0.0000973 0.0003338 -0.0000096 0.0002953 -0.0003355 -0.0008676 0.0000800 0.0004724 -0.0000360 0.0001146 -0.0001049 0.0000475 0.0000029 0.0001974 0.0000176 0.0001614 0.0002213 -0.0001699 -0.0001567 -0.0006080 0.0000110 0.0007163 -0.0000454 0.0001992 -0.0000497 -0.0001113 0.0001416 0.0002711 -0.0001427 -0.0004637 -0.0000165 -0.0001609 -0.0001679 -0.0007223 0.0000052 -0.0005326 0.0000524 -0.0001721 -0.0005699 0.0024925 -0.0004130 0.0018614 -0.0003241 0.0011524 0.0001319 0.0007298 -0.0001367 0.0009606 0.0000860 0.0004017 0.0002052 0.0005460 -0.0002550 -0.0014581 0.0000568 -0.0000814 0.0000613 0.0003325 0.0000413 -0.0000322 -0.0001303 -0.0001202
0.0001576 -0.0006081 -0.0001386 -0.0009286 -0.0003721 -0.0008179 0.0001009 0.0003357 0.0001524 -0.0001598 0.0000027 -0.0003387 0.0000290 -0.0005835 0.0000759 -0.0005547 -0.0000682 0.0000081 -0.0001190 -0.0006268 -0.0000512 0.0003215 -0.0000561 0.0002674 0.0002871 0.0000384 -0.0000128 -0.0007804 0.0001958 -0.0005845 -0.0001040 -0.0015560 -0.0001855 -0.0014440 -0.0000276 -0.0020156 0.0001679 -0.0009216 -0.0000050 -0.0004158 -0.0000713 -0.0013409 0.0000420 -0.0012181 -0.0005344 -0.0017337 -0.0141952 0.0149008 -0.0070733 0.0148777 -0.0152736 0.0195066 0.0113382 -0.0160414 -0.0262080 0.0230904 -0.0000339 -0.0099872 -0.0009770 -0.0034699 0.0007607 -0.0049641 0.0098768 -0.0280725 -0.0050669 0.0065790 -0.0045671 -0.0047019 -0.0073719 0.0025498 -0.0000374 -0.0001672 0.0001493 0.0003024 -0.0002512 -0.0012078 0.0001376 0.0000654 -0.0000957 0.0002004 -0.0000291 0.0001775 -0.0003119 -0.0009240 0.0000833 0.0003739 -0.0000322 0.0000671 -0.0000978 -0.0000146 -0.0000208 0.0001265 -0.0000059 0.0001402 0.0001875 -0.0002064 -0.0001682 -0.0006618 -0.0000109 0.0004483 -0.0000378 0.0001176 -0.0000361 -0.0002065 0.0001203 0.0002139 -0.0001420 -0.0005249 -0.0000217 -0.0002076 -0.0001565 -0.0007568 0.0000036 -0.0006045 0.0000461 -0.0002492 -0.0005832 0.0023723 -0.0003892 0.0017152 -0.0003347 0.0010050 0.0001008 0.0005654 -0.0001444 0.0008024 0.0000899 0.0002485 0.0001936 0.0003629 -0.0002795 -0.0014707 0.0000381 -0.0002122 0.0000241 0.0001927 0.0000111 -0.0001745 -0.0001368 -0.0002932
0.0001756 -0.0006829 -0.0001428 -0.0010144 -0.0004188 -0.0009240 0.0000632 0.0003302 0.0001785 0.0000165 0.0000308 -0.0002948 0.0000028 -0.0005833 0.0000990 -0.0004837 -0.0000511 0.0000530 -0.0001645 -0.0006357 -0.0000147 0.0004341 0.0000283 0.0003129 0.0003034 0.0002421 -0.0000265 -0.0008095 0.0001999 -0.0005059 -0.0001084 -0.0015302 -0.0002005 -0.0012968 -0.0000462 -0.0018716 0.0001870 -0.0006164 0.0000045 -0.0003303 -0.0000640 -0.0011737 0.0000503 -0.0010784 -0.0005634 -0.0016202 -0.0067480 0.0069265 -0.0010866 0.0044249 -0.0021070 0.0072781 0.0025934 0.0010509 0.0003436 0.0009267 -0.0016364 -0.0012395 -0.0008477 -0.0022851 -0.0199092 0.0004084 0.0030486 -0.0225243 0.0003689 0.0055468 -0.0270810 0.0277007 -0.0031890 -0.0013945 -0.0000437 -0.0003207 0.0001709 0.0001759 -0.0002457 -0.0013220 0.0001452 -0.0000023 -0.0000866 -0.0000349 -0.0000249 0.0000271 -0.0003061 -0.0011271 0.0000956 0.0002114 -0.0000513 -0.0000737 -0.0001126 -0.0001181 -0.0000170 0.0000118 -0.0000154 0.0000281 0.0001954 -0.0002444 -0.0001683 -0.0007532 -0.0000079 0.0004255 -0.0000468 0.0000566 -0.0000390 -0.0003087 0.0001572 0.0000698 -0.0001238 -0.0006298 -0.0000273 -0.0003063 -0.0001284 -0.0007207 0.0000214 -0.0006480 0.0000152 -0.0003459 -0.0005892 0.0025112 -0.0003965 0.0017922 -0.0003410 0.0010738 0.0000803 0.0006249 -0.0001208 0.0009652 0.0000931 0.0003903 0.0001783 0.0004953 -0.0002365 -0.0013168 -0.0000021 -0.0000794 -0.0000421 0.0003075 -0.0000281 0.0001728 -0.0001587 0.0000102
