-0.0000000 -0.0000000 -0.0000000 -0.0000000 -0.0000000 -0.0000000 -0.0000000 -0.0000000 -0.0000000 -0.0000000 -0.0000000 -0.0000000 -0.0000000 -0.0000000 -0.0000000 -0.0000000 -0.0000000 -0.0000000 -0.0000000 -0.0000000 -0.0000000 -0.0000000 -0.0000000 -0.0000000 -0.0000000 -0.0000000 -0.0000000 -0.0000000 -0.0000000 -0.0000000 -0.0000000 -0.0000000 -0.0000000 -0.0000000 -0.0000000 -0.0000000 -0.0000000 -0.0000000 -0.0000000 -0.0000000 -0.0000000 -0.0000000 -0.0000000 -0.0000000 -0.0000000 -0.0000000 -0.0000000 -0.0000000 -0.0000000 -0.0000000 -0.0000000 -0.0000000 -0.0000000 -0.0000000 -0.0000000 -0.0000000 -0.0000000 -0.0000000 -0.0000000 -0.0000000 -0.0000000 -0.0000000 -0.0000000 -0.0000000 -0.0000000 -0.0000000 -0.0000000 -0.0000000 -0.0000000 -0.0000000 -0.0000000 -0.0000000 -0.0000000 -0.0000000 -0.0000000 -0.0000000 -0.0000000 -0.0000000 -0.0000000 -0.0000000 -0.0000000 -0.0000000 -0.0000000 -0.0000000 -0.0000000 -0.0000000 -0.0000000 -0.0000000 -0.0000000 -0.0000000 -0.0000000 -0.0000000 -0.0000000 -0.0000000 -0.0000000 -0.0000000 -0.0000000 -0.0000000 -0.0000000 -0.0000000 -0.0000000 -0.0000000 -0.0000000 -0.0000000 -0.0000000 -0.0000000 -0.0000000 -0.0000000 -0.0000000 -0.0000000 -0.0000000 -0.0000000 -0.0000000 -0.0000000 -0.0000000 -0.0000000 -0.0000000 -0.0000000 -0.0000000 -0.0000000 -0.0000000 -0.0000000 -0.0000000 -0.0000000 -0.0000000 -0.0000000 -0.0000000 -0.0000000 -0.0000000 -0.0000000 -0.0000000 -0.0000000 -0.0000000 -0.0000000 -0.0000000 -0.0000000 -0.0000000 -0.0000000 -0.0000000 -0.0000000
-0.0000000 -0.0000000 -0.0000000 -0.0000000 -0.0000000 -0.0000000 -0.0000000 -0.0000000 -0.0000000 -0.0000000 -0.0000000 -0.0000000 -0.0000000 -0.0000000 -0.0000000 -0.0000000 -0.0000000 -0.0000000 -0.0000000 -0.0000000 -0.0000000 -0.0000000 -0.0000000 -0.0000000 -0.0000000 -0.0000000 -0.0000000 -0.0000000 -0.0000000 -0.0000000 -0.0000000 -0.0000000 -0.0000000 -0.0000000 -0.0000000 -0.0000000 -0.0000000 -0.0000000 -0.0000000 -0.0000000 -0.0000000 -0.0000000 -0.0000000 -0.0000000 -0.0000000 -0.0000000 -0.0000000 -0.0000000 -0.0000000 -0.0000000 -0.0000000 -0.0000000 -0.0000000 -0.0000000 -0.0000000 -0.0000000 -0.0000000 -0.0000000 -0.0000000 -0.0000000 -0.0000000 -0.0000000 -0.0000000 -0.0000000 -0.0000000 -0.0000000 -0.0000000 -0.0000000 -0.0000000 -0.0000000 -0.0000000 -0.0000000 -0.0000000 -0.0000000 -0.0000000 -0.0000000 -0.0000000 -0.0000000 -0.0000000 -0.0000000 -0.0000000 -0.0000000 -0.0000000 -0.0000000 -0.0000000 -0.0000000 -0.0000000 -0.0000000 -0.0000000 -0.0000000 -0.0000000 -0.0000000 -0.0000000 -0.0000000 -0.0000000 -0.0000000 -0.0000000 -0.0000000 -0.0000000 -0.0000000 -0.0000000 -0.0000000 -0.0000000 -0.0000000 -0.0000000 -0.0000000 -0.0000000 -0.0000000 -0.0000000 -0.0000000 -0.0000000 -0.0000000 -0.0000000 -0.0000000 -0.0000000 -0.0000000 -0.0000000 -0.0000000 -0.0000000 -0.0000000 -0.0000000 -0.0000000 -0.0000000 -0.0000000 -0.0000000 -0.0000000 -0.0000000 -0.0000000 -0.0000000 -0.0000000 -0.0000000 -0.0000000 -0.0000000 -0.0000000 -0.0000000 -0.0000000 -0.0000000 -0.0000000 -0.0000000 -0.0000000
0.0000065 0.0000868 -0.0000098 0.0000293 0.0000212 0.0001441 -0.0000191 0.0000901 0.0000031 0.0000449 0.0000024 0.0000674 -0.0000076 0.0000984 -0.0000347 -0.0000005 0.0000065 0.0001091 -0.0000102 0.0000417 0.0000185 0.0000795 0.0000039 0.0000461 -0.0000073 0.0000151 -0.0000317 -0.0000556 0.0000084 0.0000839 -0.0000005 0.0000916 -0.0000060 0.0000722 0.0000065 0.0001062 0.0000093 0.0000797 0.0000091 0.0000532 0.0000008 0.0000269 0.0000211 0.0000689 0.0000226 0.0000804 0.0000273 0.0000560 0.0000020 -0.0000499 0.0000310 0.0000782 -0.0001040 0.0002081 0.0000935 0.0000713 0.0000148 0.0001305 -0.0054769 0.0074999 0.0101621 -0.0139990 -0.0021773 0.0028325 0.0000045 0.0000485 0.0013485 0.0054748 -0.0000603 0.0000975 0.0000026 0.0000538 0.0000088 0.0000668 -0.0000117 -0.0000032 0.0000116 0.0000200 -0.0000123 0.0000939 -0.0000059 0.0000771 -0.0000054 0.0000491 -0.0000004 0.0000659 -0.0000020 0.0000424 0.0000001 0.0000487 -0.0000020 0.0000350 -0.0000027 0.0000753 0.0000004 0.0000023 0.0000028 0.0000334 0.0000300 0.0002068 -0.0000048 0.0000662 -0.0000025 0.0000684 -0.0000011 0.0000333 -0.0000032 0.0000632 -0.0000009 0.0000616 -0.0000069 0.0000206 -0.0000028 0.0000305 0.0000091 0.0000484 -0.0000113 0.0000083 -0.0000315 0.0000171 -0.0000006 0.0000320 -0.0000130 0.0001583 -0.0000016 0.0000666 -0.0000043 0.0000560 0.0000078 0.0000597 0.0000216 0.0000461 0.0000046 0.0000074 0.0000171 -0.0000538 0.0000148 -0.0000207 0.0000019 -0.0000698
0.0000110 0.0000765 -0.0000170 0.0000433 0.0000299 0.0001753 -0.0000009 0.0001209 0.0000066 0.0000258 0.0000060 0.0000880 0.0000238 0.0001964 -0.0000609 0.0000698 0.0000079 0.0001719 -0.0000212 0.0000247 0.0000309 0.0000799 -0.0000406 0.0000328 0.0000722 0.0002390 -0.0000187 -0.0000797 0.0000075 0.0001414 0.0000024 0.0001002 0.0000051 0.0001026 0.0000222 0.0001214 0.0000033 0.0000979 0.0000129 0.0000797 -0.0000039 0.0000386 0.0000455 0.0000783 0.0000321 0.0000932 0.0000284 0.0000433 0.0000857 -0.0002110 0.0000104 0.0000929 -0.0000711 0.0001642 0.0001501 0.0000181 0.0000198 0.0001413 -0.0080821 0.0107213 0.0017611 0.0018115 0.0079400 -0.0167280 0.0000190 0.0001330 -0.0087551 0.0137492 -0.0000255 0.0002016 0.0000123 -0.0001332 -0.0000030 -0.0000252 0.0000080 -0.0000975 -0.0000020 0.0000646 0.0000003 -0.0002236 -0.0000127 -0.0001543 0.0000019 -0.0000589 0.0000067 -0.0001110 0.0000072 -0.0000844 0.0000060 -0.0000486 0.0000054 -0.0000308 0.0000079 -0.0000260 -0.0000011 -0.0000629 0.0000125 -0.0000745 0.0000135 0.0000899 0.0000121 -0.0000927 0.0000004 -0.0000633 0.0000106 -0.0000366 -0.0000001 -0.0001035 0.0000009 -0.0000865 -0.0000208 -0.0001359 -0.0000108 -0.0000828 0.0000279 -0.0000002 -0.0000228 -0.0001200 -0.0000442 -0.0000560 0.0000071 -0.0000425 0.0000220 0.0000855 0.0000071 0.0000236 0.0000010 -0.0000247 0.0000078 0.0000000 0.0000334 0.0000988 0.0000169 0.0000207 0.0000153 0.0000309 0.0000087 0.0000386 0.0000035 0.0000338
0.0000142 0.0002122 -0.0000282 0.0000987 0.0000209 0.0002330 0.0000228 0.0002648 -0.0000368 0.0001338 -0.0000034 0.0001555 0.0000258 0.0003268 -0.0000674 0.0001559 0.0000098 0.0002382 -0.0000261 0.0000699 -0.0000067 0.0001511 -0.0000325 0.0000707 0.0001203 0.0004007 -0.0000152 -0.0000122 0.0000052 0.0001842 0.0000018 0.0001215 -0.0000104 0.0001795 0.0000170 0.0001963 -0.0000060 0.0001644 0.0000041 0.0001215 -0.0000047 0.0000746 0.0000439 0.0000781 0.0000325 0.0001521 -0.0000002 0.0001203 -0.0003223 0.0000869 -0.0000106 0.0001420 -0.0001637 0.0002487 0.0000788 0.0000698 0.0001181 0.0000902 -0.0022038 0.0092535 -0.0043384 0.0115308 0.0086080 -0.0163093 -0.0000679 0.0001912 0.0026737 0.0039854 -0.0000842 0.0002245 -0.0000021 0.0001326 -0.0000100 0.0001063 0.0000048 0.0002168 -0.0000081 0.0002208 -0.0000026 0.0002580 -0.0000115 0.0001022 -0.0000023 0.0001027 -0.0000015 0.0001160 0.0000106 0.0001004 0.0000047 0.0000584 0.0000031 0.0000844 0.0000000 0.0000723 0.0000002 0.0000379 -0.0000034 0.0000789 0.0000083 0.0000918 -0.0000010 0.0000835 -0.0000063 0.0000833 -0.0000104 0.0000693 -0.0000075 0.0000697 0.0000031 0.0000706 -0.0000248 -0.0000386 -0.0000155 -0.0000251 0.0000407 0.0000716 -0.0000294 -0.0001068 -0.0000317 -0.0000488 0.0000122 -0.0000177 0.0000218 0.0001071 -0.0000176 0.0000196 0.0000051 -0.0000373 0.0000043 -0.0000189 0.0000073 0.0000727 0.0000096 0.0000200 0.0000095 0.0000296 0.0000018 0.0000530 -0.0000093 0.0000523
0.0000106 0.0001804 -0.0000277 0.0001079 0.0000106 0.0002223 0.0000323 0.0002727 -0.0000449 0.0001003 -0.0000067 0.0001671 0.0000274 0.0003554 -0.0000520 0.0001601 0.0000112 0.0002564 -0.0000162 0.0000289 0.0000142 0.0001344 -0.0000525 0.0000568 0.0001591 0.0005091 -0.0000193 0.0000311 -0.0000001 0.0002100 -0.0000071 0.0000746 -0.0000198 0.0001895 0.0000246 0.0002415 -0.0000171 0.0001954 0.0000053 0.0000891 -0.0000045 0.0000758 0.0001064 0.0002479 0.0000521 0.0002898 0.0000448 0.0000394 -0.0006156 -0.0004988 -0.0000361 0.0001587 -0.0001310 0.0002256 0.0000696 0.0000907 0.0000871 0.0001262 -0.0020989 0.0047255 -0.0077656 0.0103664 0.0003461 0.0039223 -0.0001134 0.0002388 -0.0004283 0.0118247 -0.0001360 -0.0000233 -0.0000078 0.0001085 -0.0000129 0.0000688 0.0000110 0.0002136 -0.0000092 0.0001942 -0.0000112 0.0002307 -0.0000032 0.0001192 0.0000019 0.0000909 -0.0000037 0.0000838 -0.0000000 0.0000595 0.0000027 0.0000577 -0.0000008 0.0000563 -0.0000086 0.0000719 0.0000070 0.0000556 -0.0000061 0.0000614 0.0000003 0.0000389 -0.0000047 0.0000611 -0.0000027 0.0000895 -0.0000119 0.0000724 -0.0000014 0.0000741 0.0000066 0.0000562 -0.0000041 0.0000084 -0.0000108 -0.0000679 0.0000411 0.0000217 -0.0000101 -0.0001162 -0.0000081 -0.0000593 -0.0000082 -0.0000615 -0.0000049 -0.0000339 -0.0000339 -0.0001209 0.0000035 -0.0001149 0.0000146 -0.0000713 -0.0000343 -0.0000723 0.0000003 -0.0000226 0.0000180 -0.0001083 0.0000189 -0.0000323 0.0000029 -0.0000314
0.0000188 0.0001529 -0.0000383 0.0000487 0.0000089 0.0002520 -0.0000399 0.0001968 -0.0000317 0.0001646 -0.0000098 0.0001599 0.0000283 0.0003965 -0.0000691 0.0001467 0.0000083 0.0002481 -0.0000161 0.0000707 0.0000457 0.0002024 -0.0000287 0.0001229 0.0001600 0.0005743 -0.0000251 0.0001760 0.0000319 0.0003846 -0.0000187 0.0001807 -0.0000062 0.0003015 0.0000393 0.0003897 0.0000356 0.0005398 0.0000115 0.0001877 -0.0000052 0.0001036 0.0001642 0.0005519 0.0001531 0.0006696 0.0000059 -0.0000137 -0.0003673 -0.0002983 -0.0000846 0.0001227 0.0000074 0.0001155 0.0001353 -0.0000599 0.0000001 0.0001224 -0.0059688 0.0129116 -0.0152041 0.0202587 -0.0043552 0.0112570 -0.0000107 0.0002118 -0.0020353 0.0116194 -0.0002841 -0.0000402 -0.0000103 -0.0000399 0.0000022 -0.0000816 0.0000044 0.0000002 -0.0000087 -0.0000316 -0.0000207 -0.0000613 0.0000081 -0.0000136 0.0000032 -0.0000396 0.0000005 -0.0001075 -0.0000135 -0.0001187 0.0000089 -0.0000391 0.0000048 -0.0000616 -0.0000027 -0.0000173 0.0000162 -0.0000100 0.0000001 -0.0000939 -0.0000068 -0.0000328 -0.0000006 -0.0000831 0.0000123 0.0000102 -0.0000034 -0.0000074 0.0000157 -0.0000151 -0.0000011 -0.0000128 0.0000163 0.0000482 -0.0000174 -0.0000147 0.0000197 -0.0000388 0.0000053 -0.0000332 0.0000223 -0.0000276 -0.0000160 -0.0000456 0.0000074 -0.0000638 -0.0000386 -0.0000596 0.0000038 0.0000461 0.0000114 -0.0000107 -0.0000692 -0.0001181 -0.0000207 0.0001019 -0.0000248 0.0001211 0.0000169 0.0001130 0.0000183 0.0001919
0.0000235 0.0001214 -0.0000665 0.0000043 -0.0000020 0.0002301 -0.0001095 0.0000867 -0.0000622 0.0001260 -0.0000103 0.0001381 0.0000206 0.0003931 -0.0001244 0.0000312 -0.0000291 0.0001682 -0.0000411 0.0000634 0.0000241 0.0002440 0.0000412 0.0000460 0.0000525 0.0003440 -0.0000677 0.0001366 0.0000778 0.0003801 -0.0000155 0.0002137 0.0000100 0.0003832 0.0000299 0.0003445 0.0000801 0.0007594 0.0000246 0.0002897 -0.0000080 0.0000771 0.0000951 0.0004521 0.0002354 0.0008556 -0.0001089 -0.0000974 0.0003421 0.0012288 -0.0000946 -0.0001490 0.0000644 -0.0000830 0.0001729 -0.0002716 -0.0001665 0.0000826 0.0045668 0.0002033 -0.0032597 0.0063158 -0.0021323 0.0076117 -0.0000087 0.0000614 0.0034222 0.0006524 -0.0003630 0.0001895 -0.0000192 0.0002925 0.0000433 0.0001511 -0.0000163 0.0000152 0.0000128 -0.0001189 -0.0000331 0.0000904 0.0000119 0.0002244 -0.0000087 0.0000567 -0.0000120 0.0001161 -0.0000232 -0.0000170 0.0000044 0.0000682 0.0000033 0.0000005 -0.0000199 0.0001370 0.0000365 0.0000649 0.0000048 -0.0000657 0.0000502 0.0004013 -0.0000011 -0.0000433 0.0000211 0.0000656 0.0000044 -0.0000019 0.0000204 0.0000353 -0.0000023 -0.0000359 0.0000376 0.0000747 -0.0000173 -0.0000230 0.0000242 -0.0000316 0.0000704 -0.0000054 0.0000871 -0.0000420 -0.0000268 -0.0000813 -0.0000150 -0.0001262 -0.0000325 -0.0000813 0.0000197 -0.0000199 -0.0000104 -0.0000501 -0.0001039 -0.0003230 -0.0000275 0.0000079 -0.0000330 0.0001122 0.0000307 0.0001519 0.0000127 0.0001686
0.0000051 0.0000556 -0.0000794 -0.0000143 -0.0000308 0.0001182 -0.0001550 -0.0001040 -0.0001009 -0.0000069 -0.0000335 0.0001009 -0.0000313 0.0002076 -0.0001802 -0.0002151 -0.0000853 0.0000738 -0.0000466 0.0000335 -0.0000061 0.0001514 0.0000409 -0.0000429 -0.0000113 0.0001218 -0.0001086 -0.0000803 0.0001076 0.0003774 -0.0000374 0.0001069 0.0000308 0.0004399 -0.0000105 0.0001783 0.0000797 0.0006848 0.0000293 0.0003798 -0.0000204 0.0000488 0.0000595 0.0002910 0.0002079 0.0007143 -0.0001229 -0.0003091 0.0006459 0.0006382 -0.0001938 -0.0000935 -0.0000779 0.0001102 -0.0002222 -0.0000618 -0.0002159 0.0001353 0.0065418 -0.0094011 0.0189920 -0.0319401 -0.0031978 0.0074694 -0.0000098 0.0002411 -0.0006847 -0.0006505 -0.0003598 0.0002911 -0.0000329 0.0001754 0.0000741 0.0000426 -0.0000571 -0.0003029 0.0000324 -0.0003162 -0.0000247 -0.0001354 0.0000053 0.0001478 -0.0000111 -0.0000508 -0.0000120 0.0000644 -0.0000079 -0.0000412 0.0000058 0.0000239 0.0000095 -0.0000139 -0.0000292 0.0001162 0.0000444 0.0000728 0.0000083 -0.0001365 0.0000357 0.0003071 0.0000129 -0.0000965 0.0000343 0.0000044 0.0000128 -0.0000469 0.0000335 -0.0000230 0.0000035 -0.0001405 0.0000459 0.0000185 -0.0000006 -0.0001206 0.0000403 -0.0000160 0.0000823 -0.0000654 0.0001064 -0.0000796 -0.0000242 -0.0001614 -0.0000196 -0.0002014 -0.0000404 -0.0002415 0.0000105 -0.0002497 -0.0000291 -0.0002109 -0.0000669 -0.0003823 -0.0000262 -0.0001409 0.0000151 -0.0000324 0.0000402 0.0000466 0.0000020 -0.0000070
-0.0000348 -0.0000004 -0.0000797 -0.0000345 -0.0001277 0.0000054 -0.0002417 -0.0002627 -0.0001674 -0.0000966 -0.0000525 0.0000639 -0.0001468 -0.0002193 -0.0002574 -0.0006624 -0.0001231 -0.0001292 -0.0000142 0.0000527 -0.0000466 0.0000126 -0.0000087 0.0000417 -0.0001120 -0.0002843 -0.0001185 -0.0002432 0.0001358 0.0004132 -0.0000437 0.0000654 0.0000809 0.0005268 -0.0000562 -0.0002020 0.0000889 0.0005631 0.0000336 0.0004411 -0.0000137 0.0000164 -0.0000703 -0.0003373 0.0001045 0.0000825 -0.0002387 -0.0007112 0.0007330 0.0007070 -0.0002601 -0.0003673 -0.0002038 0.0002678 -0.0004678 -0.0001545 -0.0001542 -0.0000493 -0.0066768 0.0047737 0.0087832 -0.0118868 -0.0013464 0.0034750 -0.0000624 0.0004063 0.0016911 -0.0098320 -0.0004149 0.0000812 -0.0000490 0.0000337 0.0000719 -0.0001839 -0.0000937 -0.0003968 0.0000305 -0.0004218 -0.0000198 0.0000941 -0.0000048 0.0001735 -0.0000266 -0.0000671 -0.0000103 0.0001060 0.0000176 0.0001044 0.0000046 0.0000472 0.0000146 0.0000558 -0.0000246 0.0000889 0.0000223 0.0000256 -0.0000116 -0.0000459 -0.0000644 -0.0003842 0.0000017 0.0001018 0.0000276 0.0001164 -0.0000038 0.0000167 0.0000334 0.0001463 0.0000021 0.0000445 0.0000292 0.0001321 -0.0000071 0.0000246 0.0000262 0.0000598 0.0000047 0.0000064 0.0000090 -0.0000920 -0.0000354 -0.0001232 -0.0000179 -0.0001103 -0.0000715 -0.0002537 -0.0000587 -0.0002610 -0.0000327 -0.0002636 -0.0000648 -0.0002347 -0.0000235 -0.0001517 0.0000323 -0.0000465 0.0000370 -0.0000227 0.0000126 -0.0001330
-0.0000640 -0.0001642 -0.0000646 -0.0000830 -0.0002220 -0.0002786 -0.0002822 -0.0004323 -0.0001745 -0.0001701 -0.0000493 -0.0000313 -0.0002376 -0.0007050 -0.0002254 -0.0009066 -0.0001075 -0.0003466 0.0000294 0.0000533 -0.0000122 -0.0001406 -0.0000020 0.0001759 -0.0002432 -0.0007846 -0.0000756 -0.0002049 0.0001230 0.0001377 -0.0000178 0.0000367 0.0000916 0.0004124 -0.0000923 -0.0006332 0.0000728 0.0003824 0.0000373 0.0002704 -0.0000006 0.0000122 -0.0002789 -0.0011686 -0.0000151 -0.0005967 -0.0003814 -0.0010987 0.0007320 0.0017511 -0.0002222 -0.0007121 -0.0002619 0.0002411 -0.0003599 -0.0004173 -0.0002730 -0.0001226 -0.0011689 -0.0014720 -0.0032351 0.0100873 0.0065346 -0.0032894 -0.0000158 0.0005140 -0.0052256 0.0050508 -0.0003722 -0.0000709 -0.0000454 -0.0001058 0.0000742 -0.0002794 -0.0000886 -0.0005251 0.0000140 -0.0004751 -0.0000162 -0.0000908 -0.0000072 0.0000644 -0.0000379 -0.0001632 -0.0000138 0.0000159 0.0000443 0.0001212 0.0000050 0.0000119 0.0000270 0.0000265 -0.0000262 -0.0000123 -0.0000310 -0.0002854 -0.0000158 -0.0001369 -0.0001337 -0.0008386 0.0000038 0.0000546 0.0000269 0.0000398 0.0000004 -0.0000402 0.0000361 0.0000933 0.0000084 -0.0000022 0.0000430 0.0001147 -0.0000409 -0.0002120 0.0000288 -0.0000483 -0.0000424 -0.0001671 -0.0000552 -0.0002259 -0.0000543 -0.0002215 -0.0000181 -0.0003420 -0.0000932 -0.0004669 -0.0001330 -0.0006122 -0.0000605 -0.0004489 -0.0000760 -0.0002815 -0.0000289 -0.0003217 0.0000598 -0.0002487 0.0000558 -0.0001383 0.0000288 -0.0003892
-0.0000414 -0.0001075 -0.0000493 -0.0000993 -0.0001732 -0.0003699 -0.0002829 -0.0005274 -0.0000795 0.0000015 -0.0000437 -0.0001018 -0.0002160 -0.0007371 -0.0001282 -0.0007232 -0.0000484 -0.0003445 0.0000579 0.0000870 0.0000496 -0.0001040 0.0000414 0.0003236 -0.0002333 -0.0007758 -0.0000296 -0.0000612 0.0000907 -0.0000401 -0.0000132 -0.0000235 0.0000790 0.0002148 -0.0000769 -0.0006563 0.0000654 0.0003257 0.0000320 0.0000717 0.0000057 0.0000350 -0.0003209 -0.0013335 -0.0000012 -0.0006084 -0.0002691 -0.0011626 0.0001561 0.0003997 -0.0001593 -0.0008450 -0.0000450 -0.0000041 -0.0003583 -0.0005151 -0.0001844 -0.0002649 -0.0053281 -0.0003079 0.0068274 -0.0007171 -0.0035303 0.0050198 0.0000255 0.0004707 -0.0185477 0.0225497 -0.0002705 -0.0001569 -0.0000562 -0.0004078 0.0000944 -0.0005123 -0.0000795 -0.0007561 -0.0000000 -0.0006773 0.0000016 -0.0005359 -0.0000020 -0.0001755 -0.0000371 -0.0004430 -0.0000075 -0.0002598 0.0000872 0.0000485 0.0000093 -0.0001517 0.0000443 -0.0000958 -0.0000316 -0.0002063 -0.0001263 -0.0010363 -0.0000206 -0.0004233 -0.0001506 -0.0008941 0.0000211 -0.0001397 0.0000430 -0.0001288 0.0000134 -0.0002241 0.0000498 -0.0000646 0.0000227 -0.0001478 0.0000534 0.0000122 -0.0001102 -0.0008549 0.0000888 0.0001134 -0.0000884 -0.0004290 -0.0000979 -0.0004162 -0.0000538 -0.0003992 -0.0000337 -0.0006028 -0.0001260 -0.0006900 -0.0001955 -0.0008951 -0.0000599 -0.0005093 -0.0000508 -0.0001107 -0.0000338 -0.0002990 0.0000374 -0.0001317 0.0000678 -0.0000515 0.0000226 -0.0003148
-0.0000278 -0.0000373 -0.0000550 -0.0001163 -0.0001218 -0.0002823 -0.0002722 -0.0005652 -0.0000503 0.0000349 -0.0000517 -0.0001479 -0.0001960 -0.0006682 -0.0001490 -0.0007734 -0.0000349 -0.0003458 0.0000315 0.0000327 0.0000641 -0.0000666 0.0000656 0.0002710 -0.0002178 -0.0007433 -0.0000366 -0.0002544 0.0000616 -0.0001534 -0.0000001 -0.0000531 0.0000635 0.0000593 -0.0000510 -0.0006628 0.0000695 0.0003176 0.0000274 -0.0000631 0.0000130 0.0000660 -0.0003049 -0.0013539 0.0000248 -0.0004783 -0.0001991 -0.0008093 0.0001044 0.0002680 -0.0000824 -0.0008909 0.0000599 -0.0000931 -0.0002728 -0.0005688 -0.0001576 -0.0002161 -0.0150079 0.0069124 0.0064293 -0.0095871 -0.0192382 0.0243310 0.0001629 0.0004698 -0.0092882 -0.0008054 -0.0002968 -0.0000325 -0.0000936 0.0000156 0.0001026 -0.0002822 -0.0000766 -0.0003334 -0.0000028 -0.0006853 -0.0000103 0.0001569 -0.0000104 0.0002935 -0.0000633 -0.0003080 -0.0000202 0.0001350 0.0001188 0.0004565 -0.0000007 0.0000222 0.0000465 0.0001153 -0.0000579 -0.0000253 -0.0003013 -0.0019995 -0.0000411 -0.0003414 -0.0001853 -0.0010645 0.0000123 0.0000936 0.0000301 0.0000574 -0.0000066 -0.0002025 0.0000426 0.0001165 0.0000300 -0.0000190 0.0000206 -0.0000095 -0.0002440 -0.0015790 0.0002573 0.0010797 -0.0001329 -0.0004756 -0.0001371 -0.0005719 -0.0000512 -0.0005067 -0.0000636 -0.0006709 -0.0001302 -0.0007034 -0.0001884 -0.0009877 -0.0000553 -0.0005619 0.0000018 0.0000535 -0.0000231 -0.0002986 0.0000194 -0.0001623 0.0000679 -0.0000719 0.0000099 -0.0003156
-0.0000233 0.0001518 -0.0000647 -0.0001078 -0.0001066 -0.0001228 -0.0002571 -0.0003845 -0.0000602 0.0001775 -0.0000636 -0.0001038 -0.0001966 -0.0004718 -0.0002151 -0.0006553 -0.0000389 -0.0001878 0.0000164 0.0001629 0.0000621 0.0001160 0.0000483 0.0004261 -0.0000032 -0.0002467 -0.0000435 -0.0003343 0.0000374 0.0000296 -0.0000044 0.0000817 0.0000364 0.0000772 -0.0000370 -0.0004417 0.0000768 0.0004275 0.0000083 -0.0000564 0.0000019 0.0001260 -0.0001793 -0.0009896 0.0000163 -0.0003107 -0.0002208 -0.0007969 0.0003314 0.0007182 0.0000130 -0.0006682 0.0000304 0.0001051 -0.0001366 -0.0005916 -0.0001720 0.0000032 -0.0043566 -0.0165868 -0.0206605 0.0107320 -0.0064220 0.0103510 0.0002769 0.0006367 -0.0055766 -0.0070446 -0.0003348 0.0001270 -0.0000950 0.0000206 0.0001033 -0.0002877 -0.0000900 -0.0003915 -0.0000013 -0.0008944 -0.0000215 0.0001138 -0.0000052 0.0003159 -0.0000900 -0.0005413 -0.0000181 0.0001155 0.0001125 0.0004699 -0.0000036 0.0000213 0.0000327 0.0001077 -0.0000470 -0.0000003 -0.0005469 -0.0033175 -0.0000600 -0.0004962 -0.0003284 -0.0021287 0.0000144 0.0000849 0.0000410 0.0000702 -0.0000129 -0.0003447 0.0000410 0.0001046 0.0000352 -0.0000301 0.0000083 -0.0000686 -0.0003596 -0.0021799 0.0003258 0.0014613 -0.0001325 -0.0005220 -0.0001472 -0.0006229 -0.0000554 -0.0005210 -0.0000302 -0.0006412 -0.0001454 -0.0007850 -0.0001873 -0.0010928 -0.0000738 -0.0006759 0.0000138 0.0000945 -0.0000248 -0.0003743 0.0000369 -0.0002714 0.0000824 -0.0001175 0.0000390 -0.0004474
-0.0000178 0.0001866 -0.0000693 -0.0001049 -0.0000827 -0.0000682 -0.0003032 -0.0004048 -0.0000433 0.0001066 -0.0000566 -0.0001422 -0.0001622 -0.0003486 -0.0002427 -0.0006486 -0.0000162 -0.0001241 0.0000314 0.0001782 0.0000734 0.0001582 0.0000130 0.0004424 0.0004046 0.0006257 -0.0000506 -0.0005069 0.0000357 0.0004980 -0.0000065 0.0001530 0.0000227 0.0001277 -0.0000299 -0.0002680 0.0000721 0.0004675 0.0000032 0.0000430 -0.0000035 0.0001336 0.0000322 -0.0004332 0.0000172 -0.0002183 -0.0002696 -0.0011148 0.0004847 -0.0005225 -0.0001339 -0.0004612 0.0000385 0.0002080 -0.0003746 -0.0004841 -0.0000972 0.0000569 -0.0064078 0.0102818 -0.0029447 0.0000617 0.0119440 -0.0244845 0.0003068 0.0010184 -0.0035165 0.0039339 -0.0003366 0.0001402 -0.0000818 -0.0000894 0.0001168 -0.0004431 -0.0000826 -0.0005028 -0.0000149 -0.0011640 -0.0000219 -0.0002020 0.0000152 0.0001994 -0.0001185 -0.0009833 -0.0000134 -0.0000565 0.0001112 0.0003430 0.0000011 -0.0000779 0.0000241 0.0000036 -0.0000246 -0.0000835 -0.0007242 -0.0044298 -0.0000814 -0.0007474 -0.0004558 -0.0031131 0.0000100 0.0000370 0.0000519 0.0000217 -0.0000070 -0.0005116 0.0000449 0.0001042 0.0000292 0.0000301 0.0000193 0.0000475 -0.0003824 -0.0021768 0.0001784 0.0008059 -0.0001089 -0.0003983 -0.0001412 -0.0005945 -0.0000780 -0.0003560 -0.0000050 -0.0003711 -0.0001813 -0.0007036 -0.0002209 -0.0007722 -0.0000215 -0.0003982 -0.0000830 -0.0000398 -0.0000077 -0.0001368 0.0000096 -0.0000986 0.0000433 -0.0000944 0.0000292 -0.0003289
-0.0000183 0.0001549 -0.0000624 -0.0001018 -0.0000768 -0.0000789 -0.0003512 -0.0004990 -0.0000837 -0.0000348 -0.0000739 -0.0001612 -0.0001369 -0.0004143 -0.0002678 -0.0008810 -0.0000424 -0.0001234 0.0000022 0.0001353 0.0000504 0.0001198 0.0000486 0.0002907 0.0004225 0.0006918 -0.0001271 -0.0007687 0.0000152 0.0004459 -0.0000327 0.0000943 -0.0000071 0.0001470 -0.0000355 -0.0002916 0.0000304 0.0004156 -0.0000186 0.0000539 -0.0000153 0.0001494 0.0000412 -0.0003979 0.0000094 -0.0002023 -0.0002519 -0.0012281 0.0003407 -0.0010195 -0.0003331 -0.0004067 -0.0000690 0.0003069 -0.0005476 -0.0004256 -0.0001251 0.0000864 -0.0094638 0.0135360 -0.0017220 0.0095824 0.0118972 -0.0219301 0.0003277 0.0011834 0.0103925 -0.0076701 -0.0002714 0.0002878 -0.0000662 0.0002355 0.0001297 -0.0002610 -0.0000904 -0.0005889 -0.0000040 -0.0014429 -0.0000456 -0.0001262 0.0000118 0.0004162 -0.0001293 -0.0010398 -0.0000293 0.0001366 0.0001047 0.0004044 0.0000002 0.0000495 0.0000187 0.0000499 -0.0000376 0.0000363 -0.0007759 -0.0047642 -0.0000841 -0.0008138 -0.0005490 -0.0038788 -0.0000016 0.0000995 0.0000384 0.0000413 -0.0000114 -0.0005578 0.0000298 0.0001386 0.0000347 0.0001035 0.0000736 0.0002406 -0.0003892 -0.0022639 0.0000420 0.0000186 -0.0000621 -0.0004304 -0.0000986 -0.0006837 -0.0001089 -0.0004069 -0.0000438 -0.0005730 -0.0001898 -0.0007903 -0.0001712 -0.0007982 0.0000023 -0.0003227 -0.0001880 -0.0003316 0.0000101 -0.0000951 0.0000053 -0.0001380 0.0000225 -0.0001691 -0.0000103 -0.0002550
-0.0000206 0.0000786 -0.0000607 -0.0000909 -0.0000871 -0.0000717 -0.0003360 -0.0005051 -0.0001025 -0.0001117 -0.0000803 -0.0001458 -0.0001413 -0.0004358 -0.0003082 -0.0008763 -0.0000421 -0.0000635 -0.0000551 0.0001223 0.0000251 0.0001424 0.0000665 0.0001865 0.0002245 0.0003456 -0.0001817 -0.0008537 -0.0000182 0.0001224 -0.0000676 0.0000238 -0.0000228 0.0000814 -0.0000325 -0.0003114 -0.0000132 0.0003274 -0.0000512 -0.0000538 -0.0000328 0.0001604 -0.0000279 -0.0006231 -0.0000078 -0.0002059 -0.0002374 -0.0012095 0.0000127 -0.0005895 -0.0002485 -0.0005062 -0.0000038 0.0002540 -0.0003390 -0.0005225 -0.0000888 0.0000889 -0.0011911 -0.0224003 -0.0081295 0.0211212 -0.0003877 -0.0010397 0.0002491 0.0009333 0.0059702 0.0027068 -0.0001618 0.0005192 -0.0000601 0.0001904 0.0001232 -0.0002872 -0.0000811 -0.0007153 0.0000046 -0.0015431 -0.0000433 -0.0002890 0.0000178 0.0003761 -0.0001026 -0.0010836 -0.0000226 0.0000961 0.0000851 0.0002541 -0.0000001 0.0000314 0.0000040 -0.0000473 -0.0000134 0.0000420 -0.0006604 -0.0044288 -0.0000690 -0.0009259 -0.0004995 -0.0032988 0.0000057 0.0000379 0.0000421 0.0000060 -0.0000238 -0.0006707 0.0000285 0.0000584 0.0000397 0.0000298 0.0000874 0.0001779 -0.0003737 -0.0023736 -0.0000109 -0.0004249 -0.0000318 -0.0005560 -0.0000579 -0.0007703 -0.0001399 -0.0005807 -0.0000589 -0.0008260 -0.0001868 -0.0009372 -0.0001174 -0.0008818 0.0000176 -0.0003089 -0.0002677 -0.0005912 0.0000160 -0.0001343 0.0000041 -0.0001651 -0.0000008 -0.0001566 -0.0000079 -0.0001720
-0.0000207 0.0000356 -0.0000803 -0.0001208 -0.0000699 0.0000547 -0.0003418 -0.0005053 -0.0000839 -0.0000840 -0.0000691 -0.0001839 -0.0000848 -0.0002855 -0.0002769 -0.0006464 -0.0000073 -0.0000038 -0.0000533 0.0001362 0.0000477 0.0002108 0.0000063 0.0002324 0.0004077 0.0007354 -0.0001180 -0.0005888 -0.0000269 0.0003018 -0.0000618 0.0001067 -0.0000204 0.0000679 -0.0000212 -0.0001079 0.0000091 0.0004437 -0.0000511 -0.0000259 -0.0000501 0.0001160 0.0001688 -0.0000690 0.0000404 0.0000823 -0.0002689 -0.0010852 -0.0000632 -0.0003124 -0.0002209 -0.0004549 0.0001139 0.0001649 0.0000342 -0.0006883 0.0000182 0.0000258 0.0054935 -0.0121560 -0.0004961 0.0122758 -0.0021378 -0.0000206 0.0001887 0.0008320 -0.0031098 0.0100607 -0.0001684 0.0006399 -0.0000701 0.0003608 0.0000989 -0.0002282 -0.0000704 -0.0003595 0.0000201 -0.0012820 -0.0000496 0.0003284 0.0000392 0.0007141 -0.0000777 -0.0007342 -0.0000208 0.0004356 0.0000754 0.0004248 0.0000023 0.0001761 -0.0000103 0.0000374 0.0000217 0.0001953 -0.0005030 -0.0036454 -0.0000660 -0.0005895 -0.0004555 -0.0030283 -0.0000141 0.0003367 0.0000208 0.0001923 -0.0000399 -0.0005853 0.0000117 0.0002635 0.0000382 0.0002180 0.0000678 0.0002647 -0.0003379 -0.0021661 -0.0000408 -0.0005308 -0.0000717 -0.0004528 -0.0001038 -0.0008055 -0.0001334 -0.0006288 -0.0000730 -0.0008769 -0.0002167 -0.0010282 -0.0001185 -0.0008256 0.0000799 -0.0001302 -0.0003336 -0.0007796 0.0000522 -0.0000753 0.0000266 -0.0002021 -0.0000476 -0.0002978 -0.0000001 -0.0002590
-0.0000265 0.0000365 -0.0001121 -0.0001480 -0.0000669 0.0000534 -0.0003272 -0.0004748 -0.0000779 -0.0001323 -0.0000735 -0.0001452 -0.0000451 -0.0001179 -0.0002592 -0.0004858 0.0000069 0.0000710 -0.0000208 0.0002321 0.0000708 0.0003057 -0.0000914 0.0003814 0.0003702 0.0007353 -0.0001334 -0.0004135 -0.0000011 0.0003405 -0.0000615 0.0000951 -0.0000231 0.0000819 0.0000088 0.0001207 0.0000008 0.0004053 -0.0000561 -0.0000418 -0.0000712 0.0000749 0.0003080 0.0004502 0.0000915 0.0003577 -0.0002502 -0.0009631 -0.0003008 -0.0015192 -0.0001419 -0.0003123 0.0000019 0.0002826 -0.0001635 -0.0004916 0.0000083 0.0000651 0.0055380 -0.0120443 0.0087012 -0.0126383 -0.0124373 0.0061417 0.0002282 0.0011252 0.0021541 0.0031640 -0.0001919 0.0009305 -0.0000590 0.0002519 0.0000664 -0.0003040 -0.0000495 -0.0004405 0.0000376 -0.0011719 -0.0000604 0.0002291 0.0000331 0.0005291 -0.0000392 -0.0006437 -0.0000153 0.0003724 0.0000800 0.0003681 0.0000089 0.0001630 0.0000049 0.0000346 0.0000319 0.0001340 -0.0004506 -0.0033816 -0.0000447 -0.0005354 -0.0005178 -0.0039437 -0.0000075 0.0002955 0.0000140 0.0001202 -0.0000203 -0.0006140 -0.0000028 0.0001712 0.0000392 0.0002389 0.0000669 0.0003020 -0.0003201 -0.0024650 0.0000566 -0.0000086 -0.0001124 -0.0004274 -0.0001348 -0.0008557 -0.0001010 -0.0006621 -0.0000816 -0.0010748 -0.0001942 -0.0011093 -0.0001055 -0.0009314 0.0000303 -0.0004561 -0.0002262 -0.0005595 0.0000331 -0.0002581 0.0000776 -0.0002542 -0.0000169 -0.0003061 0.0000283 -0.0004139
-0.0000421 -0.0000498 -0.0001130 -0.0001503 -0.0000857 0.0001734 -0.0003785 -0.0002392 -0.0000715 -0.0002923 -0.0000716 -0.0001312 -0.0000570 0.0000003 -0.0002140 -0.0002286 0.0000177 0.0002173 -0.0000546 0.0002049 0.0000448 0.0002293 -0.0001300 0.0002508 0.0003996 0.0007832 -0.0001006 -0.0003422 -0.0000238 0.0003853 -0.0000825 0.0000900 -0.0000288 0.0000457 -0.0000110 0.0001428 -0.0000475 0.0002671 -0.0000713 -0.0000080 -0.0000742 0.0000933 0.0002635 0.0007084 0.0000483 0.0003314 -0.0002420 -0.0008121 -0.0003165 -0.0014450 -0.0000836 -0.0002257 0.0001445 0.0002883 -0.0003640 -0.0002840 -0.0000533 0.0002175 0.0040389 -0.0153975 -0.0069488 0.0059838 -0.0453086 0.0396451 0.0002927 0.0014358 -0.0011669 0.0087543 -0.0000356 0.0009759 -0.0000616 -0.0000752 0.0000450 -0.0004683 0.0000082 -0.0004260 0.0000067 -0.0011137 -0.0000371 -0.0001922 0.0000147 0.0001018 -0.0000289 -0.0009881 0.0000028 0.0000288 0.0001084 0.0002180 0.0000120 -0.0000359 0.0000343 -0.0000201 0.0000061 -0.0001139 -0.0004933 -0.0039115 -0.0000262 -0.0008022 -0.0004929 -0.0036881 0.0000227 0.0000768 0.0000204 -0.0000233 0.0000058 -0.0007333 -0.0000015 -0.0000090 0.0000328 0.0001250 0.0000272 0.0001464 -0.0003715 -0.0029977 0.0002024 0.0008679 -0.0001673 -0.0004101 -0.0001106 -0.0007372 -0.0001031 -0.0005449 -0.0000546 -0.0009782 -0.0001830 -0.0009517 -0.0001226 -0.0008083 -0.0001022 -0.0009259 -0.0000443 0.0000819 -0.0000643 -0.0005086 0.0000909 -0.0001093 0.0000486 -0.0000579 0.0000291 -0.0004437
-0.0000511 -0.0000854 -0.0000948 -0.0001056 -0.0000958 0.0003492 -0.0004236 -0.0000341 -0.0000774 -0.0003235 -0.0000638 -0.0001205 -0.0000773 0.0000684 -0.0001684 0.0000465 0.0000623 0.0003203 -0.0000752 0.0001202 0.0000228 0.0001792 -0.0000544 0.0001473 0.0006044 0.0011010 -0.0000388 -0.0002943 -0.0000901 0.0004292 -0.0000782 0.0001127 -0.0000336 -0.0000089 -0.0000279 0.0000619 -0.0000707 0.0001860 -0.0000732 0.0000149 -0.0000704 0.0000737 0.0002485 0.0008489 -0.0000260 0.0002298 -0.0002120 -0.0008075 -0.0002302 -0.0016016 -0.0001443 -0.0001262 0.0002044 0.0003629 -0.0002773 -0.0002068 -0.0000441 0.0002703 0.0098819 -0.0166456 -0.0063180 -0.0009888 -0.0111910 0.0067622 0.0003810 0.0013911 -0.0119388 0.0079891 0.0001195 0.0009329 -0.0000997 -0.0001895 0.0000673 -0.0005292 0.0000822 -0.0001709 -0.0000540 -0.0013220 -0.0000090 -0.0003221 0.0000080 0.0000190 -0.0000661 -0.0014180 -0.0000003 -0.0001520 0.0001726 0.0003476 0.0000128 -0.0001512 0.0000593 0.0000142 -0.0000363 -0.0003045 -0.0005464 -0.0045831 -0.0000166 -0.0010226 -0.0004035 -0.0026347 0.0000581 -0.0000448 0.0000295 -0.0001193 0.0000236 -0.0008148 -0.0000109 -0.0001221 0.0000319 -0.0000391 -0.0000390 -0.0001449 -0.0004172 -0.0035061 0.0002877 0.0012613 -0.0001887 -0.0004549 -0.0000623 -0.0006578 -0.0001108 -0.0005680 -0.0000254 -0.0009337 -0.0001612 -0.0008556 -0.0001554 -0.0010169 -0.0001960 -0.0013619 0.0001632 0.0008048 -0.0001415 -0.0008140 0.0000716 -0.0001774 0.0000937 0.0000764 0.0000166 -0.0005084
-0.0000497 -0.0000877 -0.0000851 -0.0000670 -0.0000810 0.0003408 -0.0003781 -0.0000848 -0.0000923 -0.0003471 -0.0000627 -0.0000844 -0.0000803 0.0000334 -0.0002004 0.0001191 0.0000660 0.0003303 -0.0000598 0.0001405 0.0000460 0.0001808 -0.0000295 0.0002110 0.0005541 0.0009663 -0.0000823 -0.0003850 -0.0000979 0.0003290 -0.0000657 -0.0000103 -0.0000400 -0.0000634 -0.0000091 0.0000849 -0.0000952 0.0001035 -0.0000813 -0.0000727 -0.0000726 0.0000497 0.0003167 0.0009592 -0.0000200 0.0003366 -0.0001485 -0.0007981 -0.0004271 -0.0034463 -0.0000977 0.0000107 0.0002539 0.0003918 -0.0004109 -0.0001512 0.0000087 0.0002706 0.0022302 0.0024675 -0.0039821 -0.0040425 -0.0018688 0.0010590 0.0005293 0.0014075 -0.0087090 0.0035340 0.0001092 0.0010346 -0.0001246 -0.0002672 0.0000954 -0.0006710 0.0001416 -0.0000060 -0.0001105 -0.0016487 0.0000110 -0.0004812 0.0000112 -0.0000816 -0.0000961 -0.0018914 0.0000012 -0.0004089 0.0002160 0.0004136 0.0000131 -0.0002984 0.0000636 -0.0000463 -0.0000646 -0.0005198 -0.0005755 -0.0052022 -0.0000072 -0.0013257 -0.0002784 -0.0012388 0.0000850 -0.0002547 0.0000397 -0.0002826 0.0000274 -0.0009740 -0.0000159 -0.0003341 0.0000285 -0.0002787 -0.0001190 -0.0005350 -0.0004139 -0.0038850 0.0002957 0.0011459 -0.0001807 -0.0004717 -0.0000045 -0.0005987 -0.0001132 -0.0005949 0.0000153 -0.0006961 -0.0001003 -0.0006803 -0.0001273 -0.0009967 -0.0001395 -0.0013057 0.0002373 0.0008250 -0.0000897 -0.0006723 0.0000407 -0.0001788 0.0000680 0.0000367 0.0000006 -0.0003180
-0.0000543 -0.0001454 -0.0000788 -0.0000785 -0.0000690 0.0003996 -0.0003833 -0.0001089 -0.0000919 -0.0004263 -0.0000646 -0.0001369 -0.0000641 -0.0000263 -0.0001865 0.0001317 -0.0000020 0.0003147 -0.0000910 0.0001477 -0.0000086 0.0000919 -0.0000590 0.0001195 0.0006553 0.0011020 -0.0000639 -0.0004930 -0.0000980 0.0004633 -0.0000952 -0.0001444 -0.0000550 -0.0001035 -0.0000054 0.0000397 -0.0000964 -0.0000096 -0.0001088 -0.0001218 -0.0000684 -0.0000131 0.0003594 0.0012478 -0.0000317 0.0002136 -0.0001636 -0.0009362 -0.0009273 -0.0039758 -0.0001750 -0.0000090 0.0002482 0.0003555 -0.0002946 -0.0004287 0.0001191 0.0001382 -0.0072564 0.0099567 -0.0033437 0.0127412 -0.0013898 0.0041554 0.0004896 0.0013608 0.0012192 -0.0014263 0.0001784 0.0009545 -0.0000889 0.0001720 0.0000368 -0.0004274 0.0001337 0.0003984 -0.0001266 -0.0014420 -0.0000196 0.0001461 0.0000292 0.0002249 -0.0000965 -0.0018392 0.0000056 -0.0001349 0.0001794 0.0004984 0.0000116 -0.0002154 0.0000345 -0.0000221 -0.0000366 -0.0003825 -0.0006682 -0.0056648 -0.0000251 -0.0012287 -0.0003557 -0.0018949 0.0000440 -0.0001548 0.0000157 -0.0002170 -0.0000017 -0.0010669 -0.0000538 -0.0003141 0.0000252 -0.0002833 -0.0001601 -0.0006252 -0.0004144 -0.0038693 0.0001258 0.0002161 -0.0002463 -0.0004764 -0.0001887 -0.0006175 -0.0001191 -0.0005765 0.0000057 -0.0004811 -0.0001318 -0.0006686 -0.0000899 -0.0006221 0.0000210 -0.0006846 0.0000182 0.0000867 0.0000401 -0.0002391 0.0000460 -0.0002021 -0.0000095 -0.0002381 -0.0000041 -0.0002906
-0.0000531 -0.0001332 -0.0000757 -0.0000939 -0.0000836 0.0002501 -0.0003496 -0.0002419 -0.0001218 -0.0004065 -0.0000787 -0.0001767 -0.0000877 -0.0001907 -0.0002044 -0.0000653 -0.0000241 0.0001999 -0.0001032 0.0001349 -0.0000427 0.0000505 -0.0000706 0.0001474 0.0005209 0.0007708 -0.0000843 -0.0006314 -0.0000839 0.0003180 -0.0001170 -0.0001814 -0.0000768 -0.0001085 -0.0000113 -0.0001931 -0.0000708 -0.0000335 -0.0001163 -0.0000860 -0.0000601 -0.0000508 0.0002366 0.0009917 -0.0000388 0.0000792 -0.0001987 -0.0009893 -0.0006475 -0.0022394 -0.0002226 -0.0001557 0.0000544 0.0004052 -0.0002432 -0.0005580 0.0000812 0.0000786 -0.0065468 0.0107234 0.0043621 -0.0001965 0.0080742 -0.0169110 0.0003507 0.0012312 0.0063652 -0.0183766 0.0001451 0.0009367 -0.0000233 0.0000329 -0.0000588 -0.0003011 0.0000994 0.0001897 -0.0000969 -0.0011751 -0.0000439 -0.0000450 0.0000464 0.0000729 -0.0000486 -0.0017854 0.0000112 -0.0001955 0.0001169 0.0001847 0.0000240 -0.0002908 0.0000130 -0.0001557 0.0000256 -0.0004186 -0.0006791 -0.0056178 -0.0000283 -0.0012096 -0.0004713 -0.0033573 0.0000220 -0.0002378 0.0000099 -0.0002412 -0.0000127 -0.0012007 -0.0000650 -0.0003730 0.0000240 -0.0002661 -0.0001240 -0.0005376 -0.0003729 -0.0037972 -0.0000109 -0.0006220 -0.0002899 -0.0006135 -0.0003671 -0.0007420 -0.0001120 -0.0006999 -0.0000234 -0.0007443 -0.0001543 -0.0008625 -0.0000963 -0.0006965 0.0000750 -0.0004330 -0.0001170 -0.0002302 0.0001009 -0.0001028 0.0000572 -0.0003212 -0.0000722 -0.0003974 -0.0000063 -0.0003075
-0.0000438 -0.0000796 -0.0000736 -0.0001142 -0.0000832 0.0000861 -0.0003124 -0.0004309 -0.0001547 -0.0003193 -0.0000976 -0.0002021 -0.0000822 -0.0003865 -0.0002762 -0.0003039 -0.0000367 0.0000865 -0.0000960 0.0001069 -0.0000007 0.0000317 -0.0000979 0.0002206 0.0003411 0.0003957 -0.0001281 -0.0007349 -0.0000558 0.0000664 -0.0001071 -0.0002132 -0.0000796 -0.0001309 -0.0000088 -0.0004510 -0.0000687 -0.0000102 -0.0001032 -0.0000421 -0.0000565 -0.0000771 0.0001107 0.0005012 -0.0000150 0.0000187 -0.0001848 -0.0010445 -0.0001502 -0.0009408 -0.0001184 -0.0003723 0.0000061 0.0002962 -0.0003064 -0.0006192 -0.0000528 0.0000445 -0.0026297 0.0093759 0.0021105 -0.0042880 0.0085695 -0.0145821 0.0002423 0.0010194 -0.0056219 0.0083065 0.0000690 0.0008665 0.0000143 -0.0001220 -0.0000661 -0.0003524 0.0000756 -0.0001014 -0.0000321 -0.0009988 -0.0000327 -0.0002692 0.0000546 -0.0000688 0.0000082 -0.0016477 0.0000183 -0.0003080 0.0000777 -0.0000846 0.0000289 -0.0003830 -0.0000208 -0.0003565 0.0000780 -0.0004861 -0.0006036 -0.0052428 -0.0000360 -0.0011832 -0.0005143 -0.0040833 0.0000030 -0.0002544 0.0000161 -0.0001544 -0.0000318 -0.0012643 -0.0000458 -0.0002722 0.0000208 -0.0000980 -0.0000690 -0.0002810 -0.0003311 -0.0035121 -0.0000515 -0.0007874 -0.0002989 -0.0005838 -0.0004871 -0.0007621 -0.0001105 -0.0006475 -0.0000277 -0.0008096 -0.0001873 -0.0009329 -0.0001304 -0.0005884 0.0002889 0.0004760 -0.0005270 -0.0011117 0.0002107 0.0003820 0.0000665 -0.0002052 -0.0002372 -0.0008488 -0.0000047 -0.0002428
-0.0000433 -0.0001111 -0.0000638 -0.0001529 -0.0000789 -0.0000705 -0.0002823 -0.0006550 -0.0001541 -0.0003298 -0.0001036 -0.0002868 -0.0000627 -0.0006108 -0.0003155 -0.0004987 -0.0000475 -0.0000812 -0.0000842 0.0000595 -0.0000168 -0.0000390 -0.0001038 0.0002080 0.0002842 0.0001599 -0.0001369 -0.0009556 -0.0000253 -0.0000023 -0.0000865 -0.0003255 -0.0000677 -0.0002161 0.0000063 -0.0007537 -0.0000458 -0.0000902 -0.0000983 -0.0000819 -0.0000424 -0.0001436 0.0000281 0.0000931 -0.0000186 -0.0002599 -0.0001873 -0.0013449 -0.0000905 -0.0005076 -0.0000444 -0.0006720 -0.0000995 0.0001425 -0.0000202 -0.0010609 -0.0001444 -0.0001713 0.0013820 0.0014624 -0.0081965 0.0107096 0.0106971 -0.0074896 0.0001845 0.0007269 -0.0132591 0.0223399 0.0000955 0.0004523 0.0000210 -0.0000245 -0.0000493 -0.0003268 0.0000795 -0.0002191 0.0000159 -0.0011012 -0.0000484 -0.0002852 0.0000413 -0.0000438 0.0000365 -0.0014373 0.0000090 -0.0002656 0.0000856 -0.0000290 0.0000116 -0.0002641 -0.0000171 -0.0002948 0.0000826 -0.0004486 -0.0005693 -0.0049069 -0.0000388 -0.0010696 -0.0005904 -0.0053652 -0.0000004 -0.0002311 0.0000062 -0.0001558 -0.0000128 -0.0011665 -0.0000288 -0.0001895 0.0000310 0.0000589 0.0000390 0.0001296 -0.0002933 -0.0033175 -0.0000904 -0.0011114 -0.0002948 -0.0006038 -0.0004523 -0.0008144 -0.0000999 -0.0006709 -0.0000506 -0.0012086 -0.0001940 -0.0011681 -0.0001534 -0.0008400 0.0002537 0.0003940 -0.0006915 -0.0015166 0.0001639 0.0002912 0.0000676 -0.0001878 -0.0002487 -0.0009126 0.0000222 -0.0003060
-0.0000472 -0.0003205 -0.0000528 -0.0002611 -0.0000777 -0.0003745 -0.0002757 -0.0011189 -0.0001248 -0.0004936 -0.0001064 -0.0005035 -0.0000986 -0.0010998 -0.0002508 -0.0007481 -0.0000408 -0.0003841 -0.0000253 -0.0000778 -0.0000308 -0.0002031 -0.0000034 0.0001533 0.0000456 -0.0005772 -0.0001067 -0.0011227 -0.0000075 -0.0003793 -0.0000708 -0.0006955 -0.0000391 -0.0004819 0.0000362 -0.0012631 -0.0000201 -0.0003623 -0.0000932 -0.0003176 -0.0000249 -0.0003410 0.0000111 -0.0004414 -0.0000405 -0.0006374 -0.0001732 -0.0017456 -0.0000105 -0.0005304 -0.0000180 -0.0010874 -0.0001576 -0.0001296 -0.0000032 -0.0013637 -0.0000892 -0.0005730 -0.0033292 0.0073806 -0.0091422 0.0059461 0.0067130 0.0017044 0.0002073 0.0003089 -0.0211324 0.0260803 0.0000851 0.0000029 -0.0000010 -0.0002188 -0.0000242 -0.0004034 0.0000832 -0.0003958 0.0000513 -0.0011177 -0.0000505 -0.0005648 0.0000368 -0.0001387 0.0000778 -0.0013083 0.0000091 -0.0004023 0.0001157 0.0000213 0.0000072 -0.0002599 0.0000041 -0.0002333 0.0000554 -0.0005144 -0.0003939 -0.0040098 -0.0000153 -0.0009884 -0.0004994 -0.0048756 0.0000117 -0.0003117 0.0000002 -0.0002794 0.0000284 -0.0010868 -0.0000245 -0.0002714 0.0000330 0.0000329 0.0000582 0.0001777 -0.0002308 -0.0030938 -0.0001112 -0.0013769 -0.0002620 -0.0006393 -0.0003542 -0.0009199 -0.0000741 -0.0007588 -0.0000451 -0.0014953 -0.0001692 -0.0012497 -0.0001338 -0.0011154 0.0000770 -0.0002099 -0.0004682 -0.0010975 0.0000678 -0.0000093 0.0000767 -0.0000646 -0.0001668 -0.0004765 0.0000409 -0.0001496
-0.0000395 -0.0005828 -0.0000466 -0.0004596 -0.0000687 -0.0007074 -0.0002888 -0.0016693 -0.0000496 -0.0007182 -0.0000976 -0.0008371 -0.0000948 -0.0016871 -0.0001561 -0.0011761 -0.0000458 -0.0007579 0.0000298 -0.0003603 0.0000133 -0.0004405 0.0001224 -0.0000260 -0.0001884 -0.0013338 -0.0000660 -0.0014519 0.0000051 -0.0007806 -0.0000769 -0.0011599 -0.0000322 -0.0008306 0.0000771 -0.0018261 -0.0000011 -0.0006418 -0.0000852 -0.0006341 -0.0000072 -0.0005593 0.0000318 -0.0008669 -0.0000451 -0.0009805 -0.0001037 -0.0020146 -0.0001675 -0.0005944 -0.0000810 -0.0012582 -0.0000225 -0.0004113 -0.0002383 -0.0013843 0.0000104 -0.0008214 -0.0054623 0.0114549 -0.0102941 0.0047684 -0.0007280 -0.0016994 0.0002475 0.0000824 -0.0053341 0.0112456 0.0000569 -0.0000703 -0.0000249 0.0000776 -0.0000036 -0.0002031 0.0000915 0.0000606 0.0000759 -0.0006010 -0.0000417 0.0001105 0.0000475 0.0002756 0.0001118 -0.0007962 0.0000017 -0.0000033 0.0001123 0.0003095 0.0000077 -0.0000573 -0.0000045 -0.0000604 0.0000410 -0.0002750 -0.0001945 -0.0029281 -0.0000015 -0.0005648 -0.0003058 -0.0030124 -0.0000124 -0.0000250 -0.0000079 -0.0000567 0.0000305 -0.0008543 -0.0000311 -0.0000362 0.0000336 0.0001918 0.0000401 0.0002090 -0.0001391 -0.0025349 -0.0001212 -0.0014552 -0.0002482 -0.0006250 -0.0003901 -0.0009771 -0.0000573 -0.0007760 -0.0000444 -0.0014588 -0.0001839 -0.0012154 -0.0000989 -0.0010459 0.0001271 0.0000247 -0.0005138 -0.0012094 0.0001105 0.0000683 0.0000826 -0.0000927 -0.0001827 -0.0005307 0.0000484 -0.0001453
-0.0000277 -0.0005524 -0.0000501 -0.0005606 -0.0000494 -0.0007788 -0.0002625 -0.0018173 -0.0000166 -0.0007075 -0.0000909 -0.0009888 -0.0000448 -0.0018649 -0.0001948 -0.0015052 -0.0000619 -0.0009043 0.0000530 -0.0005473 0.0000393 -0.0004975 0.0000793 -0.0000557 -0.0001887 -0.0014355 -0.0000628 -0.0017905 0.0000136 -0.0008231 -0.0000795 -0.0012824 -0.0000437 -0.0009768 0.0000908 -0.0019835 0.0000054 -0.0007160 -0.0000817 -0.0007614 -0.0000089 -0.0006368 0.0000133 -0.0010383 -0.0000461 -0.0011117 -0.0000637 -0.0021234 -0.0002608 -0.0000291 -0.0000373 -0.0013253 0.0002302 -0.0006287 0.0000339 -0.0017840 -0.0000223 -0.0008519 -0.0045202 0.0171910 -0.0087261 0.0056966 -0.0191832 0.0063239 0.0002517 -0.0000608 0.0070683 -0.0171896 0.0000241 -0.0000466 -0.0000339 -0.0000752 0.0000046 -0.0002503 0.0000689 -0.0001324 0.0001040 -0.0006442 -0.0000367 -0.0000488 0.0000436 0.0002110 0.0001398 -0.0006946 -0.0000005 -0.0000596 0.0000842 0.0001864 0.0000072 -0.0000595 -0.0000094 -0.0001015 0.0000369 -0.0002496 -0.0000639 -0.0025034 0.0000253 -0.0005656 -0.0000706 -0.0007394 -0.0000047 -0.0000559 0.0000031 -0.0000277 0.0000436 -0.0007980 -0.0000079 -0.0000096 0.0000356 0.0002065 0.0000866 0.0002924 -0.0000933 -0.0023856 -0.0001196 -0.0015917 -0.0002175 -0.0008143 -0.0003109 -0.0010391 -0.0000822 -0.0008686 -0.0000452 -0.0015586 -0.0001613 -0.0012860 -0.0000532 -0.0011048 0.0000680 -0.0002232 -0.0004284 -0.0010964 0.0000737 -0.0000675 0.0000721 -0.0001785 -0.0001439 -0.0004700 0.0000250 -0.0001752
-0.0000175 -0.0004610 -0.0000544 -0.0005883 -0.0000185 -0.0007697 -0.0002059 -0.0017844 -0.0000166 -0.0006969 -0.0000904 -0.0009792 0.0000094 -0.0017643 -0.0002244 -0.0015997 -0.0000729 -0.0008710 0.0000485 -0.0005853 0.0000521 -0.0004640 0.0000694 -0.0000210 0.0000320 -0.0009242 -0.0000292 -0.0017720 0.0000141 -0.0006106 -0.0000496 -0.0012471 -0.0000324 -0.0010000 0.0001021 -0.0018421 0.0000195 -0.0007328 -0.0000865 -0.0007761 -0.0000216 -0.0007225 0.0000736 -0.0008274 -0.0000473 -0.0011738 -0.0000490 -0.0022289 -0.0004436 -0.0010717 0.0000118 -0.0011428 0.0002597 -0.0005019 0.0000369 -0.0018689 -0.0000959 -0.0006647 -0.0021303 0.0103709 -0.0055567 -0.0021966 -0.0030924 -0.0002434 0.0001791 0.0001943 0.0025080 -0.0118556 -0.0000459 0.0000721 -0.0000460 -0.0002844 0.0000171 -0.0004310 0.0000638 -0.0003563 0.0001255 -0.0007506 -0.0000312 -0.0003342 0.0000495 0.0000346 0.0001550 -0.0007856 0.0000055 -0.0002650 0.0000903 0.0000614 0.0000118 -0.0001897 -0.0000199 -0.0002179 0.0000518 -0.0003078 0.0000213 -0.0022243 0.0000412 -0.0006185 -0.0000206 -0.0004032 0.0000025 -0.0001360 0.0000147 -0.0000771 0.0000405 -0.0008553 -0.0000071 -0.0000944 0.0000254 0.0001326 0.0000284 0.0001104 -0.0000850 -0.0024743 -0.0000642 -0.0012079 -0.0002042 -0.0007928 -0.0003364 -0.0010291 -0.0001375 -0.0007592 -0.0000401 -0.0013058 -0.0001603 -0.0011345 -0.0000524 -0.0008840 0.0000807 -0.0001774 -0.0003813 -0.0010156 0.0000781 0.0000462 0.0000856 0.0000053 -0.0001714 -0.0004506 -0.0000045 -0.0000792
-0.0000106 -0.0003225 -0.0000382 -0.0005399 0.0000114 -0.0006378 -0.0001536 -0.0015482 0.0000088 -0.0006721 -0.0000779 -0.0008731 0.0000487 -0.0014257 -0.0001716 -0.0013964 -0.0000480 -0.0007073 0.0000429 -0.0005382 0.0000482 -0.0004878 0.0000502 0.0000433 0.0005313 0.0001231 0.0001133 -0.0016261 0.0000076 0.0000056 -0.0000214 -0.0011248 -0.0000212 -0.0009565 0.0001413 -0.0015546 0.0000538 -0.0006831 -0.0000990 -0.0007640 -0.0000109 -0.0007079 0.0003087 -0.0001539 -0.0000483 -0.0011989 -0.0001336 -0.0023367 -0.0011648 -0.0037782 -0.0000570 -0.0009204 0.0001599 -0.0002013 -0.0002266 -0.0018028 -0.0000927 -0.0005993 -0.0130492 0.0184361 0.0073983 -0.0147994 -0.0002095 0.0012020 0.0001159 0.0001492 -0.0015391 0.0020793 0.0001474 0.0000625 -0.0000144 -0.0002920 -0.0000330 -0.0003354 0.0001053 -0.0003309 0.0001130 -0.0005171 -0.0000417 -0.0004304 0.0000272 -0.0001245 0.0001521 -0.0008755 0.0000086 -0.0002754 0.0001077 0.0000138 0.0000154 -0.0002206 -0.0000099 -0.0002236 0.0000655 -0.0003320 -0.0001360 -0.0029458 0.0000290 -0.0006390 -0.0002290 -0.0026263 -0.0000033 -0.0002075 0.0000051 -0.0001645 0.0000466 -0.0009225 -0.0000348 -0.0002078 0.0000262 0.0000869 0.0000086 0.0000282 -0.0001258 -0.0029702 0.0000662 -0.0004901 -0.0002388 -0.0008235 -0.0004087 -0.0010820 -0.0001279 -0.0007535 -0.0000581 -0.0014180 -0.0001838 -0.0012455 -0.0001011 -0.0010767 0.0000736 -0.0004256 -0.0003254 -0.0006208 0.0000675 -0.0001070 0.0001117 0.0000080 -0.0001511 -0.0004497 -0.0000014 -0.0001201
-0.0000159 -0.0003160 -0.0000157 -0.0004770 -0.0000002 -0.0006984 -0.0000670 -0.0013374 -0.0000036 -0.0005922 -0.0000630 -0.0007230 0.0000401 -0.0013280 -0.0001235 -0.0013026 -0.0000078 -0.0005846 0.0000566 -0.0005157 0.0000101 -0.0005228 -0.0000187 0.0000807 0.0003228 -0.0002790 0.0000869 -0.0015558 -0.0000086 -0.0002744 -0.0000222 -0.0010577 -0.0000458 -0.0010143 0.0001498 -0.0014145 0.0000272 -0.0006883 -0.0001226 -0.0008879 -0.0000152 -0.0006433 0.0003153 -0.0002704 -0.0000362 -0.0010944 -0.0002202 -0.0022897 -0.0013411 -0.0033460 -0.0000434 -0.0010194 0.0001581 -0.0001967 -0.0002223 -0.0018599 -0.0001059 -0.0006401 0.0008883 0.0094861 0.0193767 -0.0351740 -0.0006531 -0.0078713 -0.0000355 -0.0004707 -0.0030349 -0.0008836 0.0003966 -0.0000803 -0.0000123 -0.0003670 -0.0000150 -0.0004075 0.0001067 -0.0005179 0.0001108 -0.0008276 -0.0000242 -0.0005777 -0.0000008 -0.0002658 0.0001261 -0.0012695 0.0000148 -0.0003697 0.0001206 -0.0000148 0.0000132 -0.0002622 0.0000014 -0.0002428 0.0000416 -0.0004247 -0.0003043 -0.0041928 0.0000188 -0.0009166 -0.0002826 -0.0029106 0.0000041 -0.0003156 0.0000040 -0.0002354 0.0000647 -0.0010587 -0.0000296 -0.0003299 0.0000250 -0.0000079 0.0000069 -0.0000342 -0.0001677 -0.0034814 0.0000718 -0.0005554 -0.0002679 -0.0008880 -0.0003641 -0.0011665 -0.0000956 -0.0007853 -0.0000172 -0.0014188 -0.0001602 -0.0012409 -0.0000712 -0.0011367 0.0000326 -0.0007146 -0.0002584 -0.0003424 0.0000267 -0.0002500 0.0000910 0.0000746 -0.0001358 -0.0003344 0.0000163 -0.0000212
-0.0000088 -0.0003442 0.0000018 -0.0004632 0.0000982 -0.0004088 0.0000257 -0.0009103 -0.0000032 -0.0005464 -0.0000510 -0.0006532 0.0000901 -0.0010477 -0.0001524 -0.0011798 -0.0000005 -0.0005757 0.0000320 -0.0005893 0.0000127 -0.0004975 0.0000299 -0.0000441 0.0000345 -0.0006873 0.0000704 -0.0012445 -0.0001412 -0.0013399 -0.0000136 -0.0009942 -0.0000487 -0.0010754 0.0001944 -0.0011380 -0.0000190 -0.0007131 -0.0001219 -0.0009438 -0.0000385 -0.0006507 0.0003459 -0.0004283 0.0000584 -0.0007431 -0.0002017 -0.0021420 -0.0006590 -0.0016599 0.0000140 -0.0010672 0.0001446 -0.0002449 0.0000076 -0.0018611 -0.0000565 -0.0006635 0.0079090 -0.0020708 0.0011192 -0.0020890 0.0095983 -0.0152183 -0.0002143 -0.0008373 -0.0081831 -0.0032426 0.0004153 -0.0001185 -0.0000413 0.0000763 0.0000241 -0.0002310 0.0000992 -0.0001255 0.0001097 -0.0010225 -0.0000202 0.0002760 -0.0000068 0.0002488 0.0000830 -0.0012294 -0.0000001 0.0000772 0.0001242 0.0003920 0.0000028 0.0000004 -0.0000094 -0.0000170 0.0000172 -0.0001836 -0.0003161 -0.0044049 0.0000059 -0.0007435 -0.0002324 -0.0020343 -0.0000132 0.0000706 -0.0000181 0.0000419 0.0000483 -0.0009292 -0.0000546 -0.0000282 0.0000169 0.0002429 -0.0000272 0.0001009 -0.0001482 -0.0033114 -0.0000128 -0.0009692 -0.0002442 -0.0007509 -0.0003243 -0.0011805 -0.0001135 -0.0007838 -0.0000240 -0.0011406 -0.0001579 -0.0010486 -0.0000269 -0.0009503 0.0000160 -0.0007641 -0.0002793 -0.0002956 -0.0000037 -0.0002747 0.0000579 -0.0000291 -0.0000662 -0.0002190 0.0000143 -0.0002010
0.0000081 -0.0002833 -0.0000088 -0.0004677 0.0001951 -0.0000008 0.0000120 -0.0007059 0.0000230 -0.0004981 -0.0000349 -0.0005701 0.0001308 -0.0006736 -0.0001952 -0.0010155 0.0000039 -0.0004573 0.0000109 -0.0005868 0.0000610 -0.0003776 0.0000530 -0.0000417 0.0001523 -0.0003688 0.0001358 -0.0010619 -0.0002213 -0.0015481 -0.0000031 -0.0008897 -0.0000174 -0.0010206 0.0002307 -0.0008151 -0.0000016 -0.0006091 -0.0000947 -0.0008447 -0.0000344 -0.0005947 0.0005558 0.0000158 0.0001598 -0.0003272 -0.0002081 -0.0020332 -0.0000554 -0.0019376 -0.0000158 -0.0009638 0.0001479 -0.0001762 0.0001161 -0.0018002 0.0000016 -0.0006467 -0.0049190 0.0147479 -0.0008755 0.0042875 -0.0055325 0.0131153 -0.0002872 -0.0008334 -0.0112561 0.0107521 0.0002568 -0.0000577 -0.0000314 -0.0001373 0.0000344 -0.0001845 0.0000850 -0.0001940 0.0001424 -0.0008164 -0.0000093 -0.0000412 0.0000330 0.0003144 0.0000931 -0.0011642 -0.0000067 -0.0000064 0.0000881 0.0002401 -0.0000012 -0.0000469 -0.0000416 -0.0001180 0.0000002 -0.0002540 -0.0001325 -0.0033731 -0.0000100 -0.0007693 -0.0001806 -0.0017038 -0.0000260 0.0000894 0.0000139 0.0000948 0.0000389 -0.0009637 -0.0000271 0.0001027 0.0000182 0.0001170 -0.0000338 -0.0000360 -0.0000242 -0.0027357 -0.0000644 -0.0014546 -0.0002212 -0.0009683 -0.0004331 -0.0012294 -0.0001218 -0.0008186 -0.0000058 -0.0008972 -0.0001969 -0.0011864 -0.0001128 -0.0010568 0.0001984 -0.0001277 -0.0005797 -0.0008436 0.0001193 0.0001091 0.0000949 -0.0001325 -0.0001531 -0.0005827 0.0000080 -0.0003799
0.0000120 -0.0002589 -0.0000282 -0.0004671 0.0001543 -0.0000411 -0.0000425 -0.0008148 0.0000105 -0.0004727 -0.0000240 -0.0004735 0.0000960 -0.0006659 -0.0001956 -0.0010555 0.0000301 -0.0002984 0.0000056 -0.0005360 0.0000859 -0.0002763 -0.0000075 -0.0000279 -0.0001129 -0.0008001 0.0000563 -0.0011462 -0.0002003 -0.0015238 -0.0000093 -0.0008465 -0.0000129 -0.0009386 0.0001773 -0.0007645 -0.0000154 -0.0005023 -0.0000746 -0.0007761 -0.0000425 -0.0005419 0.0005105 -0.0001340 0.0001877 -0.0002188 -0.0001770 -0.0018472 0.0004516 -0.0012515 -0.0000888 -0.0008949 0.0001588 -0.0001881 0.0000783 -0.0017307 -0.0000706 -0.0005002 0.0037491 0.0000454 0.0002720 -0.0077213 -0.0170197 0.0216030 -0.0002581 -0.0007581 -0.0031524 0.0137178 0.0000877 0.0000128 -0.0000222 -0.0002164 0.0000556 -0.0003120 0.0000347 -0.0006622 0.0002287 -0.0010125 -0.0000180 -0.0002885 0.0000289 0.0002113 0.0001396 -0.0008404 -0.0000204 -0.0000476 0.0000778 0.0001311 -0.0000009 -0.0000128 -0.0000374 -0.0001522 -0.0000009 -0.0003382 -0.0000320 -0.0023715 -0.0000254 -0.0006435 -0.0002874 -0.0035829 -0.0000338 0.0000573 0.0000147 -0.0000000 0.0000549 -0.0009190 0.0000076 0.0001054 0.0000359 0.0001948 0.0000741 0.0003301 0.0000574 -0.0022284 -0.0001016 -0.0017915 -0.0002135 -0.0009181 -0.0004017 -0.0012157 -0.0000973 -0.0006504 -0.0000235 -0.0009614 -0.0002066 -0.0011342 -0.0001394 -0.0009465 0.0002115 0.0002184 -0.0008018 -0.0013752 0.0001635 0.0004262 0.0001006 0.0001532 -0.0002580 -0.0006562 0.0000315 -0.0000228
0.0000159 -0.0002420 -0.0000387 -0.0004694 0.0001509 0.0000707 -0.0000537 -0.0006398 0.0000190 -0.0004190 -0.0000214 -0.0004276 0.0001129 -0.0003732 -0.0001600 -0.0008220 0.0000460 -0.0001611 0.0000048 -0.0004688 0.0000968 -0.0001975 0.0000102 -0.0000744 -0.0000099 -0.0004113 0.0000938 -0.0008190 -0.0001733 -0.0012876 0.0000134 -0.0007130 -0.0000129 -0.0008428 0.0001664 -0.0005774 -0.0000164 -0.0004019 -0.0000547 -0.0006466 -0.0000510 -0.0005122 0.0004816 -0.0001377 0.0002022 -0.0001575 -0.0001436 -0.0016664 0.0004112 -0.0001495 -0.0000995 -0.0009359 0.0000532 -0.0001537 0.0002157 -0.0016620 -0.0000177 -0.0005264 0.0057128 -0.0064277 0.0076677 -0.0189953 -0.0062295 0.0091198 -0.0001869 -0.0006139 0.0028025 0.0091828 0.0001002 0.0001012 -0.0000093 0.0002195 0.0000829 -0.0000739 0.0000493 -0.0007430 0.0002592 -0.0009906 -0.0000289 -0.0000467 -0.0000107 0.0003130 0.0001624 -0.0003885 -0.0000239 0.0001931 0.0001007 0.0002928 -0.0000054 0.0001608 -0.0000242 -0.0000283 0.0000253 -0.0000987 0.0001102 -0.0015182 0.0000248 -0.0003642 -0.0000978 -0.0018196 -0.0000232 0.0000787 -0.0000014 -0.0000091 0.0000793 -0.0007517 -0.0000012 0.0000665 0.0000515 0.0003127 0.0001050 0.0004271 0.0000933 -0.0020247 -0.0000763 -0.0016856 -0.0001562 -0.0007882 -0.0003181 -0.0013757 -0.0001045 -0.0007479 -0.0000403 -0.0010983 -0.0001511 -0.0009884 -0.0000792 -0.0008046 0.0000507 -0.0002801 -0.0006237 -0.0011679 0.0000716 0.0001782 0.0000828 0.0001292 -0.0001697 -0.0004143 0.0000512 0.0000263
0.0000157 -0.0002231 -0.0000456 -0.0004395 0.0001342 0.0000721 -0.0000188 -0.0004170 0.0000194 -0.0003632 -0.0000147 -0.0003040 0.0001025 -0.0000196 -0.0001332 -0.0005119 0.0000631 0.0000256 0.0000132 -0.0003611 0.0001107 -0.0000982 0.0000696 -0.0000467 -0.0000011 -0.0001902 0.0001144 -0.0004145 -0.0001588 -0.0011575 0.0000276 -0.0005500 -0.0000067 -0.0007905 0.0001669 -0.0003115 -0.0000203 -0.0003141 -0.0000480 -0.0005798 -0.0000480 -0.0004191 0.0004690 -0.0000062 0.0002119 -0.0000070 -0.0001039 -0.0014594 0.0000052 0.0001106 -0.0001268 -0.0007886 0.0000247 -0.0000838 -0.0000177 -0.0011851 0.0001100 -0.0005199 0.0021463 0.0076042 0.0105788 -0.0199439 -0.0007207 0.0079850 -0.0001432 -0.0005059 -0.0010244 0.0089070 0.0001195 0.0001458 -0.0000018 0.0000361 0.0000817 -0.0000266 0.0000447 -0.0008928 0.0002704 -0.0008196 -0.0000143 -0.0003207 -0.0000004 0.0002139 0.0001710 -0.0004283 -0.0000125 0.0000566 0.0000883 0.0001615 -0.0000101 0.0000651 -0.0000430 -0.0001365 0.0000467 -0.0000808 0.0002102 -0.0012219 0.0000466 -0.0004390 0.0000785 0.0000031 -0.0000228 -0.0000559 0.0000226 -0.0000291 0.0000815 -0.0008025 0.0000176 -0.0000252 0.0000570 0.0001458 0.0000683 0.0001058 0.0001400 -0.0018317 -0.0000724 -0.0017957 -0.0001665 -0.0010117 -0.0003798 -0.0016123 -0.0001539 -0.0010336 0.0000308 -0.0010504 -0.0001310 -0.0010425 -0.0000448 -0.0007486 0.0000587 -0.0003783 -0.0005891 -0.0012061 0.0000703 0.0002076 0.0000864 0.0001039 -0.0001661 -0.0004276 0.0000409 0.0000034
0.0000139 -0.0002482 -0.0000405 -0.0004006 0.0001132 0.0000414 0.0000059 -0.0001405 -0.0000121 -0.0003591 0.0000018 -0.0001853 0.0000820 0.0002233 -0.0000949 -0.0002487 0.0000808 0.0001796 0.0000101 -0.0003328 0.0000885 -0.0000587 0.0000183 -0.0000328 -0.0001536 -0.0003017 0.0001024 -0.0001501 -0.0001845 -0.0012907 0.0000166 -0.0004476 -0.0000079 -0.0007576 0.0001537 -0.0001459 -0.0000427 -0.0002983 -0.0000540 -0.0005625 -0.0000454 -0.0003304 0.0004401 0.0000562 0.0002220 0.0000824 -0.0000739 -0.0013229 -0.0001067 0.0000672 -0.0001275 -0.0005974 -0.0000013 -0.0000050 -0.0001575 -0.0009246 0.0000937 -0.0003471 0.0074600 -0.0053805 -0.0036694 0.0093082 -0.0025545 0.0056174 -0.0001262 -0.0003972 0.0010980 0.0026677 0.0001240 0.0003092 -0.0000322 0.0000452 0.0000738 -0.0000059 0.0000067 -0.0007335 0.0002892 -0.0008062 -0.0000276 0.0002125 -0.0000156 0.0005331 0.0001605 -0.0002721 -0.0000347 0.0003830 0.0000746 0.0003625 -0.0000232 0.0002390 -0.0000480 0.0000106 0.0000157 0.0000634 0.0001598 -0.0012274 0.0000110 -0.0001587 -0.0000209 -0.0010706 -0.0000638 0.0002918 -0.0000037 0.0001968 0.0000740 -0.0006353 0.0000235 0.0002929 0.0000598 0.0004451 0.0001091 0.0004813 0.0001539 -0.0015182 -0.0000753 -0.0017219 -0.0001828 -0.0009574 -0.0003693 -0.0014707 -0.0001406 -0.0009591 0.0000080 -0.0011764 -0.0001481 -0.0011547 -0.0000346 -0.0008764 0.0000339 -0.0004856 -0.0005733 -0.0011126 0.0000450 0.0001296 0.0001041 0.0001096 -0.0001256 -0.0004034 0.0000407 -0.0000752
0.0000195 -0.0002035 -0.0000541 -0.0003562 0.0001399 0.0002103 0.0000012 0.0000970 -0.0000225 -0.0002943 0.0000153 -0.0000939 0.0001220 0.0005978 -0.0000384 0.0001593 0.0001156 0.0003276 0.0000082 -0.0002388 0.0000934 0.0000473 0.0000369 0.0000671 0.0001009 0.0002507 0.0001652 0.0001606 -0.0001003 -0.0006916 0.0000308 -0.0003619 -0.0000089 -0.0006809 0.0001933 0.0001731 -0.0000190 -0.0001715 -0.0000491 -0.0004827 -0.0000331 -0.0002679 0.0005739 0.0008107 0.0002477 0.0002608 0.0000622 -0.0012618 -0.0001975 -0.0010773 -0.0001661 -0.0003588 -0.0000575 0.0001927 -0.0002371 -0.0007552 -0.0000273 -0.0001153 -0.0023106 -0.0026215 0.0059171 -0.0065370 -0.0166480 0.0144668 0.0000102 0.0001095 0.0137605 -0.0226084 0.0001125 0.0005275 -0.0000494 -0.0001377 0.0000891 -0.0001475 0.0000490 -0.0006460 0.0002646 -0.0007707 -0.0000180 0.0000397 -0.0000311 0.0003957 0.0001544 -0.0003402 -0.0000398 0.0002816 0.0000957 0.0003745 -0.0000292 0.0002007 -0.0000157 0.0000819 -0.0000161 0.0000040 0.0001856 -0.0011549 0.0000204 -0.0001955 0.0000099 -0.0009265 -0.0000505 0.0002614 -0.0000030 0.0001584 0.0001063 -0.0005987 0.0000182 0.0002923 0.0000639 0.0003749 0.0000957 0.0004058 0.0001957 -0.0015793 -0.0000241 -0.0014900 -0.0001659 -0.0008641 -0.0003278 -0.0012515 -0.0000867 -0.0007299 -0.0000140 -0.0011711 -0.0001686 -0.0011529 -0.0000867 -0.0010586 -0.0000353 -0.0007822 -0.0003507 -0.0005356 -0.0000052 -0.0001722 0.0001160 0.0000377 -0.0000439 -0.0002944 0.0000295 -0.0002057
0.0000106 -0.0003140 -0.0000353 -0.0003449 0.0001090 0.0004585 -0.0001120 0.0004083 -0.0000577 -0.0004505 0.0000191 -0.0000958 0.0001186 0.0007917 -0.0000083 0.0005376 0.0001494 0.0004938 -0.0000113 -0.0003056 0.0000645 0.0000187 0.0000024 -0.0000133 0.0004852 0.0010065 0.0002692 0.0003607 0.0000078 -0.0000511 0.0000590 -0.0003395 0.0000333 -0.0005838 0.0001811 0.0002612 -0.0000218 -0.0002143 -0.0000310 -0.0004205 -0.0000365 -0.0003183 0.0006674 0.0013467 0.0001900 0.0002248 0.0001905 -0.0009899 -0.0002900 -0.0004579 -0.0001858 -0.0002698 -0.0000227 0.0002248 -0.0001671 -0.0005111 -0.0000740 0.0000307 -0.0019291 0.0042940 0.0009446 -0.0101808 -0.0121923 0.0166679 0.0000205 0.0001856 0.0008859 0.0023853 0.0001597 0.0006477 -0.0000637 -0.0003512 0.0000894 -0.0003290 0.0001120 -0.0005740 0.0002307 -0.0008060 0.0000029 -0.0002922 -0.0000308 0.0000856 0.0001590 -0.0005548 -0.0000303 -0.0000307 0.0001364 0.0003345 -0.0000275 0.0000494 0.0000281 0.0000846 -0.0000180 -0.0001878 0.0001906 -0.0013922 0.0000320 -0.0004335 0.0000491 -0.0005081 -0.0000200 0.0000525 0.0000094 -0.0000195 0.0001278 -0.0006822 0.0000130 0.0001001 0.0000639 0.0001868 0.0000612 0.0001864 0.0001937 -0.0019564 0.0000141 -0.0013335 -0.0001749 -0.0007779 -0.0002724 -0.0011226 -0.0000901 -0.0005291 0.0000011 -0.0010024 -0.0001606 -0.0008653 -0.0001136 -0.0008511 -0.0001110 -0.0009112 -0.0002233 -0.0000817 -0.0000362 -0.0001768 0.0000803 0.0002847 -0.0000180 -0.0000449 0.0000175 0.0000283
0.0000018 -0.0003288 -0.0000113 -0.0003171 0.0000387 0.0004549 -0.0001741 0.0005703 -0.0000810 -0.0004373 0.0000090 -0.0000422 0.0000682 0.0006152 -0.0000279 0.0005950 0.0001331 0.0005123 -0.0000147 -0.0001822 0.0000354 0.0000150 -0.0000309 0.0000986 0.0003154 0.0007164 0.0002140 0.0003179 -0.0000370 -0.0002955 0.0000651 -0.0001950 0.0000514 -0.0004888 0.0001368 0.0001329 -0.0000102 -0.0001997 -0.0000334 -0.0003293 -0.0000266 -0.0002553 0.0005963 0.0011021 0.0001646 0.0002498 0.0001837 -0.0006915 -0.0001952 0.0004150 -0.0000892 -0.0003038 -0.0000271 0.0001397 0.0000256 -0.0004982 -0.0000068 0.0000844 -0.0002475 0.0068075 -0.0116895 0.0174180 0.0043436 -0.0008944 0.0000811 0.0000930 -0.0036573 0.0098978 0.0002064 0.0007240 -0.0000704 -0.0000457 0.0000937 -0.0000847 0.0001677 -0.0003057 0.0002129 -0.0006738 -0.0000020 -0.0002149 -0.0000430 0.0001849 0.0001602 -0.0005160 -0.0000323 0.0000330 0.0001574 0.0004268 -0.0000243 0.0000493 0.0000331 0.0001119 -0.0000371 -0.0001327 0.0002264 -0.0014088 0.0000531 -0.0004932 0.0001452 0.0005613 -0.0000110 -0.0000262 0.0000152 -0.0000892 0.0001326 -0.0007414 0.0000139 -0.0000157 0.0000626 0.0000181 0.0000209 -0.0000521 0.0002000 -0.0021403 0.0000210 -0.0013990 -0.0001222 -0.0008740 -0.0002709 -0.0011896 -0.0000877 -0.0006320 0.0000147 -0.0008450 -0.0001054 -0.0007732 -0.0000970 -0.0008204 -0.0001012 -0.0008905 -0.0002500 -0.0001574 -0.0000148 -0.0001160 0.0000827 0.0002259 -0.0000378 -0.0001474 0.0000492 -0.0000034
0.0000174 -0.0003194 -0.0000290 -0.0002979 0.0000637 0.0006034 -0.0001932 0.0005866 -0.0000062 -0.0003972 0.0000163 -0.0000182 0.0000521 0.0006824 0.0000511 0.0007001 0.0001285 0.0005262 0.0000034 -0.0000859 0.0000598 0.0000870 0.0000288 0.0001749 0.0002749 0.0006852 0.0002072 0.0003808 -0.0000651 -0.0003500 0.0000745 -0.0001390 0.0000722 -0.0004305 0.0001306 0.0001410 0.0000347 -0.0001222 -0.0000184 -0.0002319 -0.0000160 -0.0001881 0.0006272 0.0012785 0.0002026 0.0004648 0.0002478 -0.0006411 -0.0005173 -0.0006094 -0.0000164 -0.0002446 -0.0001393 0.0002905 0.0000625 -0.0005017 0.0001422 0.0000385 -0.0091561 0.0043580 -0.0036238 0.0040913 0.0069794 0.0031255 0.0002375 0.0002326 0.0084115 -0.0086902 0.0001685 0.0007845 -0.0000596 -0.0000901 0.0000887 -0.0001198 0.0001234 -0.0005765 0.0002428 -0.0008326 -0.0000074 -0.0003182 -0.0000388 0.0001532 0.0001741 -0.0006175 -0.0000259 -0.0000223 0.0001361 0.0003340 -0.0000194 -0.0000049 0.0000074 -0.0000311 -0.0000022 -0.0001021 0.0002323 -0.0016499 0.0000608 -0.0006453 0.0001438 0.0005874 -0.0000216 -0.0001526 0.0000158 -0.0001881 0.0001296 -0.0009459 -0.0000054 -0.0001810 0.0000664 -0.0001039 0.0000145 -0.0001900 0.0002226 -0.0022380 -0.0000089 -0.0016876 -0.0000911 -0.0009798 -0.0002856 -0.0013637 -0.0000887 -0.0007984 0.0000252 -0.0009168 -0.0000745 -0.0008180 -0.0000637 -0.0008578 -0.0000439 -0.0008155 -0.0002938 -0.0004341 0.0000136 -0.0001158 0.0000770 0.0001414 -0.0000474 -0.0002258 0.0000528 -0.0000506
0.0000278 -0.0003089 -0.0000383 -0.0002866 0.0000737 0.0007955 -0.0002014 0.0007081 0.0000221 -0.0003853 0.0000229 0.0000089 0.0000675 0.0008818 0.0001264 0.0008955 0.0001561 0.0005988 0.0000134 -0.0000349 0.0000696 0.0001638 0.0000248 0.0002154 0.0004606 0.0011054 0.0002391 0.0004953 -0.0000256 -0.0000877 0.0000929 -0.0001693 0.0000879 -0.0003700 0.0001486 0.0002410 0.0000573 -0.0001438 -0.0000016 -0.0001793 -0.0000292 -0.0001812 0.0006697 0.0015348 0.0002136 0.0005781 0.0003318 -0.0006052 -0.0007629 -0.0009116 -0.0000588 -0.0001478 -0.0001364 0.0003007 -0.0000263 -0.0003676 0.0002040 -0.0000106 -0.0006140 -0.0155717 0.0082128 -0.0267377 0.0086466 0.0035694 0.0001737 0.0002895 0.0038578 -0.0014225 0.0001673 0.0009623 -0.0000749 -0.0000643 0.0000808 -0.0001301 0.0000805 -0.0004852 0.0002700 -0.0008836 -0.0000107 0.0001652 -0.0000275 0.0004547 0.0001764 -0.0004995 -0.0000405 0.0002554 0.0001182 0.0005012 -0.0000242 0.0001447 -0.0000006 0.0000524 0.0000031 0.0000418 0.0003049 -0.0011927 0.0000516 -0.0003851 0.0001602 0.0005009 -0.0000514 0.0001555 -0.0000062 0.0000306 0.0001207 -0.0008192 -0.0000087 0.0001302 0.0000647 0.0002177 0.0000300 0.0001119 0.0002922 -0.0016979 -0.0000317 -0.0015916 -0.0001238 -0.0007585 -0.0002075 -0.0011342 -0.0000745 -0.0005704 0.0000143 -0.0009144 -0.0001026 -0.0008151 -0.0000988 -0.0008792 -0.0000729 -0.0009018 -0.0001473 0.0000216 -0.0000360 -0.0003304 0.0001029 0.0001417 0.0000338 -0.0000539 0.0000438 -0.0002116
0.0000174 -0.0003802 -0.0000387 -0.0002600 0.0000610 0.0007562 -0.0001989 0.0006954 -0.0000134 -0.0004232 0.0000104 0.0000160 0.0000995 0.0008554 0.0001190 0.0008540 0.0001563 0.0004931 0.0000117 -0.0000434 0.0000572 0.0001499 0.0000251 0.0001775 0.0004878 0.0011282 0.0001984 0.0003152 -0.0000012 0.0000130 0.0000834 -0.0002430 0.0000878 -0.0003738 0.0001718 0.0002228 0.0000548 -0.0002034 -0.0000137 -0.0001546 -0.0000327 -0.0001818 0.0006153 0.0014390 0.0002066 0.0005877 0.0002639 -0.0005683 -0.0003084 -0.0011990 -0.0000181 -0.0001610 -0.0000379 0.0001028 -0.0001034 -0.0004256 0.0002109 -0.0000318 0.0120694 -0.0206615 -0.0043831 0.0029994 0.0073949 0.0012800 0.0002133 0.0002629 -0.0035828 0.0013543 0.0002314 0.0009574 -0.0001171 -0.0002688 0.0000867 -0.0002872 0.0001328 -0.0003900 0.0002627 -0.0009660 -0.0000081 -0.0000702 -0.0000366 0.0002540 0.0001922 -0.0004935 -0.0000487 0.0000719 0.0001533 0.0005262 -0.0000191 0.0000960 0.0000530 0.0001760 -0.0000742 -0.0000920 0.0005107 -0.0000126 0.0000942 -0.0003085 0.0003270 0.0014153 -0.0000170 0.0000725 -0.0000023 -0.0001066 0.0001741 -0.0007094 0.0000188 0.0000980 0.0000727 0.0001558 0.0000284 0.0000611 0.0004058 -0.0015572 0.0000434 -0.0012593 -0.0001603 -0.0006871 -0.0000495 -0.0008399 -0.0000075 -0.0003346 -0.0000214 -0.0008910 -0.0000789 -0.0006726 -0.0001461 -0.0010836 -0.0002542 -0.0015224 0.0002921 0.0012798 -0.0001556 -0.0008327 0.0001242 -0.0000851 0.0001970 0.0002344 0.0000289 -0.0005527
0.0000162 -0.0004051 -0.0000421 -0.0002439 0.0000599 0.0007317 -0.0002015 0.0006288 -0.0000222 -0.0003607 -0.0000111 0.0000026 0.0000852 0.0007982 0.0001026 0.0008284 0.0001216 0.0004371 0.0000048 0.0000138 0.0000455 0.0001472 -0.0000163 0.0001517 0.0005018 0.0011062 0.0002212 0.0001845 0.0000118 0.0000913 0.0000654 -0.0001952 0.0000886 -0.0003004 0.0001597 0.0001917 0.0000745 -0.0001570 -0.0000188 -0.0000412 -0.0000280 -0.0001342 0.0005761 0.0014207 0.0002126 0.0005777 0.0002294 -0.0005536 -0.0001770 -0.0012560 0.0001170 -0.0003404 0.0000275 -0.0000407 0.0003065 -0.0008065 0.0002102 -0.0000389 0.0089209 -0.0094986 0.0060531 -0.0018154 0.0019492 0.0052190 0.0002826 0.0001992 -0.0069514 0.0062584 0.0002873 0.0008792 -0.0001603 -0.0004377 0.0001431 -0.0004941 0.0001896 -0.0002885 0.0002617 -0.0010799 0.0000158 -0.0004599 -0.0000177 0.0000478 0.0002155 -0.0006890 -0.0000372 -0.0003126 0.0001982 0.0005141 -0.0000218 -0.0001299 0.0000595 0.0000361 -0.0001037 -0.0003224 0.0007554 0.0011374 0.0001310 -0.0004106 0.0005212 0.0026679 0.0000110 -0.0001984 -0.0000193 -0.0004895 0.0002130 -0.0008233 0.0000271 -0.0001551 0.0000728 -0.0002434 -0.0000762 -0.0004949 0.0004837 -0.0016878 0.0000982 -0.0010824 -0.0001697 -0.0006118 -0.0000206 -0.0007054 0.0000235 -0.0001654 0.0000700 -0.0003066 -0.0000692 -0.0002470 -0.0001337 -0.0007414 -0.0002490 -0.0014062 0.0004226 0.0016412 -0.0001062 -0.0006187 0.0000932 0.0000353 0.0002076 0.0003143 0.0000003 -0.0004349
0.0000293 -0.0003124 -0.0000388 -0.0002154 0.0000786 0.0006315 -0.0001309 0.0004811 0.0000005 -0.0002950 -0.0000226 0.0000206 0.0000656 0.0007568 0.0000419 0.0007001 0.0001068 0.0003651 0.0000256 0.0000706 0.0000796 0.0001713 0.0000019 0.0001760 0.0006643 0.0013806 0.0002437 0.0000354 0.0000610 0.0004341 0.0000916 -0.0001844 0.0000866 -0.0002019 0.0001803 0.0002212 0.0001292 -0.0000375 0.0000027 0.0001019 -0.0000064 -0.0000106 0.0006085 0.0015862 0.0002494 0.0006249 0.0003594 -0.0007493 -0.0007179 -0.0019556 0.0000994 -0.0004445 0.0000963 -0.0000517 0.0003545 -0.0009485 0.0001403 0.0000552 0.0004095 -0.0034301 0.0130706 -0.0150894 0.0078439 -0.0020142 0.0003296 0.0004373 -0.0099445 0.0124305 0.0002547 0.0010636 -0.0001813 -0.0000080 0.0001496 -0.0000999 0.0001646 -0.0001937 0.0003083 -0.0010427 -0.0000158 -0.0001394 -0.0000400 0.0003896 0.0002150 -0.0004726 -0.0000549 0.0000093 0.0001867 0.0006468 -0.0000348 -0.0000263 0.0000413 0.0000599 -0.0000946 -0.0001800 0.0008014 0.0015479 0.0001332 -0.0002885 0.0005087 0.0023080 -0.0000052 -0.0001861 -0.0000377 -0.0005892 0.0002176 -0.0008356 0.0000316 -0.0001221 0.0000781 -0.0003538 -0.0000903 -0.0005928 0.0005177 -0.0016293 0.0000870 -0.0012034 -0.0001221 -0.0007082 -0.0000596 -0.0006232 -0.0000216 -0.0002217 0.0001064 -0.0000440 -0.0001216 -0.0002441 -0.0001239 -0.0006600 -0.0001677 -0.0011641 0.0003589 0.0014816 -0.0000477 -0.0004748 0.0000795 0.0000008 0.0002075 0.0001999 0.0000065 -0.0005239
0.0000465 -0.0002405 -0.0000462 -0.0001991 0.0001480 0.0006585 0.0000227 0.0004509 0.0000408 -0.0003422 -0.0000154 0.0000130 0.0001205 0.0009641 -0.0000078 0.0007017 0.0001156 0.0003726 0.0000057 0.0000024 0.0000940 0.0002248 -0.0000059 0.0001379 0.0010213 0.0021027 0.0003050 0.0000009 0.0001661 0.0010814 0.0001028 -0.0001447 0.0000917 -0.0000484 0.0001934 0.0003687 0.0001629 0.0001255 0.0000269 0.0002926 0.0000087 0.0001231 0.0006217 0.0016836 0.0002833 0.0007081 0.0003370 -0.0008825 -0.0002522 -0.0022226 -0.0000724 -0.0004377 0.0000902 0.0000851 0.0000471 -0.0007913 0.0000898 0.0000937 -0.0016858 0.0001405 0.0014090 -0.0095953 0.0028289 -0.0001003 0.0004661 0.0009373 0.0050426 -0.0115138 0.0001453 0.0012096 -0.0002059 -0.0001881 0.0001421 -0.0000639 0.0000883 -0.0006511 0.0003632 -0.0014070 -0.0000354 -0.0003389 -0.0000654 0.0003311 0.0002096 -0.0005463 -0.0000659 -0.0000301 0.0001663 0.0005661 -0.0000381 -0.0000224 0.0000749 0.0001341 -0.0001033 -0.0001930 0.0008007 0.0015707 0.0001316 -0.0003620 0.0004888 0.0018525 -0.0000047 -0.0002321 -0.0000085 -0.0006052 0.0002442 -0.0008896 0.0000615 -0.0000721 0.0000878 -0.0003585 -0.0000299 -0.0004595 0.0005596 -0.0017371 0.0001209 -0.0011944 -0.0000611 -0.0008296 -0.0000251 -0.0005323 -0.0000698 -0.0002775 0.0000769 -0.0001698 -0.0001461 -0.0003770 -0.0001345 -0.0008280 -0.0002462 -0.0014488 0.0004990 0.0018128 -0.0000921 -0.0007396 0.0000759 -0.0002644 0.0002873 0.0002826 0.0000062 -0.0007845
0.0000591 -0.0002693 -0.0000734 -0.0001769 0.0001625 0.0004760 0.0001794 0.0004243 0.0000437 -0.0004342 -0.0000227 0.0000456 0.0001820 0.0010409 -0.0000415 0.0006455 0.0001106 0.0003484 0.0000089 -0.0000948 0.0000892 0.0002717 -0.0000766 0.0000864 0.0009631 0.0020252 0.0002776 -0.0001332 0.0001809 0.0010569 0.0000919 -0.0001811 0.0000859 0.0000178 0.0002041 0.0004007 0.0001991 0.0002849 0.0000347 0.0003720 0.0000175 0.0002054 0.0005554 0.0013766 0.0003466 0.0007397 0.0002440 -0.0010911 0.0000595 -0.0016434 -0.0002093 -0.0005008 0.0000406 0.0000610 0.0001604 -0.0010874 0.0001163 -0.0000497 -0.0115419 0.0082334 0.0035546 -0.0054639 -0.0065086 0.0046148 0.0005064 0.0014870 0.0061219 -0.0150433 0.0000013 0.0013443 -0.0002273 -0.0004023 0.0001706 -0.0002019 0.0000476 -0.0008306 0.0003898 -0.0017116 -0.0000241 -0.0004116 -0.0000477 0.0003820 0.0001997 -0.0007502 -0.0000708 -0.0001254 0.0001535 0.0005905 -0.0000453 -0.0000623 0.0000876 0.0002000 -0.0001370 -0.0002162 0.0008146 0.0015476 0.0001099 -0.0003893 0.0004977 0.0018253 -0.0000187 -0.0000300 0.0000018 -0.0004256 0.0002523 -0.0008550 0.0000820 0.0002360 0.0000842 -0.0001702 -0.0000222 -0.0002899 0.0005802 -0.0015978 0.0001554 -0.0008861 -0.0000320 -0.0005767 0.0000010 -0.0002859 -0.0000859 -0.0001133 0.0000675 -0.0000110 -0.0001956 -0.0003732 -0.0001442 -0.0006664 -0.0002996 -0.0015265 0.0005431 0.0018932 -0.0001197 -0.0008604 0.0000909 -0.0003742 0.0003350 0.0003114 0.0000084 -0.0009171
0.0000648 -0.0002583 -0.0000687 -0.0001657 0.0001556 0.0004002 0.0001228 0.0002273 0.0000302 -0.0004471 -0.0000299 0.0000008 0.0001685 0.0009358 -0.0000270 0.0004427 0.0001004 0.0002250 0.0000282 -0.0001720 0.0000737 0.0002063 -0.0000921 -0.0000367 0.0010135 0.0020247 0.0002712 -0.0003352 0.0002379 0.0013010 0.0000857 -0.0002499 0.0001032 0.0000555 0.0002059 0.0002770 0.0002399 0.0004353 0.0000362 0.0004520 0.0000265 0.0002260 0.0005594 0.0013770 0.0003611 0.0007759 0.0002339 -0.0014333 0.0000480 -0.0008579 -0.0002323 -0.0007661 0.0002063 0.0000009 0.0000892 -0.0012896 0.0001186 -0.0001303 -0.0067482 0.0045832 0.0008838 0.0083004 -0.0040683 0.0040320 0.0004831 0.0019414 -0.0044983 0.0068134 -0.0000008 0.0013636 -0.0002330 -0.0006303 0.0001622 -0.0003590 0.0000789 -0.0009187 0.0003657 -0.0019456 -0.0000290 -0.0007492 -0.0000504 0.0001802 0.0002011 -0.0009992 -0.0000728 -0.0003350 0.0001438 0.0004694 -0.0000431 -0.0001744 0.0000960 0.0001866 -0.0001619 -0.0003016 0.0007811 0.0011093 0.0001214 -0.0006121 0.0005247 0.0020746 -0.0000002 -0.0001362 0.0000091 -0.0005057 0.0002683 -0.0009405 0.0000952 0.0001560 0.0000877 -0.0002768 -0.0000081 -0.0003601 0.0006047 -0.0018102 0.0001870 -0.0008240 -0.0000307 -0.0004898 0.0000915 -0.0001893 -0.0000678 -0.0001044 0.0000175 -0.0002451 -0.0002245 -0.0004518 -0.0001423 -0.0006975 -0.0003800 -0.0019004 0.0006053 0.0020191 -0.0002027 -0.0011845 0.0000833 -0.0005141 0.0004097 0.0004037 0.0000023 -0.0011427
0.0000653 -0.0002486 -0.0000472 -0.0001589 0.0001435 0.0003811 0.0000493 -0.0000060 0.0000132 -0.0004753 -0.0000245 -0.0000368 0.0001572 0.0007501 -0.0000277 0.0002224 0.0001028 0.0001208 0.0000218 -0.0002192 0.0000816 0.0001537 -0.0000492 -0.0001330 0.0010234 0.0019826 0.0002766 -0.0005408 0.0002523 0.0013327 0.0000820 -0.0003284 0.0001065 0.0000881 0.0002077 0.0001396 0.0002920 0.0005521 0.0000523 0.0004633 0.0000445 0.0002187 0.0006018 0.0014826 0.0004071 0.0009609 0.0001625 -0.0016367 0.0001329 -0.0008479 -0.0002030 -0.0010775 0.0002723 -0.0000764 -0.0000170 -0.0014420 0.0000740 -0.0001366 0.0013969 0.0090455 0.0027501 -0.0009241 -0.0049246 0.0035272 0.0006132 0.0021813 0.0085527 -0.0110786 0.0000617 0.0012758 -0.0002516 -0.0009557 0.0001707 -0.0005443 0.0001208 -0.0009732 0.0003411 -0.0021840 -0.0000195 -0.0012023 -0.0000501 -0.0001340 0.0002037 -0.0013700 -0.0000672 -0.0007196 0.0001535 0.0003039 -0.0000383 -0.0004218 0.0001291 0.0000952 -0.0001797 -0.0005051 0.0008205 0.0008856 0.0001480 -0.0009120 0.0006680 0.0032179 0.0000295 -0.0004031 0.0000179 -0.0007660 0.0003110 -0.0010925 0.0001027 -0.0001124 0.0000879 -0.0005303 -0.0000370 -0.0006404 0.0006468 -0.0021979 0.0002521 -0.0006667 -0.0000505 -0.0004451 0.0001866 -0.0001634 -0.0000618 -0.0000454 0.0000053 -0.0004047 -0.0002497 -0.0003395 -0.0001752 -0.0006001 -0.0005065 -0.0023406 0.0008117 0.0025340 -0.0002765 -0.0013971 0.0000516 -0.0004290 0.0004963 0.0007040 -0.0000019 -0.0011157
0.0000600 -0.0004037 -0.0000418 -0.0001717 0.0001132 0.0003415 0.0000165 -0.0001233 0.0000304 -0.0005988 -0.0000200 -0.0000634 0.0001854 0.0005824 -0.0000427 0.0001217 0.0000870 0.0000822 0.0000209 -0.0003104 0.0000983 0.0001050 0.0000018 -0.0002501 0.0008456 0.0016320 0.0002483 -0.0006794 0.0001857 0.0008813 0.0000840 -0.0004093 0.0000797 0.0000071 0.0002073 0.0000329 0.0003320 0.0006201 0.0000649 0.0003606 0.0000522 0.0001760 0.0005700 0.0012957 0.0004523 0.0011110 0.0001204 -0.0016871 -0.0000139 -0.0009459 -0.0000941 -0.0011576 0.0002032 -0.0000704 0.0000571 -0.0014810 -0.0000204 -0.0001197 0.0009098 0.0093014 0.0015650 -0.0030343 0.0015484 -0.0122917 0.0007205 0.0022739 0.0080851 -0.0120554 0.0001421 0.0011668 -0.0002769 -0.0005954 0.0001798 -0.0002527 0.0001942 -0.0003717 0.0003308 -0.0020810 -0.0000452 -0.0009309 -0.0000449 0.0001948 0.0001911 -0.0012932 -0.0000811 -0.0005529 0.0001610 0.0004367 -0.0000433 -0.0004288 0.0001531 0.0002106 -0.0001884 -0.0004458 0.0008587 0.0008331 0.0001685 -0.0009154 0.0009308 0.0050878 0.0000359 -0.0004353 0.0000122 -0.0008660 0.0003431 -0.0010331 0.0000842 -0.0001798 0.0000943 -0.0006442 -0.0000874 -0.0008766 0.0006329 -0.0027754 0.0002975 -0.0005158 -0.0000432 -0.0003474 0.0002503 -0.0000320 0.0000329 0.0001491 0.0000059 -0.0003775 -0.0002411 -0.0002401 -0.0001677 -0.0006217 -0.0004689 -0.0024535 0.0008741 0.0024882 -0.0002013 -0.0013767 0.0000654 -0.0005047 0.0005126 0.0005430 0.0000407 -0.0011701
0.0000580 -0.0004419 -0.0000354 -0.0001585 0.0000992 0.0003196 0.0000033 -0.0002152 0.0000457 -0.0006485 -0.0000334 -0.0000992 0.0001610 0.0005010 -0.0000414 0.0000408 0.0000861 0.0000055 0.0000256 -0.0003709 0.0000763 -0.0000062 0.0000424 -0.0003339 0.0008483 0.0015763 0.0002432 -0.0007569 0.0001882 0.0009146 0.0000902 -0.0004994 0.0000651 -0.0000825 0.0001969 -0.0000491 0.0003390 0.0006230 0.0000570 0.0002926 0.0000565 0.0001116 0.0005578 0.0012401 0.0004437 0.0010615 0.0000937 -0.0018800 -0.0004094 -0.0015557 -0.0000383 -0.0012969 0.0001838 -0.0001192 -0.0002021 -0.0014241 -0.0000688 -0.0002425 -0.0032896 0.0006713 -0.0011871 0.0010459 0.0072016 -0.0162104 0.0007336 0.0022882 -0.0024082 0.0025751 0.0002008 0.0008845 -0.0002331 -0.0006831 0.0001251 -0.0004233 0.0003268 -0.0000135 0.0002952 -0.0021218 -0.0000800 -0.0011939 -0.0000203 0.0000360 0.0002148 -0.0014281 -0.0000693 -0.0007602 0.0001680 0.0003062 -0.0000368 -0.0005693 0.0001539 0.0000318 -0.0001506 -0.0005407 0.0008514 0.0006840 0.0001800 -0.0010620 0.0008307 0.0042164 0.0000441 -0.0006611 -0.0000067 -0.0011314 0.0003638 -0.0012342 0.0000604 -0.0004410 0.0001025 -0.0008629 -0.0001251 -0.0011450 0.0006306 -0.0032699 0.0003030 -0.0006913 0.0000048 -0.0002664 0.0002595 -0.0000023 0.0001736 0.0002970 0.0000399 -0.0002986 -0.0001816 -0.0002016 -0.0001052 -0.0007181 -0.0003620 -0.0023722 0.0007586 0.0019925 -0.0001064 -0.0012831 0.0000564 -0.0006354 0.0004929 0.0002282 0.0000667 -0.0012717
0.0000537 -0.0004336 -0.0000355 -0.0001606 0.0000901 0.0001586 0.0000029 -0.0003901 0.0000303 -0.0006764 -0.0000538 -0.0001567 0.0001192 0.0003649 -0.0000694 -0.0001877 0.0000644 -0.0001507 0.0000385 -0.0004583 0.0000263 -0.0001921 0.0000183 -0.0004509 0.0009455 0.0017038 0.0002639 -0.0008473 0.0002291 0.0012228 0.0000958 -0.0006147 0.0000574 -0.0001650 0.0002079 -0.0001376 0.0003149 0.0005356 0.0000399 0.0002338 0.0000612 0.0000510 0.0005525 0.0011973 0.0004191 0.0008544 -0.0000345 -0.0022248 -0.0004909 -0.0027180 -0.0001780 -0.0013579 0.0000240 -0.0000499 -0.0003877 -0.0015722 -0.0002017 -0.0002675 -0.0122686 0.0024679 -0.0002000 -0.0208257 -0.0056275 -0.0012071 0.0006954 0.0021299 -0.0024889 0.0034809 0.0001050 0.0006551 -0.0002033 -0.0009419 0.0000830 -0.0007207 0.0003602 -0.0000878 0.0002893 -0.0023044 -0.0000835 -0.0013792 -0.0000045 -0.0001914 0.0002408 -0.0016279 -0.0000582 -0.0010036 0.0001679 0.0002058 -0.0000267 -0.0007077 0.0001424 -0.0001615 -0.0001283 -0.0006563 0.0008709 0.0007425 0.0001800 -0.0011405 0.0006864 0.0030313 0.0000335 -0.0007024 -0.0000257 -0.0012109 0.0003696 -0.0013498 0.0000533 -0.0004423 0.0000967 -0.0007985 -0.0001393 -0.0010658 0.0006346 -0.0031780 0.0002895 -0.0007277 0.0000562 -0.0000179 0.0002600 0.0000658 0.0002061 0.0005286 0.0000671 -0.0001901 -0.0001169 -0.0000749 -0.0000851 -0.0006380 -0.0003400 -0.0023472 0.0007469 0.0018705 -0.0000841 -0.0012914 0.0000573 -0.0006784 0.0004970 0.0001176 0.0000760 -0.0013339
0.0000472 -0.0004141 -0.0000150 -0.0001412 0.0000853 0.0000147 -0.0000321 -0.0005598 -0.0000082 -0.0007828 -0.0000660 -0.0002086 0.0000738 -0.0000502 -0.0001447 -0.0005270 0.0000162 -0.0003830 0.0000458 -0.0005722 -0.0000390 -0.0004645 -0.0000708 -0.0005470 0.0007247 0.0010796 0.0002310 -0.0010777 0.0001555 0.0008533 0.0000876 -0.0006908 0.0000471 -0.0002983 0.0001310 -0.0006913 0.0002181 0.0001432 0.0000167 0.0000741 0.0000637 -0.0000217 0.0002380 -0.0002851 0.0002512 0.0000275 -0.0002258 -0.0027061 0.0000427 -0.0015766 -0.0002381 -0.0016698 0.0000601 -0.0002983 -0.0001732 -0.0019696 -0.0002925 -0.0004583 0.0022867 -0.0122460 -0.0055856 -0.0150477 -0.0140532 0.0124014 0.0006804 0.0016429 0.0066093 -0.0098784 0.0000615 -0.0000035 -0.0002015 -0.0011513 0.0000807 -0.0008551 0.0003722 -0.0002313 0.0002804 -0.0024760 -0.0000883 -0.0016337 0.0000027 -0.0003836 0.0002578 -0.0018388 -0.0000546 -0.0011704 0.0001795 0.0000939 -0.0000165 -0.0008324 0.0001350 -0.0003189 -0.0000961 -0.0007750 0.0008680 0.0005833 0.0001891 -0.0012721 0.0005962 0.0021126 0.0000436 -0.0009099 -0.0000196 -0.0013983 0.0003787 -0.0015535 0.0000446 -0.0006336 0.0000948 -0.0009662 -0.0001476 -0.0011997 0.0006535 -0.0033898 0.0002740 -0.0009644 0.0000499 -0.0001857 0.0002037 -0.0000555 0.0002105 0.0005406 0.0001000 -0.0003034 -0.0001078 -0.0002606 -0.0001151 -0.0009483 -0.0002758 -0.0023760 0.0008956 0.0020994 -0.0000313 -0.0013002 0.0001118 -0.0007910 0.0004641 -0.0001283 0.0000693 -0.0015159
0.0000448 -0.0006591 0.0000230 -0.0002564 0.0000410 -0.0004686 -0.0000712 -0.0010869 -0.0000202 -0.0010228 -0.0000683 -0.0003892 -0.0000328 -0.0009354 -0.0001367 -0.0011618 0.0000304 -0.0008309 0.0001177 -0.0007957 -0.0000498 -0.0008221 -0.0000176 -0.0005476 0.0002211 -0.0001849 0.0001755 -0.0014449 -0.0000214 -0.0003475 0.0000905 -0.0010323 0.0000557 -0.0006082 0.0000351 -0.0015551 0.0001436 -0.0003821 0.0000343 -0.0002611 0.0000706 -0.0002716 -0.0000731 -0.0016942 0.0000324 -0.0008595 -0.0003084 -0.0030248 -0.0004028 -0.0014022 -0.0001680 -0.0019817 0.0001827 -0.0007325 0.0001596 -0.0025094 -0.0002438 -0.0008642 0.0170188 -0.0294173 -0.0008633 -0.0009846 -0.0107378 0.0193957 0.0006421 0.0010743 0.0050730 -0.0069885 0.0001196 -0.0006253 -0.0001882 -0.0013383 0.0000748 -0.0010989 0.0003826 -0.0004847 0.0002884 -0.0027960 -0.0001052 -0.0018118 0.0000161 -0.0006525 0.0002887 -0.0020592 -0.0000462 -0.0013308 0.0002009 -0.0000317 -0.0000030 -0.0009556 0.0000999 -0.0006027 -0.0000476 -0.0008992 0.0007909 0.0001997 0.0001873 -0.0013823 0.0002439 -0.0014746 0.0000429 -0.0011702 -0.0000339 -0.0016662 0.0003792 -0.0018590 0.0000068 -0.0009310 0.0000846 -0.0011405 -0.0001600 -0.0013217 0.0007148 -0.0036333 0.0002905 -0.0010135 0.0000710 -0.0003402 0.0000935 -0.0003647 0.0002458 0.0003502 0.0000911 -0.0005779 -0.0001096 -0.0004360 -0.0001463 -0.0011650 -0.0001871 -0.0020738 0.0009635 0.0024785 -0.0000293 -0.0012036 0.0001422 -0.0006100 0.0004227 -0.0001692 0.0000421 -0.0013787
0.0000525 -0.0005606 0.0000449 -0.0003918 0.0000110 -0.0007717 -0.0000867 -0.0013915 0.0000511 -0.0007873 -0.0000681 -0.0005434 -0.0000882 -0.0013574 -0.0001414 -0.0015563 0.0000262 -0.0010517 0.0001926 -0.0008167 0.0000175 -0.0008757 0.0001554 -0.0004089 0.0000229 -0.0006337 0.0001577 -0.0016580 -0.0001317 -0.0010657 0.0000874 -0.0012701 0.0000643 -0.0008488 0.0000371 -0.0017709 0.0001356 -0.0005313 0.0000670 -0.0004864 0.0000600 -0.0004961 -0.0000642 -0.0015127 0.0000107 -0.0009346 -0.0002480 -0.0026718 -0.0008557 -0.0020284 -0.0001667 -0.0019849 0.0002514 -0.0009552 -0.0002206 -0.0022845 -0.0001093 -0.0010357 0.0071632 -0.0119661 -0.0051680 0.0204541 -0.0109813 0.0210664 0.0005357 0.0006766 -0.0184797 0.0247332 0.0000271 -0.0006980 -0.0002023 -0.0008824 0.0000959 -0.0008483 0.0003363 -0.0003088 0.0003156 -0.0025785 -0.0000986 -0.0012442 0.0000213 -0.0003236 0.0002957 -0.0018755 -0.0000468 -0.0010222 0.0001867 0.0000923 -0.0000001 -0.0008822 0.0000270 -0.0007119 -0.0000077 -0.0007186 0.0008301 0.0002083 0.0002123 -0.0013098 0.0003261 -0.0004914 0.0000293 -0.0011701 -0.0000411 -0.0016414 0.0003678 -0.0019339 -0.0000157 -0.0009578 0.0000698 -0.0012240 -0.0002081 -0.0015193 0.0007342 -0.0036400 0.0002735 -0.0011761 0.0001347 -0.0005628 0.0000827 -0.0005581 0.0001276 -0.0000649 0.0000793 -0.0008237 -0.0001314 -0.0006219 -0.0001335 -0.0012915 -0.0001468 -0.0019099 0.0008609 0.0024184 -0.0000092 -0.0012070 0.0001586 -0.0007134 0.0004167 -0.0002951 0.0000514 -0.0014484
0.0000771 -0.0003596 0.0000282 -0.0004917 0.0000815 -0.0005615 -0.0001195 -0.0013716 0.0000867 -0.0005566 -0.0000575 -0.0006404 -0.0000168 -0.0010697 -0.0001644 -0.0017033 0.0000581 -0.0010305 0.0001965 -0.0009127 0.0001101 -0.0007200 0.0002440 -0.0004104 0.0003536 0.0001077 0.0002117 -0.0017634 -0.0000723 -0.0005796 0.0000936 -0.0012242 0.0000728 -0.0008754 0.0000760 -0.0014296 0.0002212 -0.0003240 0.0000952 -0.0005205 0.0000539 -0.0005272 0.0000893 -0.0009258 0.0001413 -0.0004844 -0.0001893 -0.0025513 -0.0003837 -0.0010985 -0.0001134 -0.0019872 0.0003122 -0.0009618 -0.0001520 -0.0023277 -0.0000115 -0.0009775 -0.0001545 -0.0007409 -0.0151335 0.0366137 -0.0181977 0.0225344 0.0005542 0.0007514 -0.0219271 0.0229378 -0.0000852 -0.0002967 -0.0002135 -0.0010787 0.0001200 -0.0008866 0.0002423 -0.0007123 0.0003665 -0.0027826 -0.0000767 -0.0014311 0.0000235 -0.0003759 0.0003094 -0.0020177 -0.0000420 -0.0011530 0.0001597 -0.0001291 0.0000057 -0.0010242 0.0000069 -0.0009011 0.0000027 -0.0007581 0.0008499 -0.0002247 0.0002240 -0.0015976 0.0004127 0.0006879 0.0000401 -0.0012870 0.0000150 -0.0016150 0.0003841 -0.0021841 0.0000412 -0.0009386 0.0000859 -0.0013734 -0.0002089 -0.0018079 0.0007145 -0.0039129 0.0002739 -0.0014722 0.0001629 -0.0010247 0.0001394 -0.0006620 -0.0000264 -0.0005349 0.0000620 -0.0010986 -0.0002072 -0.0009647 -0.0001286 -0.0015498 -0.0002019 -0.0021542 0.0007383 0.0019627 0.0000166 -0.0012986 0.0001418 -0.0010455 0.0004713 -0.0003674 0.0000604 -0.0017456
0.0000990 -0.0003009 -0.0000117 -0.0005433 0.0001527 -0.0001448 -0.0001847 -0.0011524 0.0001127 -0.0005336 -0.0000425 -0.0006389 0.0000683 -0.0004661 -0.0001148 -0.0014240 0.0001117 -0.0007127 0.0001589 -0.0008379 0.0001653 -0.0004930 0.0002342 -0.0002992 0.0009021 0.0013837 0.0003090 -0.0013905 0.0000752 0.0004931 0.0001041 -0.0008765 0.0000765 -0.0007141 0.0001055 -0.0007446 0.0002956 0.0001267 0.0001065 -0.0003933 0.0000554 -0.0003742 0.0002697 0.0000256 0.0002463 0.0000874 -0.0001776 -0.0027835 -0.0002934 -0.0002833 -0.0000436 -0.0019993 0.0002441 -0.0006173 -0.0000447 -0.0024599 -0.0000741 -0.0007871 0.0002107 -0.0011134 -0.0247552 0.0322173 -0.0131281 0.0159199 0.0006412 0.0009970 -0.0102598 0.0071912 -0.0000566 0.0001046 -0.0002318 -0.0015063 0.0001494 -0.0011534 0.0000880 -0.0015922 0.0004698 -0.0034201 -0.0000707 -0.0016828 0.0000135 -0.0005156 0.0003075 -0.0023257 -0.0000407 -0.0013181 0.0001502 -0.0003412 0.0000052 -0.0011782 0.0000082 -0.0010242 -0.0000071 -0.0008472 0.0006747 -0.0015721 0.0001930 -0.0019002 0.0001987 -0.0010704 0.0000330 -0.0012219 0.0000255 -0.0015921 0.0003929 -0.0023592 0.0000772 -0.0007905 0.0001039 -0.0012099 -0.0001494 -0.0015449 0.0006223 -0.0044539 0.0002877 -0.0014308 0.0001600 -0.0011320 0.0001665 -0.0007646 -0.0000078 -0.0007310 -0.0000022 -0.0015391 -0.0002663 -0.0014251 -0.0001641 -0.0019516 -0.0002357 -0.0024258 0.0006058 0.0012826 0.0000019 -0.0014855 0.0001326 -0.0012992 0.0005077 -0.0005188 0.0000370 -0.0021673
0.0001052 -0.0003206 -0.0000283 -0.0004986 0.0001509 -0.0000433 -0.0001329 -0.0008091 0.0001365 -0.0005786 -0.0000318 -0.0005099 0.0000974 0.0001306 -0.0000551 -0.0009621 0.0001480 -0.0003982 0.0001459 -0.0007887 0.0001651 -0.0004115 0.0001767 -0.0002512 0.0011546 0.0021521 0.0003582 -0.0008800 0.0001505 0.0010579 0.0001163 -0.0006119 0.0000769 -0.0006341 0.0001070 -0.0003230 0.0002998 0.0002575 0.0000959 -0.0003042 0.0000459 -0.0002998 0.0003003 0.0004788 0.0002597 0.0002152 -0.0001251 -0.0030097 -0.0005284 -0.0008650 -0.0000898 -0.0018636 0.0001982 -0.0003892 -0.0003291 -0.0022952 -0.0001566 -0.0006122 -0.0007999 -0.0015122 0.0089113 -0.0257953 -0.0065587 0.0131212 0.0006219 0.0011482 -0.0206274 0.0224921 -0.0000239 0.0002648 -0.0002572 -0.0019333 0.0001548 -0.0014519 -0.0000459 -0.0024344 0.0005241 -0.0040146 -0.0000715 -0.0019907 -0.0000025 -0.0007547 0.0002816 -0.0028552 -0.0000268 -0.0014965 0.0001480 -0.0005303 0.0000051 -0.0013235 0.0000106 -0.0011611 0.0000187 -0.0009525 0.0003906 -0.0038214 0.0001800 -0.0023834 -0.0000501 -0.0031218 0.0000447 -0.0013716 -0.0000004 -0.0018308 0.0003948 -0.0026765 0.0000720 -0.0009505 0.0001183 -0.0012286 -0.0000835 -0.0013483 0.0005237 -0.0053059 0.0002844 -0.0015877 0.0001419 -0.0014245 0.0001590 -0.0009817 -0.0000005 -0.0010515 -0.0000508 -0.0022329 -0.0003024 -0.0020093 -0.0002016 -0.0024699 -0.0002056 -0.0026829 0.0005357 0.0007670 0.0000181 -0.0016846 0.0001475 -0.0014673 0.0004859 -0.0008856 0.0000331 -0.0025481
0.0001138 -0.0002822 -0.0000321 -0.0004425 0.0001391 -0.0001024 -0.0000392 -0.0004830 0.0001206 -0.0004882 -0.0000184 -0.0003106 0.0001237 0.0005842 -0.0000219 -0.0004649 0.0001759 -0.0001361 0.0001380 -0.0007600 0.0001675 -0.0003631 0.0000716 -0.0001889 0.0010692 0.0023049 0.0003670 -0.0002357 0.0001531 0.0010454 0.0001185 -0.0004089 0.0000536 -0.0006009 0.0001056 -0.0000162 0.0002554 0.0002814 0.0000995 -0.0002691 0.0000242 -0.0002542 0.0002015 0.0001952 0.0002649 0.0002963 -0.0001474 -0.0029009 -0.0002535 -0.0010802 -0.0001654 -0.0016395 0.0001695 -0.0001492 -0.0003918 -0.0019961 -0.0001266 -0.0004324 0.0028731 -0.0080938 0.0216476 -0.0428500 -0.0069427 0.0114715 0.0005556 0.0013077 -0.0299338 0.0260225 -0.0000521 0.0004359 -0.0002654 -0.0023970 0.0001277 -0.0016982 -0.0000491 -0.0026607 0.0004683 -0.0045435 -0.0000571 -0.0022843 -0.0000188 -0.0011542 0.0002465 -0.0037255 -0.0000087 -0.0017716 0.0001622 -0.0007059 0.0000174 -0.0014972 0.0000345 -0.0012754 0.0000707 -0.0011154 0.0001303 -0.0062784 0.0001789 -0.0030129 -0.0002169 -0.0041433 0.0000693 -0.0015695 0.0000020 -0.0020084 0.0003933 -0.0030332 0.0000670 -0.0011542 0.0001268 -0.0012433 -0.0000951 -0.0014654 0.0004200 -0.0062544 0.0003715 -0.0010102 0.0001367 -0.0016093 0.0001776 -0.0011254 -0.0000477 -0.0011821 -0.0001130 -0.0026285 -0.0002938 -0.0021152 -0.0002146 -0.0023033 -0.0002207 -0.0026358 0.0005385 0.0007154 0.0000143 -0.0016139 0.0001500 -0.0012832 0.0004865 -0.0008035 0.0000349 -0.0023475
0.0001047 -0.0003452 -0.0000358 -0.0003844 0.0001453 0.0000764 -0.0000211 -0.0000966 0.0001254 -0.0005100 -0.0000021 -0.0001133 0.0001679 0.0009682 -0.0000044 0.0001431 0.0002072 0.0001615 0.0001135 -0.0006838 0.0001754 -0.0002620 0.0001031 -0.0002234 0.0009216 0.0023360 0.0003804 0.0004780 0.0001244 0.0008737 0.0001178 -0.0002602 0.0000443 -0.0005771 0.0001081 0.0003283 0.0001879 0.0002945 0.0001008 -0.0002633 -0.0000042 -0.0002388 0.0000974 -0.0001509 0.0003015 0.0004303 -0.0002988 -0.0026498 -0.0001776 -0.0001465 -0.0001976 -0.0017018 0.0001574 -0.0000931 -0.0006791 -0.0015168 -0.0001001 -0.0003785 -0.0028095 -0.0067088 0.0016274 -0.0057466 -0.0151139 0.0227760 0.0005456 0.0012960 -0.0282098 0.0130701 -0.0000952 0.0006352 -0.0002639 -0.0022551 0.0001402 -0.0015014 0.0000030 -0.0022583 0.0003875 -0.0047614 -0.0000496 -0.0022265 -0.0000338 -0.0011683 0.0001976 -0.0044131 -0.0000095 -0.0017828 0.0001709 -0.0007280 0.0000237 -0.0015524 0.0000414 -0.0012636 0.0000826 -0.0010972 -0.0000082 -0.0077924 0.0001659 -0.0034872 -0.0002502 -0.0036351 0.0000738 -0.0016340 0.0000126 -0.0019676 0.0003751 -0.0033083 0.0000590 -0.0012278 0.0001222 -0.0013085 -0.0001721 -0.0017872 0.0003056 -0.0071439 0.0004494 -0.0003962 0.0001367 -0.0016664 0.0001740 -0.0012203 -0.0000677 -0.0012250 -0.0001092 -0.0025982 -0.0002853 -0.0021006 -0.0001859 -0.0022313 -0.0001874 -0.0025017 0.0005482 0.0006053 0.0000546 -0.0014473 0.0001561 -0.0011874 0.0004683 -0.0008231 0.0000543 -0.0021426
0.0000966 -0.0003960 -0.0000366 -0.0003585 0.0001281 0.0001530 0.0000174 0.0002184 0.0001041 -0.0005156 0.0000034 -0.0000048 0.0001899 0.0013424 0.0000943 0.0006649 0.0002542 0.0003088 0.0001034 -0.0006495 0.0001821 -0.0002388 0.0001922 -0.0003167 0.0010326 0.0027480 0.0004614 0.0011499 0.0001878 0.0013175 0.0001510 -0.0001244 0.0000632 -0.0005435 0.0001241 0.0006229 0.0001828 0.0003167 0.0000946 -0.0001837 -0.0000067 -0.0002104 0.0001048 0.0001695 0.0003034 0.0004332 -0.0003223 -0.0026550 -0.0001680 -0.0005538 -0.0002698 -0.0014844 0.0000805 0.0000384 -0.0007353 -0.0013546 -0.0001858 -0.0001976 -0.0040908 0.0040419 -0.0088307 0.0069756 -0.0137851 0.0205819 0.0005385 0.0015662 -0.0007652 -0.0060253 -0.0000911 0.0010064 -0.0002456 -0.0021695 0.0001308 -0.0014522 -0.0000199 -0.0022547 0.0003724 -0.0051600 -0.0000630 -0.0021469 -0.0000321 -0.0011113 0.0001648 -0.0049218 -0.0000204 -0.0017673 0.0001608 -0.0007339 0.0000303 -0.0015334 0.0000346 -0.0012620 0.0000850 -0.0010212 -0.0001697 -0.0090117 0.0001265 -0.0038439 -0.0003934 -0.0049847 0.0000618 -0.0016645 0.0000098 -0.0019018 0.0003417 -0.0035831 0.0000386 -0.0012516 0.0001245 -0.0012915 -0.0001931 -0.0018519 0.0002159 -0.0077631 0.0004524 -0.0002687 0.0001303 -0.0017346 0.0001272 -0.0013235 -0.0000499 -0.0013118 -0.0000789 -0.0025158 -0.0002673 -0.0021310 -0.0001542 -0.0023268 -0.0001360 -0.0023664 0.0004771 0.0004388 0.0001014 -0.0012745 0.0001369 -0.0010741 0.0004253 -0.0008628 0.0000582 -0.0019213
0.0000969 -0.0001877 -0.0000335 -0.0002637 0.0001172 0.0001978 0.0001060 0.0005806 0.0001297 -0.0003694 0.0000137 0.0000923 0.0002308 0.0018519 0.0002583 0.0013677 0.0002657 0.0004648 0.0001210 -0.0004982 0.0001620 -0.0001440 0.0001468 -0.0001510 0.0013923 0.0035674 0.0006113 0.0018466 0.0003077 0.0021992 0.0001769 0.0000387 0.0000884 -0.0004353 0.0001469 0.0009263 0.0001817 0.0004194 0.0000944 -0.0000649 0.0000096 -0.0001079 0.0001798 0.0007180 0.0002919 0.0004561 -0.0002174 -0.0026279 -0.0001762 -0.0015827 -0.0002971 -0.0012814 0.0002307 0.0000663 -0.0002593 -0.0016556 -0.0001236 -0.0000954 -0.0028379 0.0106059 0.0003467 -0.0074187 0.0002169 -0.0052273 0.0005819 0.0016731 0.0096339 -0.0146579 -0.0000569 0.0013033 -0.0002340 -0.0019366 0.0000851 -0.0013078 -0.0000506 -0.0019860 0.0003664 -0.0052871 -0.0000717 -0.0014834 -0.0000277 -0.0007187 0.0001271 -0.0050000 -0.0000354 -0.0014077 0.0001478 -0.0004544 0.0000294 -0.0012741 0.0000215 -0.0010634 0.0000845 -0.0007436 -0.0003314 -0.0097403 0.0000787 -0.0037655 -0.0005184 -0.0065766 0.0000314 -0.0012981 -0.0000146 -0.0015782 0.0002987 -0.0035322 -0.0000007 -0.0009828 0.0001301 -0.0009243 -0.0001824 -0.0015303 0.0001169 -0.0080306 0.0004558 0.0000388 0.0001103 -0.0016538 0.0001093 -0.0013741 -0.0000650 -0.0012805 -0.0000477 -0.0025274 -0.0002700 -0.0020912 -0.0001227 -0.0022984 -0.0001283 -0.0022305 0.0003854 0.0004201 0.0001248 -0.0012037 0.0001162 -0.0009916 0.0004057 -0.0007996 0.0000497 -0.0018026
0.0000917 -0.0002097 -0.0000287 -0.0002026 0.0001429 0.0002314 0.0001716 0.0008669 0.0001606 -0.0003195 0.0000361 0.0001356 0.0002724 0.0022249 0.0003466 0.0019422 0.0002678 0.0005642 0.0001342 -0.0004659 0.0001462 -0.0000491 0.0001228 -0.0001089 0.0015239 0.0039148 0.0006811 0.0021951 0.0003357 0.0024183 0.0001604 0.0000790 0.0000950 -0.0003769 0.0001429 0.0010747 0.0001658 0.0004361 0.0000971 -0.0000320 0.0000100 -0.0000687 0.0001930 0.0008598 0.0002941 0.0005541 -0.0001825 -0.0024609 -0.0002551 -0.0020739 -0.0001966 -0.0013159 0.0002332 0.0001270 0.0000794 -0.0018461 -0.0001020 -0.0000649 0.0081870 -0.0066509 -0.0012117 0.0053381 0.0074728 -0.0123089 0.0006120 0.0018169 0.0025724 -0.0101648 -0.0000794 0.0014743 -0.0002273 -0.0020195 0.0000698 -0.0013299 -0.0000610 -0.0019732 0.0003190 -0.0054017 -0.0000657 -0.0014979 -0.0000281 -0.0007626 0.0001002 -0.0051973 -0.0000285 -0.0014692 0.0001431 -0.0004556 0.0000275 -0.0012336 0.0000135 -0.0010309 0.0000956 -0.0007324 -0.0004332 -0.0101295 0.0000683 -0.0039095 -0.0005434 -0.0066650 0.0000302 -0.0012540 -0.0000167 -0.0014956 0.0002888 -0.0036095 -0.0000236 -0.0009770 0.0001234 -0.0008348 -0.0001834 -0.0014331 0.0000405 -0.0083690 0.0004454 0.0001661 0.0000908 -0.0016605 0.0001231 -0.0014123 -0.0000818 -0.0012747 -0.0000327 -0.0025473 -0.0002558 -0.0020597 -0.0000903 -0.0022804 -0.0001323 -0.0022093 0.0003864 0.0003945 0.0001308 -0.0011913 0.0001214 -0.0009522 0.0004055 -0.0007496 0.0000745 -0.0017344
0.0000879 -0.0001210 -0.0000121 -0.0001583 0.0001500 0.0003211 0.0001673 0.0010452 0.0001311 -0.0001026 0.0000346 0.0002015 0.0002537 0.0023536 0.0003109 0.0021200 0.0002441 0.0005991 0.0001082 -0.0003492 0.0001219 -0.0000307 0.0000990 -0.0001343 0.0014851 0.0037931 0.0006398 0.0020111 0.0003037 0.0022553 0.0001335 0.0000769 0.0000676 -0.0003296 0.0001291 0.0011445 0.0001633 0.0004427 0.0000753 0.0000051 0.0000046 -0.0000262 0.0002191 0.0010491 0.0002915 0.0005814 -0.0001302 -0.0025949 -0.0009113 -0.0032109 -0.0001533 -0.0011607 0.0001262 0.0002618 0.0001839 -0.0018876 -0.0001236 -0.0000050 0.0099955 -0.0119668 -0.0004506 0.0155282 0.0029457 -0.0026017 0.0006152 0.0019937 -0.0025823 -0.0076016 -0.0001546 0.0012613 -0.0002250 -0.0021940 0.0000674 -0.0014051 -0.0000553 -0.0019524 0.0002450 -0.0054415 -0.0000651 -0.0016686 -0.0000453 -0.0009307 0.0000723 -0.0053727 -0.0000242 -0.0016402 0.0001476 -0.0005219 0.0000222 -0.0012850 0.0000209 -0.0010308 0.0000927 -0.0008175 -0.0005200 -0.0103225 0.0000721 -0.0040807 -0.0005380 -0.0063856 0.0000400 -0.0013118 -0.0000187 -0.0014942 0.0002887 -0.0036605 -0.0000412 -0.0009987 0.0001099 -0.0007651 -0.0001909 -0.0013474 -0.0000102 -0.0084579 0.0004170 0.0002955 0.0000747 -0.0015606 0.0001191 -0.0013083 -0.0000941 -0.0011275 -0.0000367 -0.0023502 -0.0002498 -0.0019124 -0.0000740 -0.0019676 -0.0001400 -0.0020975 0.0003678 0.0003511 0.0001062 -0.0011205 0.0001174 -0.0008611 0.0004092 -0.0005880 0.0000836 -0.0016157
0.0000780 -0.0001207 0.0000049 -0.0001143 0.0001351 0.0002012 0.0001815 0.0009348 0.0000819 -0.0001039 0.0000232 0.0002177 0.0002212 0.0021555 0.0002261 0.0018438 0.0002306 0.0004974 0.0000797 -0.0003134 0.0000905 -0.0001082 0.0000568 -0.0002113 0.0014369 0.0035465 0.0005625 0.0014628 0.0002474 0.0019955 0.0001093 -0.0000008 0.0000617 -0.0003285 0.0001174 0.0010238 0.0001842 0.0004225 0.0000586 0.0000523 0.0000136 0.0000121 0.0002057 0.0009991 0.0002774 0.0004756 -0.0001497 -0.0026588 -0.0011990 -0.0031566 -0.0001989 -0.0010345 0.0001140 0.0002588 0.0001951 -0.0017804 -0.0000565 -0.0000217 -0.0131808 0.0212781 0.0027279 0.0035761 -0.0072717 0.0104300 0.0006500 0.0019886 0.0075193 -0.0092049 -0.0000521 0.0009321 -0.0002323 -0.0023708 0.0000615 -0.0014226 -0.0000326 -0.0019063 0.0001617 -0.0053871 -0.0000754 -0.0018373 -0.0000721 -0.0010169 0.0000361 -0.0053927 -0.0000329 -0.0017159 0.0001467 -0.0005981 0.0000196 -0.0012914 0.0000370 -0.0009671 0.0000612 -0.0008810 -0.0005494 -0.0102475 0.0000725 -0.0041148 -0.0005080 -0.0058017 0.0000485 -0.0013197 -0.0000195 -0.0014668 0.0002812 -0.0036196 -0.0000306 -0.0009935 0.0001128 -0.0007489 -0.0001687 -0.0012792 -0.0000382 -0.0086552 0.0004156 0.0003773 0.0000767 -0.0016089 0.0001379 -0.0012477 -0.0001106 -0.0011691 -0.0000637 -0.0025040 -0.0002968 -0.0019621 -0.0000966 -0.0020197 -0.0001661 -0.0021618 0.0003093 0.0003293 0.0000681 -0.0012121 0.0001083 -0.0009079 0.0004198 -0.0004876 0.0000799 -0.0016197
0.0000823 -0.0000804 0.0000054 -0.0000757 0.0001362 0.0000456 0.0002629 0.0008267 0.0000535 -0.0000881 0.0000038 0.0002676 0.0001693 0.0019379 0.0001128 0.0014998 0.0002125 0.0004809 0.0000466 -0.0001783 0.0000867 -0.0000249 0.0000741 -0.0001257 0.0013539 0.0032777 0.0004422 0.0010069 0.0001834 0.0016437 0.0000775 0.0000682 0.0000636 -0.0002221 0.0001120 0.0009523 0.0001880 0.0005047 0.0000655 0.0001511 0.0000232 0.0001003 0.0001364 0.0006682 0.0002548 0.0003798 -0.0002132 -0.0023800 -0.0008887 -0.0024134 -0.0001447 -0.0010536 0.0000652 0.0003293 0.0001405 -0.0016486 0.0000346 0.0000041 -0.0151247 0.0174388 -0.0018076 -0.0075342 0.0054557 0.0003062 0.0006840 0.0019565 0.0040769 0.0071759 -0.0000762 0.0010034 -0.0002565 -0.0025696 0.0000759 -0.0014922 -0.0000349 -0.0019541 0.0000921 -0.0053468 -0.0000748 -0.0020772 -0.0000735 -0.0011432 0.0000051 -0.0053928 -0.0000306 -0.0018967 0.0001367 -0.0007148 0.0000151 -0.0013723 0.0000477 -0.0009619 0.0000303 -0.0009701 -0.0005090 -0.0099929 0.0000775 -0.0041560 -0.0004369 -0.0045602 0.0000641 -0.0013967 -0.0000139 -0.0014774 0.0002768 -0.0035716 -0.0000234 -0.0010032 0.0001112 -0.0007959 -0.0001435 -0.0012480 -0.0000340 -0.0087125 0.0004048 0.0003047 0.0000953 -0.0015999 0.0002112 -0.0012115 -0.0001382 -0.0012480 -0.0001410 -0.0028227 -0.0003386 -0.0020065 -0.0001398 -0.0019960 -0.0002320 -0.0022316 0.0003098 0.0003643 -0.0000100 -0.0012303 0.0000704 -0.0007561 0.0004221 -0.0002167 0.0000342 -0.0013723
0.0000921 -0.0000620 -0.0000045 -0.0000645 0.0001733 0.0000781 0.0003219 0.0007272 0.0000663 -0.0001267 0.0000064 0.0002663 0.0001513 0.0018281 0.0000749 0.0012305 0.0002139 0.0004636 0.0000395 -0.0001375 0.0000905 0.0000686 0.0000711 -0.0000984 0.0013713 0.0031861 0.0003849 0.0005857 0.0001771 0.0015456 0.0000546 0.0000133 0.0000645 -0.0001256 0.0001173 0.0008473 0.0001903 0.0005178 0.0000702 0.0002392 0.0000284 0.0001344 0.0001346 0.0005232 0.0002464 0.0002643 -0.0001836 -0.0022804 -0.0010289 -0.0021832 -0.0000956 -0.0010107 0.0001214 0.0003232 0.0000069 -0.0014507 -0.0000356 0.0000770 -0.0063794 0.0016673 -0.0005758 -0.0080829 0.0095212 -0.0123475 0.0007292 0.0019255 -0.0004427 0.0017972 -0.0001534 0.0012235 -0.0002932 -0.0021222 0.0001035 -0.0011661 -0.0000486 -0.0015685 0.0000838 -0.0050099 -0.0000842 -0.0015934 -0.0000674 -0.0007385 -0.0000103 -0.0048149 -0.0000364 -0.0015444 0.0001217 -0.0005321 0.0000091 -0.0012298 0.0000331 -0.0007894 -0.0000211 -0.0007377 -0.0004122 -0.0092897 0.0000865 -0.0037893 -0.0003055 -0.0028340 0.0000641 -0.0012457 -0.0000144 -0.0013721 0.0002763 -0.0033132 -0.0000364 -0.0008644 0.0001072 -0.0007897 -0.0001409 -0.0012086 0.0000112 -0.0084668 0.0003465 -0.0000132 0.0000898 -0.0014285 0.0002379 -0.0011144 -0.0001710 -0.0012233 -0.0001568 -0.0028801 -0.0003455 -0.0019665 -0.0001471 -0.0019553 -0.0002545 -0.0022006 0.0003728 0.0004289 -0.0000487 -0.0012509 0.0000559 -0.0007457 0.0004230 -0.0001423 0.0000406 -0.0013834
0.0000912 -0.0001110 -0.0000154 -0.0000695 0.0002043 0.0001605 0.0003172 0.0005831 0.0000388 -0.0002071 0.0000109 0.0002001 0.0001770 0.0016607 0.0000832 0.0009732 0.0002203 0.0003999 0.0000238 -0.0001791 0.0001217 0.0000892 0.0000317 -0.0001344 0.0014095 0.0031060 0.0003719 0.0001688 0.0001894 0.0015460 0.0000415 -0.0000698 0.0000570 -0.0000689 0.0001030 0.0006715 0.0001875 0.0005032 0.0000824 0.0003252 0.0000288 0.0001450 0.0001343 0.0004136 0.0002330 0.0001710 -0.0001302 -0.0022356 -0.0009819 -0.0021021 -0.0001253 -0.0008754 0.0002273 0.0002832 -0.0001552 -0.0010838 -0.0000398 0.0001061 -0.0111450 0.0173784 0.0082922 -0.0168430 0.0148847 -0.0323476 0.0006553 0.0020351 0.0154660 -0.0399607 -0.0000416 0.0012679 -0.0002975 -0.0022731 0.0000827 -0.0012746 -0.0000161 -0.0013467 0.0000808 -0.0045933 -0.0000911 -0.0016805 -0.0000529 -0.0008150 0.0000049 -0.0042980 -0.0000197 -0.0015666 0.0001193 -0.0005964 0.0000147 -0.0012593 0.0000328 -0.0007952 -0.0000381 -0.0007808 -0.0002831 -0.0083174 0.0001032 -0.0034228 -0.0001952 -0.0018210 0.0000740 -0.0012022 -0.0000122 -0.0014018 0.0002867 -0.0030422 -0.0000234 -0.0008322 0.0001100 -0.0008548 -0.0001473 -0.0012481 0.0000773 -0.0080051 0.0003013 -0.0003090 0.0000805 -0.0014317 0.0002279 -0.0009893 -0.0001764 -0.0012592 -0.0001456 -0.0028272 -0.0003486 -0.0019534 -0.0001656 -0.0020068 -0.0002575 -0.0021636 0.0004566 0.0005996 -0.0000453 -0.0012672 0.0000658 -0.0007430 0.0004329 -0.0001780 0.0000440 -0.0014499
0.0000927 -0.0001289 -0.0000175 -0.0000658 0.0001917 0.0000937 0.0002984 0.0004058 0.0000157 -0.0002703 0.0000038 0.0001300 0.0001863 0.0013721 0.0000299 0.0006422 0.0001693 0.0003348 0.0000251 -0.0002145 0.0001294 0.0000799 0.0000597 -0.0002038 0.0013696 0.0028595 0.0003324 -0.0003170 0.0001629 0.0013227 0.0000391 -0.0001916 0.0000653 -0.0000580 0.0000891 0.0004220 0.0001904 0.0004506 0.0000912 0.0003478 0.0000359 0.0001216 0.0001219 0.0002452 0.0002157 0.0000225 -0.0001735 -0.0021152 -0.0007268 -0.0021064 -0.0002288 -0.0006983 0.0002674 0.0002733 -0.0000848 -0.0009281 0.0000899 0.0001185 -0.0142200 0.0266915 0.0007719 0.0073704 0.0074334 -0.0121568 0.0006482 0.0020586 0.0302597 -0.0706711 0.0000119 0.0012215 -0.0002952 -0.0025418 0.0000513 -0.0014637 0.0000098 -0.0011549 0.0001036 -0.0039428 -0.0000841 -0.0017478 -0.0000533 -0.0009330 0.0000381 -0.0036190 0.0000005 -0.0016324 0.0001166 -0.0005909 0.0000072 -0.0012699 0.0000436 -0.0007798 -0.0000436 -0.0008591 -0.0001450 -0.0069837 0.0001120 -0.0029300 -0.0001319 -0.0014732 0.0000694 -0.0009955 -0.0000230 -0.0012698 0.0002908 -0.0026056 -0.0000060 -0.0005831 0.0001061 -0.0006478 -0.0001457 -0.0010503 0.0001406 -0.0070362 0.0002859 -0.0001976 0.0000810 -0.0012525 0.0002224 -0.0008084 -0.0001686 -0.0011575 -0.0001714 -0.0026283 -0.0003557 -0.0018534 -0.0001813 -0.0018336 -0.0002721 -0.0020296 0.0004592 0.0007389 -0.0000443 -0.0012064 0.0000534 -0.0006608 0.0004311 -0.0000847 -0.0000024 -0.0013341
0.0000935 -0.0001677 -0.0000133 -0.0000657 0.0001793 0.0000421 0.0002579 0.0002153 0.0000484 -0.0003782 -0.0000003 0.0000523 0.0001815 0.0011148 0.0000242 0.0003673 0.0001636 0.0002462 0.0000496 -0.0002817 0.0001153 0.0000799 0.0000614 -0.0002122 0.0013502 0.0026896 0.0003209 -0.0006423 0.0001428 0.0011675 0.0000461 -0.0002977 0.0000723 -0.0000808 0.0000923 0.0002209 0.0001846 0.0003595 0.0000895 0.0003284 0.0000360 0.0000869 0.0001101 0.0001530 0.0001708 -0.0001653 -0.0001434 -0.0019633 -0.0004221 -0.0021879 -0.0002030 -0.0006223 0.0003172 0.0002659 -0.0001902 -0.0006571 0.0000819 0.0002100 -0.0093969 0.0118158 -0.0041553 0.0130536 -0.0014744 0.0074799 0.0007710 0.0019087 0.0173283 -0.0386976 0.0000764 0.0011347 -0.0003025 -0.0026751 0.0000509 -0.0014806 -0.0000087 -0.0012232 0.0001709 -0.0033123 -0.0000725 -0.0018854 -0.0000608 -0.0009769 0.0000828 -0.0029179 0.0000054 -0.0016077 0.0001119 -0.0006449 -0.0000006 -0.0012517 0.0000446 -0.0008009 -0.0000632 -0.0008474 -0.0000088 -0.0057933 0.0001299 -0.0025802 -0.0000317 -0.0005896 0.0000695 -0.0009688 -0.0000155 -0.0012850 0.0003038 -0.0023510 0.0000154 -0.0005563 0.0001053 -0.0006952 -0.0001297 -0.0010399 0.0001807 -0.0064229 0.0002718 -0.0002953 0.0001558 -0.0013799 0.0001749 -0.0009427 -0.0002574 -0.0014512 -0.0002018 -0.0026433 -0.0003795 -0.0019474 -0.0001788 -0.0017625 -0.0003731 -0.0022904 0.0004458 0.0010581 -0.0000877 -0.0012603 0.0000671 -0.0006889 0.0004578 0.0000634 -0.0000162 -0.0013428
0.0000913 -0.0001591 -0.0000082 -0.0000706 0.0001807 0.0000252 0.0002482 0.0000695 0.0000901 -0.0004491 -0.0000027 0.0000122 0.0001672 0.0009610 0.0000066 0.0002032 0.0001888 0.0001806 0.0000794 -0.0003277 0.0001145 0.0000844 0.0000959 -0.0001539 0.0013192 0.0025752 0.0003227 -0.0007453 0.0001253 0.0010251 0.0000630 -0.0003371 0.0000770 -0.0000954 0.0000886 0.0001183 0.0001694 0.0002903 0.0000965 0.0002945 0.0000349 0.0000332 0.0000994 0.0000373 0.0001494 -0.0002564 -0.0000600 -0.0018987 -0.0005243 -0.0016677 -0.0000900 -0.0007696 0.0002151 0.0003643 -0.0002048 -0.0005639 -0.0000212 0.0003089 0.0041170 -0.0027240 0.0108813 -0.0132535 -0.0035169 0.0115172 0.0007413 0.0018908 -0.0037230 0.0007977 0.0000838 0.0011372 -0.0003050 -0.0028391 0.0000694 -0.0015211 -0.0000650 -0.0015171 0.0002654 -0.0029291 -0.0000576 -0.0020502 -0.0000540 -0.0010250 0.0001239 -0.0023289 0.0000076 -0.0016791 0.0001087 -0.0007383 -0.0000023 -0.0012632 0.0000238 -0.0009002 -0.0000603 -0.0008309 0.0001853 -0.0043349 0.0001501 -0.0023189 0.0001934 0.0013523 0.0000785 -0.0010089 -0.0000115 -0.0013193 0.0003217 -0.0021394 0.0000351 -0.0005686 0.0001064 -0.0008055 -0.0001256 -0.0011005 0.0002541 -0.0057190 0.0002627 -0.0003789 0.0002208 -0.0014295 0.0001338 -0.0010840 -0.0003699 -0.0016552 -0.0001604 -0.0025200 -0.0003664 -0.0017183 -0.0001819 -0.0013698 -0.0004242 -0.0021455 0.0004559 0.0012526 -0.0001131 -0.0010179 0.0000526 -0.0004271 0.0004660 0.0004095 0.0000023 -0.0010796
0.0001021 -0.0001135 -0.0000099 -0.0000934 0.0001967 0.0000478 0.0002740 0.0000177 0.0001049 -0.0004507 -0.0000011 -0.0000043 0.0001803 0.0009156 -0.0000208 0.0002100 0.0002047 0.0001969 0.0000946 -0.0003386 0.0001225 0.0000670 0.0001448 -0.0001681 0.0012861 0.0025419 0.0003582 -0.0005992 0.0001271 0.0009598 0.0000988 -0.0002799 0.0000963 -0.0000994 0.0000912 0.0000616 0.0001626 0.0002317 0.0001156 0.0003272 0.0000388 -0.0000135 0.0000972 -0.0000463 0.0001707 -0.0001636 -0.0000683 -0.0017929 -0.0005574 -0.0010388 -0.0000597 -0.0007776 0.0000705 0.0004061 -0.0000355 -0.0006657 0.0000046 0.0003001 0.0024229 0.0051517 0.0111111 -0.0145660 0.0057787 -0.0103989 0.0006535 0.0019007 -0.0128049 0.0171210 0.0000231 0.0012112 -0.0002965 -0.0023762 0.0000851 -0.0010778 -0.0001011 -0.0014055 0.0003601 -0.0022850 -0.0000482 -0.0017037 -0.0000663 -0.0006970 0.0001475 -0.0014813 0.0000011 -0.0013636 0.0001015 -0.0005812 -0.0000024 -0.0010688 -0.0000034 -0.0008308 -0.0000415 -0.0005596 0.0003837 -0.0026730 0.0001626 -0.0018308 0.0004873 0.0035016 0.0000707 -0.0008563 -0.0000240 -0.0012214 0.0003272 -0.0017770 0.0000373 -0.0004627 0.0001025 -0.0007970 -0.0001331 -0.0011004 0.0003499 -0.0048475 0.0002436 -0.0003987 0.0002308 -0.0012913 0.0001329 -0.0011334 -0.0003762 -0.0015692 -0.0000747 -0.0022983 -0.0003026 -0.0013991 -0.0001541 -0.0012679 -0.0003246 -0.0016188 0.0004236 0.0009119 -0.0000543 -0.0007919 0.0000225 -0.0003732 0.0004525 0.0003927 0.0000249 -0.0009629
0.0001205 -0.0001276 -0.0000178 -0.0001249 0.0002108 0.0001144 0.0002551 0.0000840 0.0000916 -0.0004780 0.0000026 0.0000070 0.0002106 0.0010082 0.0000421 0.0004190 0.0002279 0.0002711 0.0001091 -0.0004065 0.0001378 0.0000402 0.0001352 -0.0002143 0.0012822 0.0026193 0.0004252 -0.0002351 0.0001791 0.0011443 0.0001383 -0.0001959 0.0001075 -0.0000824 0.0001107 0.0000519 0.0001708 0.0002091 0.0001458 0.0003749 0.0000488 -0.0000430 0.0001140 0.0000482 0.0001984 -0.0000866 -0.0000910 -0.0017707 -0.0002435 -0.0007511 -0.0000593 -0.0008236 0.0001835 0.0001574 -0.0001926 -0.0006251 -0.0000060 0.0002026 0.0014346 0.0041698 0.0052617 0.0026534 0.0222841 -0.0423422 0.0006337 0.0018602 -0.0044349 0.0125197 0.0000749 0.0012262 -0.0002901 -0.0024752 0.0000685 -0.0010756 -0.0001244 -0.0014371 0.0003932 -0.0017647 -0.0000456 -0.0017208 -0.0000729 -0.0007664 0.0001630 -0.0010298 0.0000032 -0.0013240 0.0000994 -0.0005806 -0.0000000 -0.0010300 -0.0000082 -0.0008717 -0.0000293 -0.0004948 0.0004616 -0.0018644 0.0001658 -0.0016091 0.0006133 0.0042902 0.0000655 -0.0008525 -0.0000319 -0.0012746 0.0003221 -0.0015742 0.0000313 -0.0005106 0.0001007 -0.0008719 -0.0001387 -0.0011708 0.0003898 -0.0043519 0.0002216 -0.0004852 0.0002512 -0.0012029 0.0001222 -0.0011585 -0.0003669 -0.0015336 -0.0000652 -0.0022587 -0.0003012 -0.0012799 -0.0001437 -0.0013296 -0.0002767 -0.0014486 0.0004529 0.0008959 -0.0000376 -0.0007523 0.0000457 -0.0003866 0.0004387 0.0003129 -0.0000132 -0.0009591
0.0001196 -0.0002275 -0.0000162 -0.0001630 0.0002157 0.0001410 0.0002607 0.0001938 0.0001148 -0.0006015 0.0000260 -0.0000125 0.0002844 0.0011226 0.0001184 0.0008086 0.0002558 0.0003497 0.0001342 -0.0005838 0.0001499 -0.0000002 0.0001259 -0.0003313 0.0013306 0.0028159 0.0005053 0.0001439 0.0002464 0.0014267 0.0001671 -0.0002385 0.0001163 -0.0001157 0.0001413 0.0001158 0.0001997 0.0001981 0.0001599 0.0003108 0.0000462 -0.0001031 0.0001543 0.0002368 0.0002156 0.0000219 -0.0000691 -0.0016661 -0.0002240 -0.0006747 -0.0001569 -0.0007624 0.0001057 0.0002285 -0.0000556 -0.0006872 -0.0000861 0.0001638 0.0007095 0.0100071 0.0150843 -0.0127074 0.0193856 -0.0227390 0.0006522 0.0019133 0.0033770 0.0028824 0.0001637 0.0012121 -0.0002961 -0.0026188 0.0000518 -0.0012317 -0.0001305 -0.0012422 0.0003778 -0.0013818 -0.0000381 -0.0015066 -0.0000803 -0.0007203 0.0001671 -0.0007604 0.0000056 -0.0012573 0.0001015 -0.0004438 -0.0000099 -0.0009533 -0.0000110 -0.0008061 -0.0000496 -0.0004653 0.0004595 -0.0014982 0.0001490 -0.0013558 0.0005484 0.0037338 0.0000477 -0.0006421 -0.0000462 -0.0011327 0.0003204 -0.0012980 0.0000166 -0.0002896 0.0000979 -0.0006842 -0.0001458 -0.0010154 0.0004117 -0.0037493 0.0002087 -0.0002700 0.0002372 -0.0008189 0.0001067 -0.0009555 -0.0003669 -0.0012679 -0.0001140 -0.0020090 -0.0003346 -0.0011051 -0.0001581 -0.0011206 -0.0002542 -0.0012394 0.0004820 0.0010410 -0.0000358 -0.0006603 0.0000586 -0.0003131 0.0004216 0.0003475 -0.0000336 -0.0008900
0.0001136 -0.0003652 -0.0000120 -0.0001795 0.0002182 0.0001241 0.0003213 0.0003376 0.0001581 -0.0007642 0.0000389 -0.0000365 0.0003334 0.0012303 0.0002166 0.0010958 0.0002991 0.0003806 0.0001173 -0.0006746 0.0001580 -0.0000631 0.0001294 -0.0004129 0.0013771 0.0029885 0.0005481 0.0003173 0.0002498 0.0014350 0.0001842 -0.0003572 0.0001075 -0.0002016 0.0001628 0.0002429 0.0002201 0.0001377 0.0001398 0.0001365 0.0000407 -0.0001930 0.0001762 0.0003159 0.0002262 0.0001147 0.0000351 -0.0015707 -0.0003017 -0.0005391 -0.0000485 -0.0007941 0.0001115 0.0002063 0.0002412 -0.0008065 0.0000096 0.0001015 0.0064557 -0.0076043 0.0241475 -0.0471271 0.0168638 -0.0217098 0.0006964 0.0018533 0.0007303 0.0051008 0.0001098 0.0011517 -0.0002956 -0.0026607 0.0000417 -0.0012730 -0.0001411 -0.0012812 0.0003676 -0.0011940 -0.0000436 -0.0016356 -0.0000963 -0.0007142 0.0001667 -0.0005979 0.0000067 -0.0012164 0.0000796 -0.0005258 -0.0000192 -0.0008936 -0.0000142 -0.0008131 -0.0000754 -0.0004588 0.0004946 -0.0011201 0.0001443 -0.0012297 0.0006792 0.0046133 0.0000418 -0.0005661 -0.0000338 -0.0011014 0.0003378 -0.0011550 0.0000264 -0.0002145 0.0000965 -0.0007244 -0.0001283 -0.0010434 0.0004101 -0.0034856 0.0002159 -0.0002553 0.0002574 -0.0007619 0.0001037 -0.0009735 -0.0003858 -0.0013093 -0.0001462 -0.0021416 -0.0003444 -0.0011950 -0.0001576 -0.0011381 -0.0002583 -0.0012312 0.0004537 0.0009452 -0.0000274 -0.0006759 0.0000334 -0.0003552 0.0004399 0.0003655 -0.0000160 -0.0009026
0.0001119 -0.0004132 -0.0000017 -0.0001924 0.0002159 0.0000364 0.0003832 0.0004191 0.0001683 -0.0008388 0.0000356 -0.0000597 0.0003514 0.0012756 0.0002927 0.0011568 0.0002967 0.0003774 0.0001160 -0.0007291 0.0001500 -0.0001848 0.0001392 -0.0004606 0.0013540 0.0029739 0.0005678 0.0004546 0.0002390 0.0014283 0.0001796 -0.0004039 0.0001017 -0.0002765 0.0001663 0.0002973 0.0002198 0.0001094 0.0001158 0.0000443 0.0000494 -0.0002172 0.0001779 0.0003515 0.0002432 0.0001598 0.0000886 -0.0015374 -0.0004825 -0.0003009 0.0000755 -0.0008416 0.0001621 0.0000887 0.0002055 -0.0007858 0.0000430 0.0001158 0.0040713 -0.0037111 0.0193131 -0.0353470 0.0040382 -0.0096470 0.0007770 0.0019565 -0.0142660 0.0174396 0.0001326 0.0011404 -0.0002998 -0.0027477 0.0000526 -0.0013043 -0.0001863 -0.0016090 0.0003878 -0.0012224 -0.0000472 -0.0018131 -0.0000913 -0.0007454 0.0001674 -0.0004483 0.0000010 -0.0012215 0.0000510 -0.0006534 -0.0000236 -0.0008901 -0.0000150 -0.0008822 -0.0000807 -0.0004487 0.0006092 -0.0002453 0.0001431 -0.0011373 0.0008658 0.0058123 0.0000348 -0.0005647 -0.0000232 -0.0011300 0.0003474 -0.0010650 0.0000460 -0.0002455 0.0000958 -0.0008204 -0.0001207 -0.0011379 0.0004288 -0.0030385 0.0002045 -0.0003835 0.0003069 -0.0007549 0.0000818 -0.0010070 -0.0003976 -0.0014057 -0.0001229 -0.0022631 -0.0003594 -0.0011402 -0.0001773 -0.0010732 -0.0002527 -0.0010689 0.0004985 0.0010516 -0.0000234 -0.0005242 0.0000205 -0.0001685 0.0004439 0.0005491 -0.0000262 -0.0007058
0.0001111 -0.0003372 0.0000103 -0.0001776 0.0002313 0.0000858 0.0004386 0.0005619 0.0001703 -0.0008392 0.0000359 -0.0000660 0.0003829 0.0013632 0.0003276 0.0012660 0.0002775 0.0003868 0.0001531 -0.0007670 0.0001407 -0.0002639 0.0001072 -0.0004738 0.0013879 0.0031827 0.0006441 0.0008104 0.0002906 0.0018568 0.0001869 -0.0003829 0.0001057 -0.0002860 0.0001849 0.0004287 0.0002171 0.0001452 0.0001174 0.0000067 0.0000613 -0.0001830 0.0002151 0.0005990 0.0002572 0.0002664 0.0000856 -0.0015348 -0.0004835 -0.0012827 -0.0000035 -0.0007752 0.0002810 -0.0000325 0.0001629 -0.0008070 0.0000066 0.0000835 -0.0133716 0.0254401 0.0100340 -0.0139356 0.0046522 -0.0041951 0.0008112 0.0019685 -0.0117798 0.0098477 0.0001674 0.0009980 -0.0003049 -0.0022181 0.0000517 -0.0009292 -0.0001821 -0.0011755 0.0003885 -0.0008250 -0.0000484 -0.0010274 -0.0000926 -0.0002532 0.0001624 0.0000679 -0.0000139 -0.0007282 0.0000530 -0.0002765 -0.0000349 -0.0006204 -0.0000203 -0.0006494 -0.0000902 -0.0001377 0.0006914 0.0009273 0.0001343 -0.0006040 0.0008135 0.0053064 0.0000107 -0.0002852 -0.0000600 -0.0009498 0.0003401 -0.0007633 0.0000217 -0.0000898 0.0000914 -0.0007092 -0.0001410 -0.0010900 0.0004829 -0.0022838 0.0001862 -0.0003753 0.0003216 -0.0006570 0.0000529 -0.0008802 -0.0003673 -0.0012629 -0.0000765 -0.0021184 -0.0003310 -0.0010697 -0.0001663 -0.0011611 -0.0002050 -0.0008252 0.0005266 0.0010907 0.0000219 -0.0003986 0.0000243 -0.0001586 0.0003998 0.0004390 -0.0000186 -0.0006917
0.0001153 -0.0004459 0.0000093 -0.0001978 0.0002529 0.0000964 0.0004791 0.0006669 0.0001828 -0.0009290 0.0000499 -0.0001072 0.0004145 0.0013774 0.0004135 0.0012348 0.0003175 0.0002625 0.0001683 -0.0008632 0.0001437 -0.0003400 0.0001122 -0.0005492 0.0014151 0.0033108 0.0007044 0.0009397 0.0003229 0.0020853 0.0002081 -0.0004622 0.0001012 -0.0003466 0.0002109 0.0005385 0.0002345 0.0001660 0.0001160 -0.0001165 0.0000711 -0.0001883 0.0002493 0.0008160 0.0002652 0.0003269 0.0000914 -0.0016468 -0.0003248 -0.0025263 0.0000695 -0.0008560 0.0003249 -0.0001507 0.0000370 -0.0008003 0.0000395 -0.0000079 0.0022814 0.0020038 -0.0023679 0.0081061 -0.0043652 0.0084997 0.0008114 0.0019625 0.0017064 -0.0051898 0.0001698 0.0009802 -0.0002836 -0.0022895 0.0000116 -0.0010027 -0.0001463 -0.0011119 0.0003602 -0.0005962 -0.0000488 -0.0010348 -0.0001050 -0.0003561 0.0001732 0.0001693 -0.0000070 -0.0006713 0.0000622 -0.0003005 -0.0000350 -0.0005750 -0.0000267 -0.0006979 -0.0000736 -0.0001092 0.0006984 0.0012671 0.0001386 -0.0004337 0.0007433 0.0047573 0.0000065 -0.0002580 -0.0000882 -0.0009893 0.0003248 -0.0006271 0.0000057 -0.0001734 0.0000803 -0.0007515 -0.0001541 -0.0011485 0.0005090 -0.0019641 0.0001965 -0.0003707 0.0003176 -0.0007190 0.0000496 -0.0008392 -0.0002988 -0.0011858 -0.0000654 -0.0022023 -0.0002709 -0.0011626 -0.0001342 -0.0013142 -0.0001658 -0.0007832 0.0004753 0.0009298 0.0000562 -0.0003586 0.0000323 -0.0001984 0.0003560 0.0002634 0.0000075 -0.0007500
0.0001208 -0.0003205 0.0000202 -0.0001962 0.0002712 0.0001764 0.0004786 0.0007585 0.0002349 -0.0009354 0.0000647 -0.0001273 0.0004054 0.0014738 0.0004226 0.0012481 0.0003335 0.0002037 0.0001746 -0.0008997 0.0001605 -0.0003791 0.0001663 -0.0006132 0.0014232 0.0034086 0.0007421 0.0010132 0.0003508 0.0022456 0.0002167 -0.0005010 0.0000931 -0.0003914 0.0002269 0.0006239 0.0002319 0.0001877 0.0001052 -0.0001589 0.0000649 -0.0002121 0.0002467 0.0008855 0.0002530 0.0003264 0.0000769 -0.0016737 -0.0004601 -0.0024465 0.0001404 -0.0009705 0.0002266 -0.0000955 -0.0000257 -0.0008839 0.0000624 -0.0000887 0.0037357 0.0063558 -0.0029530 0.0086000 0.0016453 0.0028657 0.0008654 0.0018597 0.0025080 -0.0066526 0.0002223 0.0008822 -0.0002508 -0.0024218 -0.0000158 -0.0011225 -0.0001160 -0.0011633 0.0003319 -0.0005284 -0.0000436 -0.0012090 -0.0001087 -0.0005714 0.0001794 0.0001119 -0.0000014 -0.0007488 0.0000668 -0.0004091 -0.0000279 -0.0006100 -0.0000276 -0.0007973 -0.0000334 -0.0001629 0.0006961 0.0013881 0.0001324 -0.0004122 0.0007034 0.0044188 -0.0000030 -0.0002333 -0.0001018 -0.0009874 0.0003061 -0.0005193 0.0000038 -0.0001943 0.0000684 -0.0006607 -0.0001695 -0.0010934 0.0005464 -0.0014066 0.0001719 -0.0003284 0.0002992 -0.0006258 0.0000445 -0.0007710 -0.0002753 -0.0010169 -0.0000488 -0.0020418 -0.0002597 -0.0010071 -0.0001324 -0.0010260 -0.0001284 -0.0005804 0.0004411 0.0010052 0.0000684 -0.0001104 0.0000184 0.0001008 0.0003182 0.0002853 -0.0000004 -0.0005014
0.0001326 -0.0003629 0.0000384 -0.0002428 0.0002947 0.0002065 0.0004746 0.0007547 0.0003010 -0.0010480 0.0000750 -0.0001704 0.0003944 0.0015424 0.0004161 0.0011892 0.0003451 0.0001424 0.0001994 -0.0010042 0.0001825 -0.0004220 0.0002325 -0.0007183 0.0014425 0.0035432 0.0007647 0.0010411 0.0003718 0.0023880 0.0002467 -0.0005711 0.0001050 -0.0004536 0.0002409 0.0007222 0.0002563 0.0001698 0.0001229 -0.0002241 0.0000624 -0.0002464 0.0002622 0.0009999 0.0002589 0.0003431 -0.0000186 -0.0016672 -0.0005780 -0.0026728 0.0001077 -0.0009889 0.0002888 -0.0001511 0.0002167 -0.0011639 0.0002287 -0.0002908 -0.0160196 0.0265633 0.0019526 0.0020134 0.0077327 -0.0057969 0.0008053 0.0018574 -0.0017642 0.0062644 0.0002581 0.0008440 -0.0001990 -0.0020648 -0.0000279 -0.0008554 -0.0000488 -0.0008458 0.0002895 -0.0002368 -0.0000580 -0.0011115 -0.0001184 -0.0004702 0.0001832 0.0002698 -0.0000139 -0.0005469 0.0000691 -0.0003654 -0.0000267 -0.0004928 -0.0000313 -0.0007529 0.0000008 -0.0000405 0.0007072 0.0018247 0.0001291 -0.0001955 0.0006653 0.0040525 -0.0000090 -0.0001780 -0.0001078 -0.0009798 0.0003016 -0.0003977 -0.0000198 -0.0002201 0.0000624 -0.0006632 -0.0001786 -0.0011293 0.0005999 -0.0008975 0.0001530 -0.0003645 0.0003171 -0.0008005 0.0000492 -0.0007638 -0.0002977 -0.0010158 -0.0000357 -0.0019471 -0.0002193 -0.0010431 -0.0001057 -0.0010510 -0.0000965 -0.0005338 0.0003569 0.0008237 0.0001003 -0.0000324 0.0000120 0.0001091 0.0002855 0.0001706 0.0000043 -0.0003707
