-0.0000000 -0.0000000 -0.0000000 -0.0000000 -0.0000000 -0.0000000 -0.0000000 -0.0000000 -0.0000000 -0.0000000 -0.0000000 -0.0000000 -0.0000000 -0.0000000 -0.0000000 -0.0000000 -0.0000000 -0.0000000 -0.0000000 -0.0000000 -0.0000000 -0.0000000 -0.0000000 -0.0000000 -0.0000000 -0.0000000 -0.0000000 -0.0000000 -0.0000000 -0.0000000 -0.0000000 -0.0000000 -0.0000000 -0.0000000 -0.0000000 -0.0000000 -0.0000000 -0.0000000 -0.0000000 -0.0000000 -0.0000000 -0.0000000 -0.0000000 -0.0000000 -0.0000000 -0.0000000 -0.0000000 -0.0000000 -0.0000000 -0.0000000 -0.0000000 -0.0000000 -0.0000000 -0.0000000 -0.0000000 -0.0000000 -0.0000000 -0.0000000 -0.0000000 -0.0000000 -0.0000000 -0.0000000 -0.0000000 -0.0000000 -0.0000000 -0.0000000 -0.0000000 -0.0000000 -0.0000000 -0.0000000 -0.0000000 -0.0000000 -0.0000000 -0.0000000 -0.0000000 -0.0000000 -0.0000000 -0.0000000 -0.0000000 -0.0000000 -0.0000000 -0.0000000 -0.0000000 -0.0000000 -0.0000000 -0.0000000 -0.0000000 -0.0000000 -0.0000000 -0.0000000 -0.0000000 -0.0000000 -0.0000000 -0.0000000 -0.0000000 -0.0000000 -0.0000000 -0.0000000 -0.0000000 -0.0000000 -0.0000000 -0.0000000 -0.0000000 -0.0000000 -0.0000000 -0.0000000 -0.0000000 -0.0000000 -0.0000000 -0.0000000 -0.0000000 -0.0000000 -0.0000000 -0.0000000 -0.0000000 -0.0000000 -0.0000000 -0.0000000 -0.0000000 -0.0000000 -0.0000000 -0.0000000 -0.0000000 -0.0000000 -0.0000000 -0.0000000 -0.0000000 -0.0000000 -0.0000000 -0.0000000 -0.0000000 -0.0000000 -0.0000000 -0.0000000 -0.0000000 -0.0000000 -0.0000000 -0.0000000 -0.0000000 -0.0000000 -0.0000000 -0.0000000 -0.0000000 -0.0000000 -0.0000000 -0.0000000 -0.0000000 -0.0000000 -0.0000000 -0.0000000 -0.0000000 -0.0000000 -0.0000000 -0.0000000 -0.0000000 -0.0000000 -0.0000000 -0.0000000 -0.0000000 -0.0000000 -0.0000000 -0.0000000 -0.0000000 -0.0000000 -0.0000000 -0.0000000 -0.0000000 -0.0000000 -0.0000000 -0.0000000 -0.0000000 -0.0000000 -0.0000000 -0.0000000 -0.0000000 -0.0000000 -0.0000000 -0.0000000 -0.0000000 -0.0000000 -0.0000000 -0.0000000 -0.0000000 -0.0000000 -0.0000000 -0.0000000 -0.0000000 -0.0000000 -0.0000000 -0.0000000 -0.0000000 -0.0000000 -0.0000000 -0.0000000 -0.0000000 -0.0000000 -0.0000000 -0.0000000 -0.0000000 -0.0000000 -0.0000000 -0.0000000 -0.0000000 -0.0000000 -0.0000000 -0.0000000 -0.0000000 -0.0000000 -0.0000000 -0.0000000 -0.0000000 -0.0000000 -0.0000000 -0.0000000 -0.0000000 -0.0000000
-0.0000000 -0.0000000 -0.0000000 -0.0000000 -0.0000000 -0.0000000 -0.0000000 -0.0000000 -0.0000000 -0.0000000 -0.0000000 -0.0000000 -0.0000000 -0.0000000 -0.0000000 -0.0000000 -0.0000000 -0.0000000 -0.0000000 -0.0000000 -0.0000000 -0.0000000 -0.0000000 -0.0000000 -0.0000000 -0.0000000 -0.0000000 -0.0000000 -0.0000000 -0.0000000 -0.0000000 -0.0000000 -0.0000000 -0.0000000 -0.0000000 -0.0000000 -0.0000000 -0.0000000 -0.0000000 -0.0000000 -0.0000000 -0.0000000 -0.0000000 -0.0000000 -0.0000000 -0.0000000 -0.0000000 -0.0000000 -0.0000000 -0.0000000 -0.0000000 -0.0000000 -0.0000000 -0.0000000 -0.0000000 -0.0000000 -0.0000000 -0.0000000 -0.0000000 -0.0000000 -0.0000000 -0.0000000 -0.0000000 -0.0000000 -0.0000000 -0.0000000 -0.0000000 -0.0000000 -0.0000000 -0.0000000 -0.0000000 -0.0000000 -0.0000000 -0.0000000 -0.0000000 -0.0000000 -0.0000000 -0.0000000 -0.0000000 -0.0000000 -0.0000000 -0.0000000 -0.0000000 -0.0000000 -0.0000000 -0.0000000 -0.0000000 -0.0000000 -0.0000000 -0.0000000 -0.0000000 -0.0000000 -0.0000000 -0.0000000 -0.0000000 -0.0000000 -0.0000000 -0.0000000 -0.0000000 -0.0000000 -0.0000000 -0.0000000 -0.0000000 -0.0000000 -0.0000000 -0.0000000 -0.0000000 -0.0000000 -0.0000000 -0.0000000 -0.0000000 -0.0000000 -0.0000000 -0.0000000 -0.0000000 -0.0000000 -0.0000000 -0.0000000 -0.0000000 -0.0000000 -0.0000000 -0.0000000 -0.0000000 -0.0000000 -0.0000000 -0.0000000 -0.0000000 -0.0000000 -0.0000000 -0.0000000 -0.0000000 -0.0000000 -0.0000000 -0.0000000 -0.0000000 -0.0000000 -0.0000000 -0.0000000 -0.0000000 -0.0000000 -0.0000000 -0.0000000 -0.0000000 -0.0000000 -0.0000000 -0.0000000 -0.0000000 -0.0000000 -0.0000000 -0.0000000 -0.0000000 -0.0000000 -0.0000000 -0.0000000 -0.0000000 -0.0000000 -0.0000000 -0.0000000 -0.0000000 -0.0000000 -0.0000000 -0.0000000 -0.0000000 -0.0000000 -0.0000000 -0.0000000 -0.0000000 -0.0000000 -0.0000000 -0.0000000 -0.0000000 -0.0000000 -0.0000000 -0.0000000 -0.0000000 -0.0000000 -0.0000000 -0.0000000 -0.0000000 -0.0000000 -0.0000000 -0.0000000 -0.0000000 -0.0000000 -0.0000000 -0.0000000 -0.0000000 -0.0000000 -0.0000000 -0.0000000 -0.0000000 -0.0000000 -0.0000000 -0.0000000 -0.0000000 -0.0000000 -0.0000000 -0.0000000 -0.0000000 -0.0000000 -0.0000000 -0.0000000 -0.0000000 -0.0000000 -0.0000000 -0.0000000 -0.0000000 -0.0000000 -0.0000000 -0.0000000 -0.0000000 -0.0000000 -0.0000000 -0.0000000 -0.0000000 -0.0000000
-0.0000411 0.0000921 -0.0002196 0.0001525 0.0001701 -0.0001290 0.0000068 0.0000271 0.0000047 0.0000349 0.0000345 -0.0000226 0.0000109 -0.0000367 0.0000132 -0.0000057 -0.0000158 -0.0000153 -0.0000013 -0.0000197 -0.0000646 0.0000382 0.0000125 -0.0000300 -0.0000686 0.0000382 0.0000028 -0.0000080 -0.0000060 -0.0000160 0.0000063 -0.0000033 -0.0000075 -0.0000295 0.0000148 -0.0000441 0.0000111 -0.0000331 0.0000124 0.0000051 0.0000031 -0.0000359 0.0000096 -0.0000343 -0.0000622 -0.0000671 0.0000051 0.0000140 0.0000078 0.0000097 0.0000170 0.0000070 0.0000044 0.0000459 0.0000024 0.0000205 0.0000169 0.0000290 0.0000069 -0.0000134 0.0000040 0.0000008 -0.0000189 -0.0000848 0.0000002 -0.0000239 0.0000094 -0.0000303 0.0000140 -0.0000385 0.0000718 -0.0000237 0.0000202 -0.0000239 0.0000005 0.0000082 0.0000013 -0.0000265 0.0000052 -0.0000245 -0.0000039 -0.0000436 -0.0000131 -0.0000313 -0.0000051 -0.0000002 0.0000868 -0.0001690 -0.0000915 -0.0000114 -0.0000033 -0.0000251 -0.0000306 -0.0000265 0.0000464 -0.0000807 0.0000244 -0.0000531 0.0004604 -0.0004049 -0.0000602 0.0000564 0.0000087 -0.0000713 -0.0000146 -0.0000051 -0.0000022 0.0000186 0.0000013 0.0000419 0.0000253 -0.0000502 -0.0000117 -0.0000067 -0.0000356 -0.0000412 0.0000101 -0.0000477 0.0000057 -0.0000417 -0.0000133 -0.0000446 0.0000121 -0.0000777 0.0000029 -0.0000235 -0.0000084 -0.0000173 -0.0000071 -0.0000467 0.0000259 -0.0000754 -0.0019974 0.0017887 -0.0000137 -0.0000321 -0.0004892 0.0002187 0.0001969 -0.0001012 0.0000171 -0.0001233 0.0000116 -0.0001422 0.0000196 -0.0001010 0.0000507 -0.0001447 -0.0000284 -0.0000388 0.0000665 -0.0002490 -0.0000030 -0.0000497 -0.0001125 0.0000260 0.0000054 -0.0001359 0.0000201 -0.0000963 0.0000151 -0.0001795 0.0000783 -0.0001536 0.0000057 -0.0001613 0.0000085 -0.0000973 0.0001831 -0.0003355 0.0000260 -0.0001168 0.0000019 -0.0001368 -0.0000328 -0.0001295 -0.0000195 -0.0002874 0.0000043 -0.0002076 -0.0000074 -0.0001455 0.0000931 -0.0002986 0.0000222 -0.0002380 -0.0000125 -0.0002070 -0.0000276 -0.0001334 -0.0000803 -0.0000685 0.0000866 -0.0002395 -0.0000022 -0.0001022 -0.0000005 -0.0001051 0.0000009 -0.0000847 0.0002338 -0.0003888 0.0000332 -0.0001005 -0.0001319 -0.0000450 0.0000967 -0.0002001 -0.0001213 0.0000841 0.0000428 -0.0000613 0.0000142 -0.0000308 0.0000120 -0.0000314
-0.0000400 0.0000459 -0.0000554 0.0001049 -0.0002343 0.0001460 0.0000069 0.0000554 0.0000100 0.0000483 0.0000443 0.0000282 0.0000222 -0.0000285 0.0000271 0.0000440 0.0000216 -0.0000017 -0.0000161 -0.0000153 0.0000516 -0.0001136 0.0000127 -0.0000413 -0.0000320 -0.0000127 -0.0000014 0.0000116 -0.0000110 -0.0000348 0.0000138 0.0000189 0.0000015 -0.0000821 -0.0000163 -0.0000352 0.0000235 -0.0000308 0.0000222 -0.0000139 0.0000037 -0.0000481 -0.0000144 -0.0000256 0.0000143 -0.0001496 0.0000134 0.0000890 0.0000043 0.0000513 0.0000350 0.0000527 0.0000184 0.0001064 -0.0000031 0.0001141 0.0000269 0.0001070 0.0000247 0.0000374 0.0000086 0.0001130 -0.0001013 0.0000782 -0.0000024 -0.0000189 0.0000068 0.0000194 -0.0000086 -0.0000121 0.0001044 0.0000430 -0.0000010 0.0000184 -0.0000441 0.0000458 0.0000185 0.0000263 0.0000086 0.0000212 -0.0000214 -0.0000215 0.0000049 -0.0000142 0.0000052 0.0000443 0.0001458 -0.0000644 -0.0000051 0.0000350 0.0000337 0.0000103 -0.0001178 0.0000399 -0.0001115 0.0000853 -0.0000004 0.0000351 -0.0000080 -0.0001238 -0.0000036 0.0000367 0.0000811 -0.0000526 -0.0000340 0.0000495 0.0000114 0.0000657 0.0000057 0.0001173 0.0000205 0.0000697 -0.0000128 0.0001006 -0.0000148 0.0000488 -0.0000034 0.0000811 -0.0000072 0.0000398 0.0000005 -0.0000269 0.0000098 -0.0000173 0.0000146 -0.0000236 -0.0000062 0.0000845 -0.0000110 0.0000533 0.0000235 0.0000329 -0.0013629 0.0012519 -0.0000270 0.0000690 -0.0005358 0.0003552 0.0002949 -0.0002955 -0.0000042 -0.0000471 0.0000061 -0.0000257 -0.0000054 0.0000404 0.0001092 -0.0001005 0.0000012 -0.0000466 0.0000280 -0.0000986 -0.0000113 -0.0000304 -0.0002000 0.0001420 0.0000039 -0.0000481 -0.0000640 0.0001087 0.0000115 -0.0000689 0.0001042 -0.0001618 0.0000180 -0.0000912 0.0000005 -0.0000507 -0.0000372 -0.0000699 -0.0000168 -0.0000520 -0.0001447 0.0000238 -0.0001199 0.0000062 0.0000032 -0.0001681 -0.0000034 -0.0001125 0.0000058 -0.0000839 0.0000920 -0.0002979 0.0001099 -0.0001378 -0.0001283 -0.0000152 -0.0000202 -0.0000487 -0.0000738 0.0000416 -0.0000203 -0.0001288 -0.0000096 -0.0000391 0.0000005 -0.0000483 0.0000129 -0.0000137 -0.0000189 0.0000362 0.0000005 0.0000104 0.0001817 -0.0002454 -0.0001330 0.0001373 0.0000163 -0.0000371 0.0000333 -0.0000133 -0.0000012 0.0000101 0.0000042 0.0000061
0.0000613 -0.0000137 -0.0000683 0.0002490 -0.0002558 0.0003137 0.0000057 0.0001301 0.0000206 0.0001059 0.0000047 0.0001677 -0.0000300 0.0001670 0.0000530 0.0001194 0.0000478 0.0000203 -0.0000182 -0.0000158 0.0000196 -0.0001098 0.0000139 -0.0000318 -0.0000764 0.0000220 -0.0000036 0.0001017 -0.0000073 -0.0000080 0.0000088 0.0000993 0.0000009 -0.0000549 -0.0000294 0.0000297 0.0000070 0.0000626 0.0000417 0.0000390 0.0000074 -0.0000356 -0.0000199 0.0000041 0.0001290 -0.0001104 0.0000086 0.0001536 -0.0000021 0.0001014 0.0000262 0.0001163 0.0000397 0.0001582 -0.0000121 0.0001362 0.0000359 0.0001328 0.0000245 0.0000510 -0.0000024 0.0001201 0.0000321 -0.0000414 0.0000063 -0.0000404 0.0000043 0.0000078 -0.0000323 -0.0000225 0.0001099 0.0000628 0.0000765 -0.0000443 -0.0000310 -0.0000147 0.0000211 -0.0000527 0.0000353 -0.0000675 0.0000342 -0.0001273 0.0000803 -0.0001251 0.0000338 -0.0000182 0.0001746 -0.0001563 -0.0000791 0.0000973 0.0000930 -0.0001524 0.0000036 -0.0000884 -0.0000683 -0.0000181 -0.0000877 -0.0001705 -0.0007470 0.0001960 0.0000018 -0.0000204 0.0001689 -0.0000697 -0.0000100 -0.0001097 -0.0000003 0.0000416 0.0000341 0.0000423 0.0000408 -0.0001307 -0.0000420 -0.0000471 -0.0000137 -0.0001729 0.0000139 -0.0001327 0.0000020 -0.0000828 -0.0000011 -0.0001576 -0.0000179 -0.0000984 0.0000232 -0.0000671 0.0000379 -0.0000124 -0.0000207 -0.0000797 0.0000125 -0.0001025 -0.0005703 0.0005077 0.0000030 -0.0001095 0.0007571 -0.0009185 0.0001071 -0.0004904 -0.0000124 -0.0001876 0.0000584 -0.0001835 0.0000980 -0.0002859 0.0000738 -0.0002263 0.0001007 -0.0001798 -0.0000686 -0.0001678 0.0000059 -0.0001276 -0.0002315 0.0000625 0.0000162 -0.0000867 -0.0000624 0.0000926 0.0000060 -0.0000985 -0.0001002 -0.0000279 0.0000024 -0.0000869 -0.0000032 -0.0000906 -0.0002232 -0.0000732 0.0000020 -0.0001472 -0.0001459 -0.0000007 -0.0001332 -0.0000605 -0.0001086 -0.0001164 0.0000019 -0.0001013 0.0000083 -0.0001016 0.0003627 -0.0004256 0.0001100 -0.0001504 -0.0000269 -0.0000081 -0.0000192 -0.0000219 0.0000287 -0.0000864 -0.0000130 -0.0000597 0.0000054 -0.0000637 0.0000199 -0.0000754 0.0000843 -0.0000534 -0.0001622 0.0003056 0.0000282 0.0000371 0.0003098 -0.0003136 -0.0000903 0.0001263 -0.0003064 0.0001740 0.0000049 0.0000362 -0.0000031 0.0000103 0.0000284 -0.0000204
0.0001536 -0.0000268 -0.0001107 0.0003576 0.0000359 0.0000463 0.0000123 0.0001498 0.0000223 0.0001239 0.0000209 0.0002496 -0.0000346 0.0002205 0.0000630 0.0001740 0.0001039 0.0000191 0.0000272 -0.0000528 0.0000126 -0.0001367 -0.0000005 -0.0000332 -0.0000531 0.0000086 0.0000077 0.0001219 -0.0000208 -0.0000091 0.0000073 0.0000883 -0.0000115 -0.0000394 -0.0000212 0.0000247 0.0000043 0.0000852 0.0000485 0.0000469 0.0000133 -0.0000366 -0.0000406 0.0000031 0.0001669 -0.0000239 -0.0000081 0.0002251 -0.0000008 0.0000939 0.0000099 0.0001639 0.0000292 0.0002371 0.0000076 0.0001697 0.0000432 0.0001914 0.0000176 0.0001215 -0.0000176 0.0002261 0.0000489 -0.0000746 0.0000029 -0.0000571 0.0000051 0.0000524 0.0000210 -0.0000722 0.0000950 0.0000966 -0.0000294 0.0001178 -0.0000307 0.0000367 0.0000180 0.0000141 0.0000382 -0.0000133 0.0000593 -0.0001267 0.0000784 -0.0000958 0.0000406 0.0000199 0.0003287 -0.0002164 0.0000836 -0.0000319 -0.0000131 -0.0000290 0.0002274 -0.0002432 0.0000153 -0.0000406 0.0004936 -0.0005448 -0.0002464 -0.0000373 0.0000409 0.0000111 -0.0000844 0.0001440 0.0000336 -0.0001500 -0.0000144 0.0000783 0.0000267 0.0001012 0.0000080 -0.0000315 -0.0000117 -0.0000108 0.0001038 -0.0002451 0.0000315 -0.0000956 0.0000090 -0.0000259 -0.0000074 -0.0001322 0.0000474 -0.0001186 0.0000238 -0.0000511 0.0000657 0.0000318 0.0000035 -0.0000357 0.0000290 -0.0000493 -0.0000125 -0.0002481 0.0000429 -0.0001004 0.0008521 -0.0009440 -0.0005663 0.0002396 -0.0000104 -0.0001615 0.0000448 -0.0001364 0.0002519 -0.0003541 0.0000189 -0.0001333 0.0000947 -0.0001710 -0.0000790 -0.0001340 -0.0000056 -0.0001274 -0.0002255 0.0000313 0.0000015 -0.0000423 -0.0000375 0.0001154 -0.0000014 -0.0000366 -0.0000687 0.0001149 0.0000082 -0.0000335 -0.0000020 -0.0000529 -0.0001356 -0.0001310 -0.0000114 -0.0001248 -0.0001549 0.0000351 0.0001135 -0.0002594 -0.0001048 -0.0000179 0.0000097 -0.0000726 0.0000031 -0.0000566 0.0001642 -0.0001808 0.0000558 -0.0001435 0.0000514 -0.0000222 -0.0000076 0.0000276 -0.0000402 -0.0000455 -0.0000187 0.0000629 0.0000011 -0.0000394 0.0000347 -0.0000556 0.0000297 -0.0000021 -0.0004678 0.0006191 0.0000496 0.0000479 -0.0000050 -0.0000088 -0.0000924 0.0001337 -0.0000535 0.0000037 -0.0000267 0.0000876 -0.0000012 0.0000198 0.0000575 -0.0000947
-0.0000944 0.0002858 0.0003621 0.0000375 -0.0001904 0.0002481 0.0000057 0.0001770 0.0000103 0.0001612 0.0000149 0.0003083 0.0000782 0.0002037 0.0000652 0.0001984 0.0001146 0.0000497 0.0000597 -0.0000890 0.0001973 -0.0002053 -0.0000080 -0.0000327 0.0000232 -0.0000432 0.0000098 0.0001139 -0.0000147 -0.0000335 0.0000126 0.0000141 -0.0000126 -0.0000775 0.0000038 -0.0000353 0.0000007 -0.0000045 0.0000635 -0.0000491 0.0000325 -0.0000987 -0.0000329 -0.0000316 -0.0000001 0.0000250 -0.0000070 0.0000896 0.0000103 0.0000309 0.0000256 0.0001492 0.0000094 0.0001906 0.0000245 0.0000491 0.0000516 0.0001419 0.0000088 0.0000279 -0.0000339 0.0001673 -0.0001036 -0.0000421 0.0000260 -0.0001309 0.0000338 -0.0000270 0.0000469 -0.0001000 -0.0000383 0.0001316 0.0000083 0.0000843 -0.0000061 0.0000830 0.0000045 0.0000144 0.0000316 -0.0000257 0.0000326 -0.0000606 0.0000792 -0.0001302 0.0000064 0.0000634 0.0003480 -0.0001234 0.0001206 -0.0000671 -0.0000381 0.0000062 0.0003610 -0.0004284 -0.0000445 0.0000113 0.0006345 -0.0006829 0.0000945 -0.0002674 0.0000728 -0.0000616 -0.0001084 0.0000731 0.0000442 -0.0001315 -0.0000099 0.0000754 0.0000000 0.0001216 0.0000009 0.0000051 0.0000204 0.0000009 0.0001655 -0.0003073 0.0000448 -0.0001082 0.0000201 0.0000032 -0.0000009 -0.0001516 -0.0000536 -0.0000215 0.0000459 -0.0000509 0.0000780 0.0000511 0.0000129 -0.0000121 0.0000465 -0.0000254 0.0006322 -0.0002731 0.0000200 -0.0000807 0.0005303 -0.0007673 -0.0000534 -0.0000629 0.0000096 -0.0001209 0.0000083 -0.0000729 0.0001566 -0.0002671 0.0000426 -0.0001313 0.0000440 -0.0001233 0.0001490 -0.0002770 0.0000056 -0.0001571 -0.0000121 -0.0001603 0.0000334 -0.0000490 -0.0000473 0.0002168 0.0000099 0.0000014 0.0001137 0.0000565 0.0000232 0.0000012 0.0000141 -0.0000421 -0.0002455 -0.0000088 0.0000028 -0.0001429 -0.0000492 -0.0000840 0.0002061 -0.0002175 -0.0002765 0.0001526 0.0000287 -0.0000629 0.0000311 -0.0000589 0.0001513 -0.0001873 0.0001055 -0.0002105 -0.0000137 0.0000010 0.0000142 0.0000378 -0.0000908 0.0000731 -0.0002828 0.0002702 -0.0000082 -0.0000148 0.0000016 0.0000086 0.0000252 0.0000907 -0.0001496 0.0004207 0.0000445 0.0001157 0.0000918 0.0000793 0.0000641 0.0000783 0.0000117 0.0000375 -0.0000403 0.0001986 -0.0000154 0.0000638 0.0000626 -0.0000589
-0.0001544 0.0003154 0.0001062 0.0002009 0.0000127 0.0002753 0.0000003 0.0001938 0.0000090 0.0001691 -0.0000031 0.0003838 0.0000466 0.0003189 0.0000723 0.0002647 0.0001104 0.0001357 0.0000421 -0.0000469 0.0002262 -0.0002189 0.0000220 -0.0000173 0.0000728 -0.0000882 -0.0000017 0.0001928 0.0000143 -0.0000166 0.0000091 0.0000292 -0.0000124 -0.0000293 0.0000142 0.0000436 -0.0000007 0.0000297 0.0000271 0.0000905 0.0000348 -0.0000381 -0.0000247 -0.0000258 -0.0000071 -0.0001148 -0.0000107 0.0000887 0.0000030 0.0000583 0.0000259 0.0001777 0.0000417 0.0001475 0.0000108 0.0000725 0.0000623 0.0001525 -0.0000016 0.0000758 -0.0000299 0.0001880 -0.0001230 0.0000310 0.0000455 -0.0001434 0.0000432 0.0000055 0.0000052 -0.0000024 0.0000334 0.0000198 0.0000873 0.0000442 0.0000392 0.0000516 0.0000051 0.0000638 0.0000283 0.0000014 0.0000488 0.0000070 0.0000262 -0.0000544 0.0000325 0.0000754 0.0001916 -0.0000404 -0.0001138 0.0001329 0.0000167 0.0000358 0.0000963 -0.0002123 0.0002391 -0.0001624 0.0001905 -0.0002312 -0.0010091 0.0007903 0.0000798 -0.0000643 -0.0000946 0.0001531 0.0000315 -0.0000406 -0.0000199 0.0000523 -0.0000121 0.0001236 -0.0000044 0.0000470 -0.0000154 0.0000431 0.0001333 -0.0002113 0.0000359 -0.0001001 0.0000072 0.0000522 -0.0000038 -0.0001507 -0.0000989 0.0000574 0.0000286 -0.0000332 0.0000660 0.0001051 -0.0000015 -0.0000001 0.0000403 0.0000025 0.0001541 0.0004844 -0.0000176 -0.0000625 -0.0001973 0.0001418 0.0002674 -0.0003568 0.0000440 -0.0001324 0.0000356 -0.0000688 0.0000274 -0.0002107 0.0000249 -0.0001009 -0.0000351 -0.0000969 0.0003177 -0.0003761 0.0000165 -0.0001740 0.0000401 -0.0003096 0.0000404 -0.0000442 0.0000131 0.0002142 0.0000151 -0.0000014 0.0002703 -0.0000977 0.0000401 -0.0000040 0.0000332 -0.0000491 0.0000077 -0.0001354 0.0000468 -0.0001807 0.0000506 -0.0001766 -0.0000412 0.0000072 -0.0001760 -0.0000816 0.0000325 -0.0000708 0.0000305 -0.0000557 0.0002153 -0.0002766 0.0003260 -0.0003686 -0.0001480 0.0000466 0.0000086 0.0000117 0.0000081 -0.0000219 -0.0003492 0.0003235 -0.0000216 0.0000038 -0.0000278 0.0000304 0.0000490 0.0000951 0.0003766 -0.0000106 0.0000262 0.0001238 0.0000146 0.0000806 0.0000267 -0.0000001 -0.0002762 0.0001585 -0.0000125 0.0000391 -0.0000013 -0.0000602 0.0001270 -0.0002972
-0.0000604 0.0001559 -0.0003892 0.0005571 0.0002161 -0.0000259 0.0000217 0.0000483 0.0000125 0.0000406 -0.0000202 0.0002557 0.0000415 0.0001922 0.0000821 0.0001890 0.0001112 0.0000837 0.0000363 -0.0002675 0.0000539 -0.0003455 0.0000294 -0.0002763 0.0000716 -0.0003815 0.0000003 0.0000866 0.0000399 -0.0001690 0.0000118 -0.0001081 0.0000115 -0.0001152 0.0000168 -0.0000082 -0.0000031 -0.0000710 0.0000158 0.0000569 0.0000388 -0.0000728 -0.0000259 -0.0000767 0.0002119 -0.0003353 0.0000012 0.0000047 0.0000189 0.0000273 -0.0000205 0.0000429 0.0000632 0.0000756 -0.0000004 0.0000529 0.0001791 0.0002201 -0.0000025 0.0000621 0.0000602 0.0002830 0.0000834 -0.0001812 0.0000406 -0.0002228 0.0000173 0.0000058 0.0000174 0.0000195 0.0000092 -0.0000153 0.0000646 0.0001668 0.0000975 0.0001884 -0.0000136 0.0000957 0.0000477 -0.0000136 0.0000868 0.0000523 -0.0000055 -0.0000291 0.0000671 0.0000143 0.0004786 -0.0003728 -0.0001774 0.0000981 0.0000633 0.0000038 0.0002093 -0.0000766 0.0003318 -0.0001532 0.0001088 -0.0001177 0.0001651 -0.0002591 0.0000153 0.0000107 -0.0000475 0.0002277 0.0000041 0.0001791 -0.0000754 -0.0001440 -0.0000234 0.0000349 0.0000176 0.0000907 0.0000352 -0.0000223 0.0001168 -0.0001376 0.0000323 -0.0000584 0.0000003 0.0000999 0.0000427 -0.0001948 -0.0002111 0.0001643 0.0000335 0.0000071 0.0000345 0.0000889 0.0000185 -0.0000036 0.0000231 0.0000445 0.0008004 -0.0003433 -0.0000067 -0.0000230 -0.0003243 0.0002133 0.0000663 -0.0003455 0.0000770 -0.0001435 0.0000954 -0.0000293 -0.0000026 -0.0001941 0.0000621 -0.0000913 0.0000058 -0.0001978 0.0000228 -0.0001576 0.0000390 -0.0001501 -0.0000810 -0.0001970 0.0000285 0.0000463 0.0001028 0.0002998 0.0000016 0.0000761 0.0000588 0.0001780 0.0000307 0.0000795 0.0000250 0.0000249 0.0000562 -0.0001624 0.0000449 -0.0001395 -0.0000882 -0.0000372 -0.0003028 0.0002257 0.0000327 -0.0001954 0.0000291 0.0000031 0.0000249 -0.0000132 0.0000104 -0.0000172 0.0003817 -0.0002279 -0.0001588 0.0001074 0.0000206 0.0000375 0.0000592 -0.0000116 -0.0001541 0.0001944 -0.0000533 0.0000704 -0.0000231 0.0000752 0.0000210 0.0002283 0.0005045 0.0001575 0.0000898 0.0001420 -0.0001122 0.0001651 -0.0002005 0.0002008 -0.0003632 0.0002890 0.0000446 0.0000519 -0.0000224 0.0000501 0.0001648 -0.0002163
0.0000438 0.0001512 -0.0005794 0.0007976 -0.0001131 0.0002625 0.0000144 0.0000613 0.0000104 -0.0000239 -0.0000437 0.0002736 0.0000826 0.0002744 0.0000699 0.0002027 0.0001172 0.0000744 0.0000175 -0.0002196 0.0000046 -0.0002686 0.0000035 -0.0001793 0.0001222 -0.0004444 -0.0000078 0.0001600 0.0000083 -0.0001559 0.0000072 -0.0000828 0.0000012 -0.0000753 -0.0000040 0.0001259 -0.0000169 -0.0000317 0.0000027 0.0001532 0.0000273 0.0000417 -0.0000165 -0.0000292 0.0004842 -0.0004421 0.0000001 -0.0000358 0.0000221 0.0000735 -0.0000229 -0.0000323 0.0000505 0.0001785 -0.0000063 0.0000900 0.0002463 0.0004261 -0.0000317 0.0001173 0.0001236 0.0004219 0.0001830 -0.0002342 0.0000181 -0.0002249 -0.0000282 0.0000752 0.0000192 0.0000260 0.0000078 0.0000781 0.0001569 0.0001713 0.0000161 0.0001058 -0.0000537 0.0001852 0.0000439 -0.0000135 -0.0000089 0.0000616 -0.0000111 0.0000213 0.0000582 0.0000456 0.0002654 -0.0000676 -0.0001556 0.0001350 0.0000445 0.0000927 0.0000165 -0.0000466 -0.0001536 0.0000230 0.0002104 -0.0003212 0.0009882 -0.0008390 -0.0000151 0.0001898 -0.0000630 0.0001957 0.0000020 0.0001524 -0.0001554 -0.0003134 0.0000024 -0.0000412 0.0000450 0.0001511 0.0001154 0.0001702 0.0000148 0.0000202 0.0000467 -0.0000319 -0.0000040 0.0001435 0.0000435 -0.0001634 -0.0001809 0.0002419 0.0000074 -0.0000167 0.0000658 0.0001755 0.0000456 -0.0000277 0.0000227 0.0000705 -0.0001513 -0.0001347 0.0000209 -0.0000536 -0.0006609 0.0008739 -0.0001329 -0.0003162 0.0000492 -0.0002088 0.0001079 -0.0000940 0.0000088 -0.0002938 0.0000361 -0.0001897 0.0000550 -0.0001902 -0.0001110 -0.0002308 0.0000528 -0.0001713 -0.0000298 -0.0002013 0.0000527 -0.0000955 0.0000576 0.0000967 0.0000218 -0.0001427 0.0002447 -0.0000685 0.0000401 0.0000050 0.0000286 -0.0000018 -0.0001549 -0.0002889 0.0000400 -0.0002468 -0.0000447 -0.0001240 -0.0002863 -0.0001087 0.0002564 -0.0006919 0.0000428 -0.0002920 0.0000411 -0.0001948 0.0000500 -0.0002813 0.0002566 -0.0003061 -0.0000340 -0.0003071 0.0000459 -0.0001822 0.0001705 -0.0002928 0.0000277 -0.0001193 -0.0000595 -0.0000797 0.0000170 -0.0001382 0.0000225 0.0001269 0.0001070 0.0008930 0.0000171 0.0000216 0.0003555 -0.0004138 -0.0003172 0.0000625 -0.0005953 0.0003503 0.0000569 -0.0001004 -0.0000083 -0.0000666 0.0000503 -0.0002461
-0.0000495 0.0001052 -0.0001628 0.0002454 -0.0004334 0.0005402 0.0000150 -0.0000282 0.0000225 -0.0001155 0.0000056 0.0002500 0.0001505 0.0002625 0.0001118 0.0002837 0.0002311 0.0002300 0.0000717 -0.0001961 0.0000934 -0.0003108 0.0000273 -0.0001802 0.0001498 -0.0003891 -0.0000145 0.0001384 -0.0000333 -0.0001053 0.0000246 -0.0001930 -0.0000208 -0.0000479 0.0000347 0.0001665 0.0000001 -0.0001157 0.0000053 0.0000800 0.0000025 0.0000354 0.0000077 -0.0000970 0.0002775 -0.0003815 0.0000295 -0.0000527 0.0000076 -0.0000587 0.0000193 -0.0003274 0.0000268 0.0001226 0.0000154 0.0001246 0.0000634 0.0001824 -0.0000211 0.0002339 0.0000925 0.0002564 -0.0000427 0.0000136 0.0000347 -0.0002658 -0.0000353 0.0000654 -0.0000682 -0.0000899 0.0002029 0.0000449 0.0001348 -0.0001669 -0.0001626 -0.0003612 -0.0000380 0.0002393 0.0000399 -0.0000212 -0.0000972 -0.0001022 0.0000257 0.0000993 0.0000565 0.0001102 -0.0002281 0.0005191 0.0000114 0.0000530 0.0001055 0.0001849 -0.0002919 -0.0000707 -0.0003644 -0.0001346 0.0001038 -0.0002312 0.0009670 -0.0005415 0.0000235 0.0002552 -0.0002420 0.0002916 0.0000258 -0.0000755 -0.0001638 -0.0002642 0.0000425 0.0000483 0.0000634 0.0002423 0.0001495 0.0004085 -0.0000409 0.0001410 0.0000615 0.0000445 0.0000171 0.0001338 -0.0000214 -0.0000886 -0.0000048 0.0002213 -0.0000578 -0.0000816 0.0000851 0.0004457 0.0000219 0.0000531 0.0000406 0.0002417 -0.0017527 0.0011143 0.0000721 0.0000037 -0.0000379 0.0008026 -0.0004237 0.0000135 0.0000041 -0.0000520 0.0000331 0.0000691 0.0000331 -0.0000775 0.0000128 -0.0000264 -0.0000110 -0.0000670 -0.0000231 -0.0002056 0.0000074 -0.0002025 0.0000542 -0.0002853 0.0000560 0.0000395 -0.0001342 -0.0000089 0.0000078 -0.0000029 -0.0001533 0.0002641 -0.0000013 0.0001734 0.0000255 0.0000149 -0.0000735 -0.0003421 0.0000139 -0.0001872 -0.0000885 -0.0000554 -0.0000958 -0.0001305 0.0002636 -0.0005207 0.0000331 -0.0001307 -0.0000015 -0.0000412 0.0001675 -0.0001124 0.0001330 -0.0001451 -0.0000187 -0.0001204 0.0000217 -0.0000170 0.0001311 -0.0001559 0.0000311 0.0000168 -0.0000880 0.0000320 -0.0000120 -0.0000375 -0.0000087 0.0001964 -0.0004605 0.0012365 -0.0000472 0.0001540 -0.0001221 0.0000217 -0.0001362 -0.0000058 -0.0005655 0.0004905 0.0000692 0.0000240 -0.0000080 -0.0000103 0.0000251 -0.0001062
-0.0000936 0.0002115 0.0000289 0.0001107 -0.0002609 0.0004730 0.0000239 0.0000529 0.0000310 -0.0000229 0.0000029 0.0003405 0.0001342 0.0004327 0.0001164 0.0003805 0.0002230 0.0003662 0.0000858 -0.0000986 -0.0000540 -0.0000958 0.0000357 -0.0000972 0.0000060 -0.0002308 -0.0000160 0.0000827 -0.0000396 -0.0001227 0.0000337 -0.0003005 -0.0000313 -0.0000500 0.0000617 0.0001753 -0.0000053 -0.0001671 -0.0000403 0.0000462 -0.0000156 0.0000002 0.0000424 -0.0001774 0.0001766 -0.0003257 0.0000610 -0.0001624 0.0000066 -0.0001946 0.0000094 -0.0005061 0.0000259 -0.0001354 -0.0000009 0.0000549 -0.0000539 -0.0002808 -0.0000132 0.0002005 0.0000954 -0.0001220 -0.0001083 0.0001064 0.0000862 -0.0003350 -0.0000230 0.0000244 -0.0001088 -0.0000556 0.0002344 -0.0001561 0.0001112 -0.0004438 -0.0000172 -0.0004770 -0.0000000 0.0000581 0.0000914 -0.0001442 -0.0000439 -0.0000907 0.0000905 0.0000249 0.0000748 0.0000224 0.0000268 0.0002600 0.0000891 -0.0001206 0.0001534 0.0000637 -0.0001975 0.0000431 -0.0002778 -0.0000023 0.0007220 -0.0007181 0.0004320 -0.0002754 0.0000751 0.0001078 -0.0002081 0.0001375 0.0000419 -0.0001054 -0.0000854 -0.0002103 0.0000871 0.0000153 0.0000626 -0.0000209 0.0001399 -0.0000460 0.0000495 -0.0001757 0.0001004 -0.0002202 0.0000301 0.0000058 -0.0000009 -0.0001874 0.0001073 -0.0001296 -0.0000321 -0.0000616 0.0000436 0.0002336 0.0000139 -0.0001026 0.0000407 0.0001203 0.0006829 -0.0001918 0.0000411 -0.0001160 0.0006065 -0.0000316 -0.0004109 -0.0003125 0.0000430 -0.0001543 0.0000201 -0.0000059 0.0000554 -0.0001881 0.0000755 -0.0001252 0.0001040 -0.0002333 0.0002110 -0.0004514 0.0000232 -0.0003054 -0.0000593 -0.0002847 0.0000557 0.0000296 -0.0001596 -0.0001214 0.0000217 -0.0000584 -0.0003890 0.0003830 0.0000102 0.0001333 0.0000329 -0.0000652 0.0002204 -0.0006776 0.0000328 -0.0001978 -0.0002552 -0.0000318 0.0000876 -0.0002019 0.0000788 -0.0002540 0.0000385 -0.0000952 -0.0000147 -0.0000346 0.0003387 -0.0000742 0.0001247 -0.0001091 0.0001686 -0.0001500 0.0000271 -0.0000228 0.0001364 -0.0001416 0.0000800 -0.0000321 -0.0000883 0.0000435 -0.0000547 0.0000302 0.0000018 0.0002307 -0.0002953 0.0005380 0.0000587 0.0000744 -0.0003828 0.0004109 -0.0000805 0.0000910 0.0001251 0.0000370 0.0000543 0.0001012 -0.0000283 0.0000577 0.0000533 -0.0000456
0.0000625 0.0000995 -0.0001759 0.0003036 0.0000306 0.0002290 0.0000091 0.0000816 0.0000200 -0.0000292 0.0000357 0.0002436 0.0000760 0.0004862 0.0000999 0.0003318 0.0001148 0.0003468 0.0000754 -0.0000199 -0.0000505 -0.0000648 0.0000275 0.0000302 -0.0000369 -0.0001739 -0.0000143 0.0000865 -0.0000032 -0.0002203 0.0000234 -0.0002717 -0.0000271 -0.0000164 0.0000679 0.0001994 -0.0000085 -0.0001049 -0.0000594 0.0001167 -0.0000031 0.0001234 0.0000478 -0.0001644 0.0003230 -0.0003891 0.0000588 -0.0001452 0.0000015 -0.0001039 -0.0000089 -0.0002457 0.0000165 -0.0000682 -0.0000341 0.0001494 -0.0000441 -0.0001919 -0.0000249 0.0002577 0.0001068 -0.0001236 -0.0000185 0.0002351 0.0000627 -0.0002407 -0.0000364 0.0002110 -0.0000183 0.0000522 0.0001925 -0.0001114 0.0001601 -0.0003204 0.0000048 -0.0002426 0.0000117 0.0000990 0.0001198 -0.0000705 0.0000047 0.0000405 0.0000547 0.0001377 0.0000759 0.0000378 0.0002425 0.0000956 0.0000679 -0.0000879 -0.0000233 0.0002715 -0.0002530 0.0001668 -0.0001901 0.0001230 0.0016211 -0.0013208 0.0001039 0.0000739 0.0001157 0.0001013 -0.0002348 -0.0002452 0.0000250 -0.0001022 -0.0000129 -0.0000931 0.0000961 -0.0000401 0.0000422 -0.0001371 0.0000701 -0.0003464 0.0001833 -0.0003701 0.0001169 -0.0003558 0.0000651 -0.0000362 0.0000488 -0.0001805 0.0000104 -0.0001211 -0.0000216 0.0000105 0.0000104 -0.0000179 0.0000388 -0.0002425 0.0000210 -0.0000110 0.0023336 -0.0014870 -0.0000138 -0.0002078 0.0008104 -0.0009570 -0.0006693 0.0000431 0.0000883 -0.0003216 0.0000205 -0.0001495 -0.0000754 -0.0002561 0.0000828 -0.0002504 0.0001523 -0.0002841 0.0002581 -0.0005097 0.0000186 -0.0003455 -0.0000525 -0.0003697 0.0000454 -0.0001173 -0.0000641 -0.0003542 0.0000470 -0.0002887 -0.0002552 0.0001959 0.0000468 -0.0000044 0.0000160 -0.0001049 0.0002839 -0.0007686 0.0000512 -0.0002886 -0.0000716 -0.0002955 -0.0000744 -0.0002030 0.0002798 -0.0007260 0.0000515 -0.0002948 0.0000002 -0.0001794 0.0003628 -0.0002736 0.0001623 -0.0002493 0.0002277 -0.0003964 0.0000849 -0.0002286 0.0003435 -0.0004457 0.0000838 -0.0002394 -0.0000615 -0.0000776 -0.0000416 -0.0000804 -0.0000314 0.0001231 0.0004758 -0.0004218 0.0000504 -0.0000888 0.0002984 -0.0002835 0.0000979 -0.0001924 0.0001778 -0.0001460 0.0000246 -0.0001484 -0.0000058 -0.0001474 0.0000803 -0.0003701
0.0001996 -0.0001704 0.0000016 0.0000051 -0.0000239 0.0000403 0.0000123 -0.0001094 0.0000174 -0.0001763 0.0001084 -0.0000761 0.0001465 0.0001938 0.0000986 0.0001961 0.0001151 0.0002184 0.0001045 -0.0001587 0.0000347 -0.0002658 0.0000365 -0.0001120 0.0001080 -0.0003864 -0.0000160 -0.0000600 -0.0000137 -0.0003677 0.0000185 -0.0003930 -0.0000000 -0.0001400 0.0000663 0.0000875 0.0000254 -0.0002433 -0.0000039 -0.0001026 0.0000029 0.0000944 0.0000596 -0.0002765 -0.0002197 -0.0000904 0.0000766 -0.0001899 0.0000020 -0.0001172 0.0000254 -0.0002488 0.0000039 -0.0001019 -0.0000335 0.0001259 -0.0000348 -0.0002019 -0.0000046 0.0002180 0.0001217 -0.0001959 0.0000750 0.0002222 0.0000673 -0.0002760 -0.0000513 0.0002636 0.0000160 -0.0000000 0.0001097 -0.0000903 0.0000653 -0.0002319 -0.0001368 -0.0001683 0.0000559 0.0000943 0.0001314 -0.0000628 0.0000363 -0.0000452 0.0000427 0.0001691 0.0000787 0.0000337 0.0000226 0.0003494 0.0001212 -0.0000612 -0.0001249 0.0003960 -0.0000076 0.0000183 0.0000795 -0.0001676 0.0001918 -0.0002918 0.0011397 -0.0007768 0.0000396 0.0001291 -0.0000814 -0.0004515 0.0000075 -0.0001801 0.0000195 -0.0000459 0.0000781 -0.0000554 0.0000380 -0.0000959 0.0000311 -0.0003655 0.0001156 -0.0001811 0.0001045 -0.0002829 0.0000153 0.0000423 0.0000401 -0.0001318 -0.0000336 0.0000367 -0.0000248 0.0000258 -0.0000292 -0.0000180 0.0000430 -0.0002249 0.0000107 0.0000417 0.0013115 -0.0006933 0.0000634 -0.0001996 0.0023468 -0.0022104 -0.0002611 0.0001103 0.0001127 -0.0002629 0.0000724 -0.0000983 -0.0000648 -0.0001654 0.0000563 -0.0000985 0.0000516 -0.0002127 0.0001104 -0.0003442 -0.0000036 -0.0003243 0.0000279 -0.0003522 0.0000304 0.0000243 0.0000029 -0.0002660 0.0000162 -0.0000980 0.0000144 0.0000574 0.0000208 0.0001585 0.0000093 -0.0000089 0.0003912 -0.0006865 0.0000384 -0.0001751 0.0000483 -0.0003187 -0.0000599 -0.0001299 0.0004712 -0.0008626 0.0000705 -0.0002571 -0.0000043 -0.0001224 0.0001414 0.0000200 0.0000221 -0.0000495 0.0001232 -0.0003257 0.0000667 -0.0001946 0.0002858 -0.0003938 0.0002061 -0.0003893 -0.0000675 -0.0000709 0.0000133 -0.0001342 -0.0000638 0.0000611 0.0004653 -0.0005297 -0.0000212 -0.0001405 0.0000117 -0.0002789 0.0001521 -0.0003043 -0.0003469 0.0001767 0.0000468 -0.0003210 0.0000185 -0.0002597 0.0001046 -0.0005348
0.0001531 -0.0002343 -0.0001509 0.0000595 0.0001141 -0.0002991 0.0000345 -0.0002612 0.0000137 -0.0002444 0.0001257 -0.0003286 0.0001387 0.0000350 0.0000828 0.0000449 0.0001427 0.0000086 0.0000743 -0.0002411 -0.0000667 -0.0003031 0.0000521 -0.0002801 0.0000313 -0.0004463 -0.0000095 -0.0002634 -0.0000062 -0.0005963 0.0000333 -0.0005748 0.0000341 -0.0003489 0.0000379 -0.0001399 0.0000637 -0.0005081 0.0000220 -0.0003836 0.0000162 -0.0000628 0.0000453 -0.0004323 -0.0000671 -0.0003955 0.0000972 -0.0003728 0.0000307 -0.0002267 0.0000258 -0.0003430 0.0000502 -0.0003149 -0.0000170 -0.0001153 -0.0000237 -0.0003847 0.0000082 -0.0000349 0.0001415 -0.0005270 0.0001163 0.0000461 0.0001172 -0.0004213 -0.0000460 0.0000849 -0.0000324 -0.0000416 0.0001113 -0.0002121 0.0000408 -0.0003620 -0.0001449 -0.0002572 0.0001071 -0.0001892 0.0001452 -0.0002464 0.0000798 -0.0002549 0.0000983 -0.0000613 0.0000985 -0.0001168 -0.0000945 0.0003170 0.0002480 -0.0003766 -0.0000470 0.0001631 0.0000584 -0.0000276 0.0000274 -0.0003088 -0.0002870 -0.0000842 0.0000262 -0.0000860 -0.0001278 0.0001014 -0.0002216 -0.0002394 -0.0000034 -0.0002962 0.0000379 -0.0001173 0.0000745 -0.0001964 0.0000695 -0.0002311 0.0000629 -0.0005018 0.0000305 -0.0002149 0.0001399 -0.0003659 -0.0000167 0.0000086 0.0000265 -0.0001496 0.0000564 -0.0000709 -0.0000054 -0.0000121 -0.0000314 -0.0001094 0.0000523 -0.0002979 0.0000037 -0.0000113 0.0003428 -0.0000947 0.0001437 -0.0002778 0.0020842 -0.0014839 -0.0001224 -0.0001049 0.0001301 -0.0003313 0.0001336 -0.0001815 0.0000374 -0.0002887 0.0001115 -0.0001331 0.0000177 -0.0002523 0.0001436 -0.0004504 0.0000054 -0.0003403 -0.0001684 -0.0002373 0.0000314 0.0000258 -0.0000346 -0.0001907 0.0000241 -0.0000803 0.0004263 -0.0003934 0.0000301 0.0001289 0.0000141 -0.0000058 0.0002624 -0.0005928 0.0000208 -0.0001173 0.0000214 -0.0003219 0.0001295 -0.0001902 0.0002018 -0.0006023 0.0000709 -0.0002070 0.0000236 -0.0001196 0.0001356 0.0001148 -0.0000167 0.0000718 0.0002083 -0.0003318 0.0000501 -0.0001272 0.0001978 -0.0003054 0.0001081 -0.0002899 -0.0000577 -0.0000607 0.0000170 -0.0001126 -0.0000484 0.0000469 0.0001746 -0.0002474 -0.0000381 -0.0001513 -0.0000689 -0.0001524 -0.0000900 -0.0001109 -0.0002257 0.0000999 0.0000760 -0.0002703 0.0000152 -0.0001998 0.0000810 -0.0003964
0.0000533 -0.0000842 -0.0003698 0.0002770 0.0002093 -0.0003927 0.0000303 -0.0002324 0.0000219 -0.0002181 0.0001520 -0.0003506 0.0001931 -0.0000244 0.0000689 -0.0000050 0.0001236 -0.0000966 0.0000372 -0.0001245 -0.0000977 -0.0002733 0.0000457 -0.0001634 -0.0000343 -0.0003788 -0.0000022 -0.0002722 -0.0000082 -0.0007219 0.0000323 -0.0005445 0.0000541 -0.0003952 0.0000358 -0.0001802 0.0000719 -0.0005004 0.0001150 -0.0004715 0.0000233 -0.0000758 0.0000176 -0.0004805 0.0001364 -0.0004782 0.0000931 -0.0002835 0.0000491 -0.0001923 -0.0000412 -0.0002376 0.0000428 -0.0002777 -0.0000011 -0.0000798 -0.0000287 -0.0003306 0.0000089 -0.0000225 0.0001257 -0.0004615 -0.0001345 0.0003635 0.0001005 -0.0003211 -0.0000355 0.0001290 -0.0000419 0.0000420 0.0002050 -0.0002722 0.0000655 -0.0003430 -0.0001263 -0.0001971 0.0001155 -0.0001921 0.0001355 -0.0001734 0.0000810 -0.0002175 0.0001445 -0.0001129 0.0000791 -0.0001077 -0.0000086 0.0002331 0.0002763 -0.0004739 0.0000195 0.0000724 0.0001772 -0.0001189 -0.0001653 -0.0000727 0.0005574 -0.0005181 -0.0012393 0.0010209 -0.0000836 0.0000002 -0.0004356 -0.0000682 -0.0000163 -0.0003313 0.0000504 -0.0001542 0.0000733 -0.0003313 0.0001644 -0.0004783 0.0001025 -0.0007127 0.0001250 -0.0005279 0.0001685 -0.0005806 0.0000137 -0.0001004 0.0000385 -0.0001711 0.0000552 -0.0002013 -0.0000117 0.0000025 -0.0000481 -0.0002421 0.0000658 -0.0004620 0.0000082 -0.0002126 0.0009427 -0.0006241 0.0001740 -0.0004756 0.0005527 -0.0009396 -0.0000227 -0.0004886 0.0001660 -0.0005627 0.0001604 -0.0004388 0.0000249 -0.0004295 0.0001482 -0.0003864 0.0000910 -0.0003109 0.0001374 -0.0006512 0.0000231 -0.0003664 -0.0002050 -0.0003937 0.0000300 -0.0002274 0.0000006 -0.0004655 0.0000727 -0.0004117 0.0002082 -0.0004824 0.0000619 -0.0000965 0.0000332 -0.0000940 -0.0000012 -0.0006899 0.0000131 -0.0001829 -0.0000538 -0.0003819 0.0004086 -0.0005997 0.0000147 -0.0006043 0.0000594 -0.0003630 0.0000432 -0.0002812 -0.0001079 0.0000410 0.0001785 -0.0002089 0.0003279 -0.0005059 0.0000830 -0.0002747 0.0002499 -0.0005074 -0.0002794 -0.0000667 -0.0000377 -0.0001361 -0.0000339 -0.0001187 -0.0000484 -0.0000542 0.0002471 -0.0001943 0.0000105 -0.0002593 0.0001126 -0.0004786 0.0001311 -0.0003727 0.0001344 -0.0003048 0.0001007 -0.0003209 0.0000137 -0.0002226 0.0000669 -0.0003260
-0.0000431 -0.0000378 -0.0002266 0.0001297 -0.0000665 -0.0000968 0.0000160 -0.0002012 0.0000307 -0.0002328 0.0002023 -0.0004046 0.0002917 -0.0001928 0.0000785 -0.0000620 0.0001523 -0.0002493 0.0000655 -0.0001394 0.0000007 -0.0002878 0.0000511 -0.0001499 0.0000872 -0.0005405 -0.0000030 -0.0003227 -0.0000369 -0.0008361 0.0000401 -0.0005789 0.0000737 -0.0005170 0.0000982 -0.0003808 0.0000685 -0.0005202 0.0001719 -0.0006434 0.0000239 -0.0001347 0.0000305 -0.0005971 0.0000797 -0.0004554 0.0000962 -0.0002254 0.0000457 -0.0001716 -0.0000266 -0.0001995 0.0000265 -0.0002610 0.0000295 -0.0000743 -0.0000310 -0.0002924 0.0000408 -0.0000592 0.0001065 -0.0003907 -0.0001811 0.0004194 0.0000820 -0.0002070 -0.0000390 0.0001627 0.0000150 0.0000217 0.0001201 -0.0002898 0.0001210 -0.0004266 -0.0000700 -0.0002673 0.0001120 -0.0001440 0.0001212 -0.0001103 0.0000233 -0.0001885 0.0001793 -0.0001870 0.0000529 -0.0000822 0.0000792 0.0002064 0.0002716 -0.0004027 -0.0000420 0.0000756 0.0002477 -0.0001683 -0.0001552 0.0000111 -0.0003525 0.0003322 -0.0000908 0.0002095 -0.0000174 -0.0000817 0.0000959 -0.0005463 0.0000133 -0.0003682 0.0000526 -0.0001371 0.0000659 -0.0003585 0.0002032 -0.0004258 0.0000980 -0.0006720 0.0001604 -0.0004840 0.0001235 -0.0004384 0.0000475 -0.0001084 0.0000328 -0.0001008 -0.0000508 -0.0000232 -0.0000160 0.0000555 -0.0000556 -0.0002464 0.0000559 -0.0003914 0.0000355 -0.0002069 -0.0010214 0.0007406 0.0001995 -0.0004266 0.0001012 -0.0003375 0.0005015 -0.0005385 0.0001661 -0.0004920 0.0001964 -0.0003960 0.0000792 -0.0002809 0.0001451 -0.0002848 0.0000775 -0.0001595 0.0002396 -0.0005857 0.0000141 -0.0002592 0.0000095 -0.0004218 0.0000396 -0.0001519 0.0000552 -0.0003924 0.0000647 -0.0002963 0.0000540 -0.0003552 -0.0000014 0.0000065 0.0000497 -0.0000142 0.0000816 -0.0004316 0.0000366 -0.0000334 -0.0000916 -0.0002932 0.0002714 -0.0003408 -0.0000482 -0.0002840 0.0000555 -0.0002366 0.0000209 -0.0001703 -0.0001936 0.0001801 0.0002004 -0.0001712 0.0002071 -0.0002516 0.0000850 -0.0001876 0.0002236 -0.0004022 -0.0002937 -0.0000198 -0.0000524 -0.0000249 -0.0000315 -0.0000426 -0.0000799 -0.0000055 0.0000512 0.0000502 0.0000098 -0.0001411 -0.0000033 -0.0003694 0.0001039 -0.0002120 -0.0000262 -0.0000581 0.0001293 -0.0002728 0.0000031 -0.0001276 0.0000067 -0.0001060
0.0000458 -0.0000562 -0.0001753 0.0001908 -0.0000973 0.0000687 0.0000182 -0.0000933 0.0000279 -0.0001198 0.0002068 -0.0002625 0.0002625 -0.0000880 0.0000645 -0.0000505 0.0001450 -0.0002882 0.0000858 -0.0000529 0.0001140 -0.0002521 0.0000574 -0.0000243 -0.0000342 -0.0003490 0.0000061 -0.0002306 -0.0000599 -0.0008414 0.0000411 -0.0004674 0.0000684 -0.0004872 0.0001105 -0.0003746 0.0000491 -0.0004049 0.0001047 -0.0005201 0.0000144 -0.0001003 0.0000346 -0.0006218 -0.0000790 -0.0004854 0.0000829 -0.0001054 0.0000340 -0.0000866 0.0000030 -0.0001305 0.0000362 -0.0001856 0.0000396 0.0000023 -0.0000169 -0.0002323 0.0000557 -0.0000341 0.0000794 -0.0002712 0.0001060 0.0002179 0.0000716 -0.0000603 -0.0000302 0.0002119 0.0000116 0.0000894 0.0000189 -0.0001943 0.0001273 -0.0004291 -0.0000129 -0.0003493 0.0000903 -0.0001697 0.0001224 -0.0001361 0.0000575 -0.0002518 0.0001689 -0.0002126 0.0000377 -0.0000972 0.0001199 0.0001027 0.0002862 -0.0003837 -0.0000266 -0.0000543 0.0002050 -0.0000571 -0.0001402 -0.0000707 -0.0006283 0.0004200 -0.0005673 0.0006869 -0.0001698 0.0000565 0.0004913 -0.0009177 0.0000138 -0.0003653 0.0000507 -0.0001220 0.0000516 -0.0003272 0.0001741 -0.0003743 0.0000470 -0.0006033 0.0001299 -0.0005371 0.0000973 -0.0003492 0.0000470 -0.0000960 0.0000377 -0.0000475 -0.0000668 0.0000841 -0.0000131 0.0000757 -0.0000445 -0.0002533 0.0000607 -0.0003433 0.0000316 -0.0001917 -0.0012624 0.0008965 0.0001234 -0.0003043 0.0004208 -0.0001663 0.0002582 -0.0002653 0.0001213 -0.0004188 0.0001920 -0.0003590 0.0001820 -0.0003198 0.0001472 -0.0002512 0.0001223 -0.0000540 0.0002134 -0.0002962 0.0000172 -0.0001418 0.0000917 -0.0003135 0.0000314 -0.0001177 0.0000217 -0.0002204 0.0000612 -0.0002386 0.0003532 -0.0005028 -0.0000222 0.0000499 0.0000317 0.0000758 0.0003168 -0.0003258 0.0000612 0.0001037 0.0001344 -0.0003704 0.0001003 -0.0000655 -0.0001204 -0.0001126 0.0000474 -0.0001201 0.0000234 -0.0000697 -0.0001591 0.0002175 0.0000231 0.0001657 0.0001352 -0.0000461 0.0000532 -0.0000657 0.0003566 -0.0003546 -0.0000903 -0.0000982 -0.0000397 0.0000508 -0.0000180 0.0000220 -0.0000789 0.0000705 0.0001683 -0.0002180 -0.0000276 -0.0000328 -0.0002040 0.0000956 -0.0000544 0.0000189 -0.0001324 0.0001751 0.0001781 -0.0002384 0.0000031 -0.0000397 -0.0001153 0.0001082
0.0002852 -0.0001507 -0.0004295 0.0004789 -0.0002996 0.0003026 0.0000367 0.0000070 0.0000321 0.0000080 0.0001626 -0.0000549 0.0002431 0.0001056 0.0000726 -0.0000433 0.0001266 -0.0002563 0.0000602 0.0000621 0.0002562 -0.0003647 0.0000394 0.0000999 0.0000188 -0.0002112 0.0000170 -0.0000976 -0.0000580 -0.0008069 0.0000224 -0.0003269 0.0000805 -0.0004324 0.0000945 -0.0002941 0.0000356 -0.0002696 0.0001053 -0.0003866 0.0000018 -0.0000554 0.0000115 -0.0005801 -0.0001847 -0.0003415 0.0000617 0.0000307 0.0000387 -0.0000171 -0.0000032 -0.0000221 0.0000363 -0.0000518 0.0000294 0.0001590 -0.0000004 -0.0000912 0.0000571 0.0000627 0.0000330 -0.0000280 0.0002778 0.0001812 0.0000636 0.0001373 -0.0000099 0.0002974 -0.0000327 0.0001803 0.0000552 -0.0000713 0.0000971 -0.0002997 -0.0000459 -0.0002630 0.0000765 -0.0000269 0.0000873 -0.0000006 0.0001532 -0.0002763 0.0001286 -0.0000437 0.0000565 -0.0000143 0.0000089 0.0001760 0.0001913 -0.0001701 0.0000192 0.0000047 0.0004563 -0.0001753 -0.0002995 -0.0000120 -0.0006051 0.0005405 -0.0002043 0.0006131 -0.0000348 0.0001113 0.0001566 -0.0006184 0.0000136 -0.0003502 0.0000580 -0.0000659 0.0000285 -0.0001791 0.0001621 -0.0002610 0.0000521 -0.0004974 0.0002312 -0.0005684 0.0000790 -0.0002167 -0.0000061 0.0000409 0.0000326 0.0000824 -0.0000226 0.0002048 -0.0000405 0.0001372 -0.0000161 -0.0002194 0.0000400 -0.0002292 0.0000265 -0.0001195 -0.0002526 0.0002087 0.0000143 -0.0000996 0.0010460 -0.0012690 -0.0003828 0.0001872 0.0001127 -0.0002829 0.0001560 -0.0002399 0.0001192 -0.0001430 0.0000706 -0.0001325 0.0001343 0.0000704 0.0000959 0.0000124 0.0000060 0.0000295 0.0000430 -0.0001267 0.0000250 -0.0000660 -0.0000246 -0.0000315 0.0000756 -0.0001768 0.0005861 -0.0006498 0.0000033 0.0000928 0.0000334 0.0001574 0.0000086 0.0001891 0.0000386 0.0002793 0.0001334 -0.0001505 0.0000882 0.0001287 0.0001011 -0.0001804 0.0000547 -0.0000438 0.0000137 0.0000435 -0.0002336 0.0002758 -0.0000167 0.0003901 0.0000530 0.0000681 0.0000072 0.0000668 0.0003320 -0.0002091 0.0001702 -0.0000683 -0.0000357 0.0001164 -0.0000337 0.0000865 -0.0000781 0.0001567 0.0000638 -0.0003600 0.0000021 0.0000222 -0.0008060 0.0006445 0.0000475 0.0000017 -0.0002247 0.0002878 0.0001281 -0.0001332 -0.0000255 0.0000602 -0.0001690 0.0002203
0.0001559 0.0001375 -0.0007019 0.0008157 -0.0001470 0.0002502 0.0000352 0.0001328 0.0000378 0.0001295 0.0000941 0.0001568 0.0001880 0.0003356 0.0000806 0.0000664 0.0001385 -0.0001796 -0.0000001 0.0002185 0.0001105 -0.0001700 0.0000231 0.0002196 0.0000921 -0.0000602 0.0000150 0.0000764 -0.0000674 -0.0006855 0.0000124 -0.0001788 0.0000750 -0.0003349 0.0001052 -0.0002701 0.0000197 -0.0001503 0.0001102 -0.0002806 -0.0000035 -0.0000297 -0.0000084 -0.0004960 0.0002056 -0.0004568 0.0000436 0.0000650 0.0000478 0.0000101 0.0000350 0.0000097 0.0000278 -0.0000014 0.0000222 0.0001369 -0.0000011 -0.0000376 0.0000526 -0.0000107 -0.0000230 -0.0000065 0.0001047 0.0002510 0.0000427 0.0002728 -0.0000075 0.0002722 -0.0000288 0.0001988 0.0000594 0.0000198 0.0001939 -0.0003091 -0.0000627 -0.0001577 0.0000425 0.0000231 0.0000466 0.0000641 0.0001307 -0.0002092 0.0001319 -0.0000453 0.0000607 0.0000504 0.0000019 0.0000398 0.0002061 -0.0001047 0.0000162 0.0000213 0.0002993 -0.0000475 -0.0003038 -0.0000345 -0.0000576 0.0002088 0.0008069 -0.0001180 0.0001985 -0.0000642 -0.0002480 -0.0001330 0.0000307 -0.0003509 0.0000847 -0.0000393 0.0000232 -0.0000769 0.0001311 -0.0001661 -0.0000032 -0.0003986 0.0001998 -0.0004985 0.0000361 -0.0000926 0.0000408 0.0000583 0.0000260 0.0001794 -0.0000766 0.0003188 -0.0000377 0.0001605 -0.0000074 -0.0001835 -0.0000023 -0.0001485 0.0000289 -0.0001095 -0.0018875 0.0008864 0.0000061 -0.0000044 0.0014354 -0.0013580 -0.0000351 0.0001622 0.0001088 -0.0001873 0.0001728 -0.0001851 0.0000633 0.0000037 0.0000307 -0.0000516 0.0000383 0.0002819 0.0000457 0.0002323 -0.0000081 0.0001721 0.0000482 -0.0000870 0.0000058 0.0000143 -0.0000736 0.0001711 0.0000550 -0.0000787 0.0003514 -0.0003519 0.0000125 0.0001616 0.0000338 0.0002202 -0.0000082 0.0004787 0.0000445 0.0003854 -0.0000692 0.0001295 -0.0001343 0.0004352 0.0003734 -0.0002616 0.0000550 0.0000177 -0.0000225 0.0001538 -0.0000395 0.0003243 0.0000521 0.0004215 -0.0002341 0.0003813 -0.0000106 0.0001554 -0.0000099 0.0001132 0.0002258 0.0000043 -0.0000404 0.0001684 -0.0000547 0.0001489 -0.0000300 0.0001728 -0.0003611 0.0002305 0.0000287 0.0000774 -0.0003194 0.0003829 0.0001283 0.0000605 0.0000019 0.0001929 0.0000580 0.0000058 -0.0000592 0.0001800 -0.0002194 0.0003737
-0.0001932 0.0006051 0.0000984 0.0004021 0.0001015 0.0001368 0.0000260 0.0002490 0.0000291 0.0002316 0.0000397 0.0003669 0.0001858 0.0004809 0.0000573 0.0001947 0.0001374 -0.0000920 -0.0000566 0.0004229 -0.0000325 0.0000630 0.0000058 0.0003653 0.0000838 0.0001893 0.0000178 0.0002461 -0.0000414 -0.0006169 0.0000084 -0.0000405 0.0000612 -0.0002068 0.0000736 -0.0001537 -0.0000182 0.0000143 0.0000715 -0.0000981 0.0000036 0.0000319 0.0000099 -0.0004256 0.0003092 -0.0004343 0.0000125 0.0001736 0.0000452 0.0000813 0.0000374 0.0001428 0.0000406 0.0001275 0.0000060 0.0002670 0.0000032 0.0001367 0.0000389 0.0000998 -0.0000713 0.0001872 -0.0000136 0.0004570 0.0000141 0.0004656 -0.0000199 0.0003887 0.0000153 0.0002593 0.0000048 0.0001813 0.0002553 -0.0002400 -0.0000572 0.0000021 0.0000046 0.0001761 0.0000076 0.0002004 0.0001396 -0.0000531 0.0001509 -0.0000042 0.0000389 0.0001508 -0.0000193 0.0000492 0.0000237 0.0002192 0.0000415 0.0000689 -0.0001157 0.0002571 -0.0001423 0.0000588 0.0005864 -0.0002044 -0.0002052 0.0007055 0.0000971 0.0000461 -0.0003762 0.0000061 0.0000366 -0.0002627 0.0000850 0.0000055 0.0000419 0.0000163 0.0000876 -0.0000252 -0.0000723 -0.0002442 0.0000220 -0.0002925 0.0000011 0.0000478 0.0000306 0.0001346 -0.0000164 0.0003409 -0.0001027 0.0004159 -0.0000404 0.0001971 -0.0000388 -0.0000471 0.0000013 -0.0000524 0.0000009 -0.0000288 -0.0007973 0.0005139 0.0000306 0.0000927 0.0013869 -0.0010340 0.0008186 -0.0003073 0.0000766 -0.0000634 0.0001749 -0.0001012 0.0000881 0.0000964 0.0000876 -0.0000015 -0.0000295 0.0005294 0.0000125 0.0004799 -0.0000284 0.0003003 -0.0000331 0.0000873 0.0000023 0.0000878 -0.0000839 0.0003386 0.0000136 0.0000539 0.0001361 0.0000255 0.0000255 0.0002205 0.0000130 0.0003109 0.0000666 0.0004494 0.0000528 0.0004734 -0.0000381 0.0002478 -0.0004535 0.0008364 0.0001783 0.0001751 0.0000311 0.0001511 -0.0000444 0.0002772 0.0000156 0.0004424 0.0002847 0.0003305 -0.0002371 0.0005444 -0.0000033 0.0002360 -0.0000882 0.0002279 0.0000628 0.0001867 -0.0000506 0.0002789 -0.0000603 0.0002399 -0.0000154 0.0002059 -0.0002925 0.0004069 0.0000103 0.0001933 -0.0001402 0.0004250 0.0000139 0.0002675 0.0002931 0.0000698 0.0000425 0.0001274 -0.0000842 0.0003018 -0.0002236 0.0004881
0.0000626 0.0004816 0.0006002 0.0000740 0.0001985 0.0000688 0.0000287 0.0003381 0.0000270 0.0002911 0.0000066 0.0004468 0.0001815 0.0006299 0.0000454 0.0002505 0.0001145 -0.0000290 -0.0000577 0.0004945 -0.0000227 0.0001427 0.0000122 0.0003818 -0.0000381 0.0003735 0.0000236 0.0002862 0.0000322 -0.0007042 0.0000143 -0.0000647 0.0000673 -0.0002488 0.0000415 -0.0001836 -0.0000257 -0.0000433 0.0000836 -0.0001850 0.0000078 -0.0000299 0.0000178 -0.0004107 0.0001799 -0.0003877 -0.0000076 0.0001346 0.0000353 0.0000541 0.0000094 0.0001860 0.0000347 0.0002114 -0.0000002 0.0002975 0.0000155 0.0002407 0.0000302 0.0001477 -0.0000866 0.0002690 0.0000692 0.0004777 0.0000256 0.0005653 0.0000015 0.0003895 0.0000211 0.0002485 0.0000098 0.0002391 0.0000981 -0.0000055 -0.0000451 0.0000951 -0.0000702 0.0003218 -0.0000254 0.0002586 0.0001200 0.0000525 0.0001262 0.0000296 0.0000315 0.0001943 -0.0000386 0.0000783 0.0000338 0.0002353 0.0000972 0.0000722 -0.0000396 0.0001720 0.0000876 -0.0000791 -0.0005045 0.0006714 -0.0013587 0.0014492 -0.0000507 0.0001925 -0.0003204 -0.0000115 0.0000742 -0.0002438 0.0000777 0.0000236 0.0000605 0.0000073 0.0000866 0.0000105 -0.0000375 -0.0001977 -0.0000022 -0.0001878 0.0000014 0.0000904 0.0000367 0.0001737 -0.0000280 0.0004308 -0.0000310 0.0003870 -0.0000498 0.0002070 -0.0000029 -0.0000199 0.0000210 0.0000009 0.0000180 0.0000069 0.0005350 0.0001011 0.0000643 0.0001135 -0.0002690 0.0006083 0.0007448 -0.0001181 0.0000678 0.0000073 0.0001650 -0.0000470 0.0001657 0.0001002 0.0001240 0.0000258 -0.0000267 0.0006434 -0.0000495 0.0006096 -0.0000306 0.0003808 0.0000542 0.0001389 0.0000265 0.0000756 -0.0001039 0.0004023 0.0000351 0.0000682 0.0003041 -0.0002154 0.0000050 0.0002370 0.0000167 0.0003264 -0.0003233 0.0008795 0.0000415 0.0005115 0.0000417 0.0002497 -0.0002211 0.0008630 0.0001679 0.0003178 0.0000403 0.0001766 -0.0000288 0.0003148 0.0000113 0.0003074 0.0004349 0.0001804 -0.0002594 0.0005819 0.0000217 0.0002479 0.0000200 0.0001704 -0.0000177 0.0003315 -0.0000693 0.0003421 -0.0000647 0.0002910 -0.0000428 0.0002535 -0.0002369 0.0003627 -0.0000182 0.0002859 -0.0006773 0.0008148 -0.0002393 0.0004357 0.0000431 0.0003638 0.0000015 0.0002245 -0.0001271 0.0003858 -0.0001428 0.0004799
0.0003257 0.0002447 -0.0001283 0.0006708 0.0005188 -0.0000120 0.0000188 0.0003521 0.0000280 0.0002830 -0.0000421 0.0005279 0.0001532 0.0007424 0.0000508 0.0003185 0.0000880 0.0000595 0.0000017 0.0005353 -0.0001379 0.0003054 0.0000286 0.0004415 -0.0000511 0.0005179 0.0000172 0.0003800 0.0000186 -0.0006278 0.0000152 -0.0000224 0.0000443 -0.0001666 0.0000928 -0.0001786 -0.0000225 -0.0000422 0.0000126 -0.0000927 0.0000005 0.0000145 0.0000167 -0.0003605 0.0002495 -0.0004170 -0.0000219 0.0001222 0.0000239 0.0000755 0.0000269 0.0003115 0.0000462 0.0002574 -0.0000236 0.0003133 0.0000349 0.0003831 -0.0000075 0.0002298 -0.0000949 0.0002998 0.0000570 0.0005956 0.0000126 0.0006532 0.0000068 0.0004268 0.0000083 0.0003617 0.0001398 0.0001909 -0.0000243 0.0003488 -0.0000048 0.0002442 -0.0001113 0.0004093 -0.0000524 0.0002971 0.0001151 0.0001987 0.0001445 0.0000063 0.0000160 0.0002275 -0.0000740 0.0001745 0.0001665 0.0000785 0.0001403 0.0000544 0.0004869 -0.0000076 0.0001367 -0.0000436 -0.0003923 0.0006492 -0.0008607 0.0010401 -0.0001293 0.0002500 0.0001144 -0.0003254 0.0000641 -0.0001406 0.0000907 0.0000725 0.0000249 0.0000212 0.0000156 0.0001071 -0.0000459 -0.0002072 0.0000426 -0.0001846 -0.0000115 0.0001187 0.0000339 0.0002279 -0.0000311 0.0004974 -0.0000023 0.0003925 -0.0000351 0.0002203 0.0000105 -0.0000635 0.0000105 0.0000409 0.0000205 0.0000415 0.0004053 0.0003983 0.0000150 0.0002098 -0.0001222 0.0005828 0.0003184 0.0002278 0.0001370 0.0000068 0.0001547 -0.0000026 0.0001021 0.0002451 0.0000934 0.0000643 -0.0000583 0.0007104 -0.0000222 0.0006696 -0.0000117 0.0004314 0.0002556 0.0001077 0.0000223 0.0001025 -0.0001657 0.0005123 0.0000616 0.0000746 0.0000956 -0.0001027 -0.0000136 0.0002780 0.0000208 0.0003432 -0.0002431 0.0010079 0.0000176 0.0005555 0.0002026 0.0001500 0.0004592 0.0004049 0.0002134 0.0004555 0.0000430 0.0002067 -0.0000159 0.0003395 0.0001435 0.0002586 0.0002525 0.0003476 -0.0001809 0.0005472 0.0000007 0.0002656 0.0000296 0.0002513 0.0000105 0.0002906 -0.0000884 0.0003762 -0.0000949 0.0003261 -0.0000645 0.0002884 0.0002936 0.0000240 -0.0000327 0.0002946 -0.0003454 0.0005894 -0.0003206 0.0005157 0.0001151 0.0003086 0.0000090 0.0001527 -0.0001445 0.0003442 -0.0001368 0.0003459
0.0000085 0.0003650 -0.0002742 0.0008263 0.0001356 0.0003515 0.0000187 0.0001931 0.0000148 0.0001711 -0.0000666 0.0003898 0.0000979 0.0006947 0.0000652 0.0002429 0.0001117 -0.0000004 0.0000105 0.0004289 -0.0000355 0.0000482 0.0000221 0.0002895 -0.0001778 0.0005854 0.0000193 0.0003190 -0.0000051 -0.0006059 0.0000081 -0.0001027 0.0000515 -0.0001839 0.0001309 -0.0002577 -0.0000129 -0.0001619 -0.0000280 -0.0001288 0.0000256 -0.0000231 -0.0000046 -0.0003698 0.0004825 -0.0006108 -0.0000211 0.0000195 0.0000253 0.0000474 0.0000328 0.0004060 0.0000769 0.0001944 -0.0000587 0.0002717 0.0000632 0.0004435 -0.0000483 0.0002556 -0.0001017 0.0002525 0.0001547 0.0004775 -0.0000077 0.0006970 -0.0000067 0.0004180 0.0000361 0.0003693 0.0001540 0.0001601 -0.0000100 0.0004577 -0.0000085 0.0003291 -0.0000840 0.0003751 -0.0000522 0.0002501 0.0001410 0.0002589 0.0001329 0.0000038 0.0000204 0.0001945 -0.0002358 0.0002655 0.0001317 0.0000289 0.0001774 0.0000135 0.0004836 -0.0000223 -0.0000669 0.0002587 -0.0002732 0.0005892 0.0010663 -0.0005043 -0.0000890 0.0001454 0.0000283 -0.0002534 -0.0000019 -0.0000139 0.0000899 0.0000877 0.0000047 0.0000299 -0.0000773 0.0002106 -0.0001011 -0.0002092 0.0001483 -0.0002240 -0.0000329 0.0001639 -0.0000183 0.0002934 -0.0000517 0.0005676 0.0000353 0.0004446 -0.0000305 0.0002416 -0.0000095 -0.0000907 0.0000039 0.0000556 -0.0000008 0.0000681 0.0002960 0.0000053 -0.0000236 0.0002851 0.0010872 -0.0003914 -0.0007609 0.0010963 0.0001017 0.0000599 0.0001294 0.0000303 0.0000612 0.0004021 0.0001120 0.0000744 -0.0000778 0.0007639 -0.0000015 0.0007215 -0.0000233 0.0004562 0.0002934 0.0000876 -0.0000079 0.0001310 -0.0001581 0.0005421 0.0000601 0.0001107 0.0000767 -0.0000514 0.0000407 0.0002082 0.0000292 0.0003141 -0.0001751 0.0010165 -0.0000066 0.0005715 0.0001714 0.0002041 0.0002223 0.0005681 -0.0000356 0.0007143 0.0000402 0.0002740 -0.0000213 0.0003793 0.0001213 0.0004532 0.0000868 0.0004839 0.0000870 0.0004163 -0.0000257 0.0003048 -0.0000734 0.0003412 -0.0000772 0.0003808 -0.0000881 0.0004222 -0.0001186 0.0003779 -0.0000694 0.0003416 0.0003406 0.0001080 -0.0000591 0.0003769 0.0004057 0.0001814 -0.0002861 0.0006709 -0.0001942 0.0005092 0.0000375 0.0001787 -0.0001670 0.0004151 -0.0001241 0.0003669
-0.0001687 0.0003805 -0.0001201 0.0007883 -0.0001607 0.0006246 0.0000050 0.0001482 0.0000158 0.0001203 -0.0000676 0.0003330 0.0001389 0.0006821 0.0000346 0.0002573 0.0000704 0.0000549 -0.0000490 0.0005430 -0.0000151 0.0001108 -0.0000027 0.0003753 -0.0002806 0.0007304 0.0000150 0.0003325 0.0000229 -0.0006126 0.0000148 -0.0001201 0.0000588 -0.0001845 0.0000976 -0.0002158 -0.0000100 -0.0001863 -0.0000160 -0.0001466 0.0000225 -0.0000010 -0.0000137 -0.0003384 0.0002139 -0.0002722 -0.0000256 0.0000099 0.0000113 0.0000542 0.0000090 0.0003434 0.0000492 0.0001869 -0.0000815 0.0002684 0.0000674 0.0004186 -0.0000755 0.0003315 -0.0000862 0.0002496 -0.0000803 0.0005625 -0.0000351 0.0007187 -0.0000241 0.0004213 0.0000294 0.0003211 0.0000240 0.0002979 0.0000250 0.0004058 -0.0000283 0.0002913 -0.0000595 0.0003823 -0.0000569 0.0002508 0.0000444 0.0003309 0.0001033 0.0000723 0.0000162 0.0002071 -0.0000282 0.0001027 0.0001210 0.0000255 0.0000445 0.0001682 -0.0000645 0.0002508 -0.0000273 0.0002205 -0.0008798 0.0010184 0.0009909 -0.0004905 0.0001075 0.0000498 -0.0001071 0.0001384 0.0000083 0.0000254 0.0000807 0.0000925 0.0000246 0.0000189 -0.0000581 0.0002330 -0.0000755 -0.0001718 0.0001441 -0.0001040 -0.0000263 0.0002042 -0.0000329 0.0003320 -0.0000786 0.0006227 0.0000296 0.0004746 -0.0000546 0.0002340 0.0000087 -0.0000517 -0.0000039 0.0000823 -0.0000012 0.0001147 -0.0003016 0.0005651 0.0000008 0.0002967 0.0000103 0.0007210 -0.0011948 0.0016953 0.0000706 0.0001310 0.0001267 0.0000898 0.0001291 0.0004243 0.0001322 0.0001432 -0.0000459 0.0007578 -0.0001767 0.0009467 -0.0000509 0.0004826 0.0002956 0.0001010 -0.0000077 0.0001595 -0.0000862 0.0004207 0.0000323 0.0001915 0.0001526 -0.0000504 0.0000490 0.0002268 0.0000295 0.0003031 -0.0003304 0.0012137 -0.0000190 0.0005530 -0.0000573 0.0004117 -0.0000638 0.0007634 0.0000082 0.0005918 0.0000561 0.0002350 -0.0000082 0.0003761 0.0000197 0.0002751 0.0001866 0.0002518 0.0000880 0.0002944 0.0000029 0.0001741 -0.0002418 0.0002997 -0.0000917 0.0003112 -0.0000837 0.0003354 -0.0001366 0.0003254 -0.0000539 0.0002157 0.0001459 0.0002795 -0.0000675 0.0002031 0.0005597 -0.0001139 -0.0001568 0.0004072 -0.0002902 0.0003383 0.0000533 -0.0000565 -0.0001509 0.0002716 -0.0000564 0.0001081
-0.0000746 0.0000780 -0.0003656 0.0008613 0.0001498 0.0001406 -0.0000085 0.0000277 0.0000237 0.0000080 -0.0000735 0.0002269 0.0002323 0.0005021 0.0000204 0.0001942 0.0000446 0.0001022 -0.0000800 0.0005887 0.0000075 0.0001330 0.0000120 0.0003571 -0.0000450 0.0006004 0.0000063 0.0002853 0.0000171 -0.0006400 0.0000190 -0.0001880 0.0000534 -0.0002072 0.0001039 -0.0002403 0.0000036 -0.0002642 -0.0000550 -0.0001846 0.0000174 -0.0000315 0.0000125 -0.0003704 -0.0000398 -0.0000892 -0.0000273 -0.0000113 0.0000085 0.0000005 0.0000535 0.0001148 0.0000617 0.0001319 -0.0000933 0.0002490 0.0000498 0.0003472 -0.0000942 0.0003906 -0.0000568 0.0002234 -0.0001851 0.0005784 -0.0000538 0.0006811 -0.0000728 0.0004092 -0.0000048 0.0002353 0.0001147 0.0002758 -0.0000036 0.0004256 0.0000161 0.0001485 -0.0000554 0.0003952 -0.0000674 0.0002463 0.0000457 0.0002658 0.0000959 0.0000651 0.0000196 0.0001867 0.0001855 0.0000448 0.0000663 0.0000978 -0.0001220 0.0003528 -0.0002430 0.0002990 -0.0000444 0.0000518 -0.0005082 0.0007474 0.0002448 0.0002679 -0.0000266 0.0001565 -0.0003589 0.0003597 -0.0000110 0.0000618 0.0000493 0.0000846 0.0000422 0.0000150 -0.0000398 0.0002560 -0.0000261 -0.0001341 -0.0000934 0.0001910 0.0000004 0.0002175 -0.0000567 0.0003608 -0.0000777 0.0006134 0.0000306 0.0004093 -0.0000860 0.0002110 0.0000073 -0.0000141 -0.0000131 0.0000949 -0.0000158 0.0001702 0.0000540 0.0004721 0.0000002 0.0003343 -0.0008906 0.0011384 -0.0001485 0.0009999 0.0001388 0.0001223 0.0000846 0.0001820 0.0001049 0.0004484 0.0000985 0.0002237 -0.0000584 0.0007826 -0.0000556 0.0009506 -0.0000826 0.0004680 0.0001400 0.0002496 0.0000191 0.0002201 0.0000383 0.0002611 0.0000251 0.0002542 0.0001080 0.0000587 -0.0000055 0.0003226 0.0000157 0.0003137 -0.0001210 0.0010059 -0.0000440 0.0005410 -0.0001475 0.0005234 -0.0000860 0.0008461 0.0000210 0.0006596 0.0000489 0.0003146 -0.0000204 0.0004383 0.0002305 0.0001114 0.0001683 0.0002822 -0.0000992 0.0004792 0.0000367 0.0001694 -0.0001280 0.0002995 -0.0001326 0.0003616 -0.0001163 0.0004188 -0.0001505 0.0003907 -0.0000807 0.0002489 0.0001758 -0.0000182 -0.0001272 0.0002692 0.0006945 -0.0001619 -0.0001927 0.0004604 -0.0002473 0.0003805 -0.0000112 0.0000576 -0.0001460 0.0003035 -0.0000528 0.0001496
0.0000005 0.0000355 -0.0001403 0.0006683 0.0001971 0.0001165 -0.0000102 0.0000534 0.0000279 -0.0000117 -0.0000865 0.0002364 0.0001307 0.0005877 0.0000211 0.0001685 0.0000346 0.0000998 -0.0000627 0.0006108 -0.0000314 0.0002033 -0.0000066 0.0004366 -0.0001214 0.0007373 -0.0000023 0.0002872 0.0000171 -0.0006285 0.0000201 -0.0001719 0.0000251 -0.0001612 0.0000694 -0.0001173 0.0000019 -0.0002423 -0.0000634 -0.0001179 0.0000358 -0.0000244 -0.0000014 -0.0003285 -0.0000471 -0.0001853 -0.0000226 0.0000056 0.0000183 -0.0000071 0.0000548 0.0000390 0.0000713 0.0001263 -0.0000978 0.0002659 0.0000431 0.0003055 -0.0001143 0.0004510 -0.0000340 0.0002076 -0.0001663 0.0005332 -0.0000669 0.0006724 -0.0000882 0.0004232 -0.0000412 0.0002306 0.0000899 0.0003181 0.0000191 0.0003760 0.0000229 0.0000665 -0.0000649 0.0004285 -0.0000624 0.0002304 0.0000663 0.0002343 0.0000486 0.0001389 0.0000064 0.0002053 0.0000197 0.0002492 -0.0001116 0.0003000 -0.0001195 0.0003844 -0.0001822 0.0002733 -0.0002118 0.0002006 -0.0002560 0.0006558 0.0002173 0.0002328 -0.0002046 0.0002888 -0.0004774 0.0003481 -0.0000220 0.0000170 0.0000350 0.0001035 0.0000525 0.0000644 -0.0000709 0.0003030 -0.0000131 -0.0001041 -0.0002601 0.0003969 0.0000125 0.0002183 -0.0000653 0.0003775 -0.0000769 0.0006329 0.0000576 0.0003649 -0.0001048 0.0001971 -0.0000025 -0.0000384 -0.0000037 0.0000127 -0.0000578 0.0001052 0.0009696 -0.0007601 0.0000134 0.0001833 -0.0003082 0.0008463 0.0000640 0.0007163 0.0001391 -0.0000465 0.0000435 0.0000211 -0.0000678 0.0004312 0.0000559 0.0000300 -0.0000834 0.0007481 0.0000493 0.0007506 -0.0000810 0.0003713 0.0001648 0.0002025 0.0000079 -0.0000334 0.0000696 -0.0000655 0.0000609 -0.0001224 0.0001728 -0.0002088 0.0000041 0.0001033 0.0000328 0.0001633 -0.0001428 0.0006968 -0.0000212 0.0003334 -0.0000712 0.0002871 -0.0002106 0.0006388 0.0000998 0.0003189 0.0000460 -0.0000037 -0.0000454 0.0002443 0.0001227 0.0000384 0.0002527 0.0000377 -0.0002200 0.0003791 0.0000866 -0.0000451 0.0000124 -0.0000211 -0.0002061 0.0003830 -0.0001298 0.0003428 -0.0001265 0.0002784 -0.0001242 0.0001760 -0.0001570 0.0001033 -0.0000821 0.0001086 0.0003116 0.0000477 -0.0004484 0.0005100 -0.0004122 0.0004902 0.0000052 -0.0000753 -0.0001542 0.0002123 -0.0001054 0.0000489
-0.0000083 -0.0000979 -0.0000684 0.0003920 0.0003074 -0.0000468 0.0000039 -0.0000428 0.0000302 -0.0001223 -0.0000546 0.0000911 0.0001235 0.0004818 0.0000392 0.0000946 0.0000336 0.0000646 -0.0000882 0.0005584 -0.0001056 0.0002439 -0.0000301 0.0003949 -0.0000888 0.0007090 -0.0000003 0.0001535 0.0000212 -0.0007263 0.0000302 -0.0002821 0.0000078 -0.0002425 0.0000615 -0.0001958 0.0000213 -0.0003735 0.0000060 -0.0003159 0.0000422 -0.0000829 0.0000226 -0.0004257 0.0000495 -0.0002948 -0.0000133 -0.0000530 0.0000102 -0.0000483 0.0000227 0.0000369 0.0000487 0.0000970 -0.0000993 0.0001678 0.0000397 0.0002335 -0.0001244 0.0003852 -0.0000182 0.0000822 -0.0002953 0.0005959 -0.0000677 0.0005993 -0.0000791 0.0003462 -0.0000606 0.0001952 0.0000843 0.0002074 0.0000357 0.0002826 0.0000379 0.0000114 -0.0000546 0.0003464 -0.0000389 0.0001336 0.0000116 0.0002118 0.0000750 0.0000598 0.0000277 0.0001205 -0.0001644 0.0002482 0.0000951 0.0000327 -0.0000178 0.0002669 0.0001650 -0.0000173 0.0000864 0.0000533 -0.0006803 0.0009264 0.0011612 -0.0008584 -0.0000982 0.0002096 -0.0001350 0.0000308 0.0000114 -0.0001226 0.0000335 0.0000939 0.0000673 0.0000026 -0.0000421 0.0002673 -0.0000909 -0.0001108 -0.0001034 0.0002695 0.0000384 0.0001730 -0.0000588 0.0003467 -0.0000511 0.0005798 0.0000968 0.0003016 -0.0000712 0.0001562 -0.0000125 -0.0000492 0.0000142 0.0000138 -0.0000494 0.0001511 0.0008188 -0.0001792 -0.0000074 0.0001872 0.0000699 0.0002079 -0.0001547 0.0009169 0.0000972 -0.0000092 0.0000928 -0.0000073 -0.0001445 0.0004709 0.0000955 0.0000261 -0.0001146 0.0006923 -0.0000970 0.0007896 -0.0000731 0.0003245 0.0003872 0.0000719 0.0000038 -0.0000184 -0.0000288 -0.0000520 0.0000494 -0.0001002 0.0004497 -0.0004750 0.0000054 0.0000694 0.0000442 0.0001051 -0.0001344 0.0007646 0.0000093 0.0002519 -0.0001805 0.0003009 -0.0004224 0.0007756 0.0000021 0.0004968 0.0000595 0.0000153 -0.0000289 0.0002204 0.0001249 0.0000255 0.0002178 0.0000125 -0.0002078 0.0003228 0.0000733 -0.0000480 -0.0000260 0.0000101 -0.0000594 0.0002192 -0.0001309 0.0003286 -0.0001138 0.0002852 -0.0000905 0.0001368 -0.0005342 0.0004918 -0.0000577 0.0000378 -0.0002798 0.0005172 -0.0004168 0.0004529 -0.0001722 0.0003457 0.0000737 -0.0001292 -0.0001634 0.0001840 -0.0001000 0.0000013
0.0001422 -0.0002451 0.0001648 0.0001582 0.0003672 -0.0002132 0.0000009 -0.0000494 0.0000246 -0.0001442 -0.0000315 -0.0000008 0.0001082 0.0004394 0.0000477 0.0000335 0.0000115 0.0000398 -0.0001116 0.0005461 0.0000164 0.0000568 -0.0000392 0.0004127 -0.0000281 0.0006302 0.0000008 0.0000902 -0.0000236 -0.0007366 0.0000276 -0.0003334 0.0000008 -0.0003131 0.0000702 -0.0002201 0.0000322 -0.0004305 0.0000303 -0.0004217 0.0000257 -0.0000895 0.0000424 -0.0004800 0.0000797 -0.0004455 -0.0000167 -0.0000385 -0.0000058 -0.0000414 0.0000404 0.0000175 0.0000439 0.0001087 -0.0001053 0.0001176 0.0000320 0.0002324 -0.0001279 0.0003552 -0.0000127 0.0000405 -0.0000575 0.0004472 -0.0000770 0.0005613 -0.0001006 0.0003259 -0.0000430 0.0001253 0.0001653 0.0001420 -0.0000285 0.0003079 -0.0000701 0.0000656 -0.0000586 0.0002931 -0.0000199 0.0000855 -0.0000120 0.0001751 0.0001186 0.0000298 0.0000314 0.0000761 -0.0000636 0.0001340 0.0002890 -0.0001469 0.0000878 0.0001956 0.0003414 -0.0003004 0.0002719 -0.0001797 -0.0001057 0.0005177 0.0013765 -0.0008978 -0.0000879 0.0000429 -0.0001739 -0.0000673 -0.0000036 -0.0002150 0.0000210 0.0000632 0.0000793 -0.0001484 -0.0000520 0.0000513 -0.0000643 -0.0003616 -0.0000920 -0.0000062 0.0000774 -0.0001299 0.0000010 0.0001739 -0.0000507 0.0004439 0.0000512 0.0001339 -0.0000525 0.0001055 0.0000033 -0.0001962 0.0000163 -0.0001162 -0.0000162 0.0000146 0.0005820 -0.0000434 -0.0000460 0.0000669 0.0006420 -0.0010649 0.0002478 0.0003647 0.0000996 -0.0001174 0.0001290 -0.0001623 0.0000395 0.0001469 0.0001536 -0.0001229 -0.0001637 0.0006835 -0.0002420 0.0007588 -0.0000730 0.0002475 0.0001319 0.0001773 -0.0000152 -0.0000746 -0.0000571 -0.0001658 0.0000534 -0.0001853 0.0002358 -0.0005559 0.0000253 -0.0000481 0.0000437 0.0000156 0.0000713 0.0004082 -0.0000050 0.0001637 -0.0002066 0.0001811 -0.0002400 0.0005915 -0.0000596 0.0003425 0.0000611 -0.0000519 -0.0000104 0.0001230 0.0004528 -0.0002967 0.0002632 -0.0001930 -0.0000604 0.0000738 0.0000772 -0.0001623 -0.0000273 -0.0000478 0.0000744 0.0000049 -0.0000909 0.0002423 -0.0000996 0.0002094 -0.0000556 0.0000245 -0.0003498 0.0000911 -0.0000659 -0.0000372 -0.0007211 0.0008193 -0.0002225 0.0002545 -0.0003708 0.0005063 0.0000594 -0.0001708 -0.0001368 0.0001012 -0.0000709 -0.0000911
0.0002710 -0.0004876 0.0005281 -0.0002048 0.0002640 -0.0002013 -0.0000048 -0.0000816 0.0000233 -0.0001750 0.0000019 -0.0001206 0.0000700 0.0003194 0.0000541 -0.0000310 0.0000385 -0.0000245 -0.0000044 0.0003788 -0.0001317 0.0000829 -0.0000118 0.0003363 -0.0000286 0.0005476 -0.0000089 -0.0000167 -0.0000253 -0.0008425 0.0000349 -0.0004239 0.0000052 -0.0004417 0.0000776 -0.0003315 0.0000485 -0.0005632 0.0000709 -0.0005272 0.0000192 -0.0001683 0.0000015 -0.0005332 0.0001048 -0.0006138 0.0000108 -0.0000796 0.0000172 -0.0000942 0.0000285 -0.0000141 0.0000290 0.0001013 -0.0000813 0.0000123 0.0000302 0.0002006 -0.0000944 0.0002547 0.0000080 -0.0000350 0.0001134 0.0001623 -0.0000542 0.0004541 -0.0000779 0.0002147 -0.0000356 -0.0000069 0.0001602 0.0001031 -0.0000465 0.0001694 -0.0001345 0.0000091 0.0000062 0.0001209 0.0000054 -0.0000000 0.0000137 0.0000365 0.0000869 0.0000318 -0.0000110 0.0000721 0.0000212 0.0000749 0.0001871 -0.0001303 -0.0000163 0.0002209 0.0002245 -0.0003338 0.0001848 -0.0001569 0.0003056 0.0001487 0.0006707 -0.0004839 -0.0000013 -0.0001149 -0.0003298 -0.0001687 -0.0000201 -0.0003082 0.0000120 0.0000539 0.0000650 -0.0001662 -0.0000298 0.0000065 -0.0000334 -0.0004279 -0.0001788 -0.0000470 0.0000965 -0.0001802 0.0000526 0.0000779 -0.0000610 0.0003720 -0.0000016 0.0000692 -0.0000528 0.0000664 0.0000036 -0.0002513 -0.0000070 -0.0001591 -0.0000477 -0.0000271 0.0011996 -0.0008620 0.0000070 -0.0000218 0.0007908 -0.0005905 0.0001083 0.0003874 0.0001284 -0.0001735 0.0001321 -0.0001898 0.0000445 0.0001074 0.0001832 -0.0001791 -0.0001750 0.0006047 -0.0001243 0.0007009 -0.0000787 0.0001747 0.0000001 0.0000761 -0.0000367 -0.0000770 -0.0000423 -0.0002513 0.0000491 -0.0002278 -0.0000108 -0.0004380 0.0000742 -0.0001245 0.0000193 -0.0000355 -0.0000373 0.0005062 -0.0000355 0.0001128 -0.0001159 -0.0000005 -0.0000352 0.0002819 -0.0000164 0.0001166 0.0000379 -0.0000629 -0.0000282 0.0000925 0.0000895 -0.0000131 0.0000552 -0.0001442 0.0000688 -0.0000493 0.0001161 -0.0002196 0.0000560 -0.0001970 -0.0000814 0.0000793 -0.0001222 0.0002447 -0.0000876 0.0001518 -0.0000640 -0.0000357 0.0001718 -0.0005419 -0.0000325 -0.0001132 -0.0007233 0.0007820 -0.0001039 0.0001235 -0.0005984 0.0006055 0.0000613 -0.0002336 -0.0001036 0.0000299 -0.0000516 -0.0001678
0.0000677 -0.0004629 0.0005805 -0.0003903 -0.0000841 -0.0000141 0.0000077 -0.0001136 0.0000328 -0.0001802 0.0000555 -0.0002420 0.0002054 0.0001134 0.0000729 -0.0000654 0.0000743 -0.0000876 0.0000628 0.0002491 -0.0000661 0.0000248 -0.0000032 0.0002879 -0.0000708 0.0005223 -0.0000188 -0.0000617 -0.0000271 -0.0009636 0.0000365 -0.0004590 0.0000023 -0.0005100 0.0000869 -0.0004092 0.0000819 -0.0006827 0.0000906 -0.0006154 0.0000264 -0.0002257 -0.0000181 -0.0005877 0.0001647 -0.0005612 0.0000288 -0.0001059 0.0000407 -0.0001237 0.0000315 -0.0000270 0.0000097 0.0001090 -0.0000452 -0.0001093 0.0000295 0.0001481 -0.0000699 0.0001361 0.0000069 -0.0001452 0.0003079 -0.0001300 -0.0000394 0.0003297 -0.0000514 0.0000719 -0.0000175 -0.0001219 0.0000872 0.0000224 0.0000021 0.0000144 -0.0001434 -0.0001232 0.0000491 -0.0001651 0.0000513 -0.0002322 -0.0000237 -0.0000850 0.0001161 -0.0001724 0.0000151 -0.0001079 -0.0002039 0.0000687 0.0001121 -0.0003049 -0.0000802 -0.0000090 0.0002339 -0.0004604 -0.0001471 -0.0000161 -0.0008105 0.0006203 0.0002720 -0.0005272 0.0000235 -0.0002360 -0.0000573 -0.0005780 -0.0000263 -0.0004150 0.0000162 -0.0000216 0.0000638 -0.0002109 0.0000221 -0.0001527 0.0000084 -0.0005379 -0.0000779 -0.0002569 0.0001273 -0.0003154 0.0000642 -0.0000517 -0.0000444 0.0002351 0.0001286 -0.0001836 -0.0000207 -0.0000048 -0.0000015 -0.0003077 0.0000091 -0.0002559 -0.0000618 -0.0000961 0.0009453 -0.0011944 0.0000381 -0.0001194 0.0004134 -0.0000880 -0.0001686 0.0004241 0.0001371 -0.0002831 0.0001149 -0.0002368 0.0000555 0.0000547 0.0001496 -0.0002222 -0.0000482 0.0004038 0.0000914 0.0004525 -0.0000764 0.0000872 -0.0000078 -0.0000565 -0.0000172 -0.0001351 0.0000394 -0.0004262 0.0000350 -0.0002873 0.0003652 -0.0007883 0.0000972 -0.0002303 0.0000153 -0.0001235 -0.0000402 0.0005055 -0.0000137 -0.0000329 -0.0001327 -0.0001279 -0.0003126 0.0003935 -0.0000900 0.0001662 0.0000459 -0.0000973 -0.0000151 0.0000077 0.0000796 -0.0001018 -0.0001747 -0.0001025 -0.0000378 -0.0000320 0.0001031 -0.0002582 0.0000744 -0.0002865 -0.0000772 0.0000913 -0.0001340 0.0002113 -0.0001178 0.0001555 -0.0000722 -0.0000956 0.0004188 -0.0008017 -0.0000591 -0.0001415 -0.0003913 0.0005532 -0.0001571 0.0000824 -0.0004548 0.0003635 0.0001471 -0.0003491 -0.0000884 -0.0000270 -0.0000383 -0.0002109
0.0000908 -0.0004824 0.0004576 -0.0003834 0.0001430 -0.0003001 0.0000354 -0.0001378 0.0000364 -0.0001616 0.0000949 -0.0003306 0.0002421 0.0000050 0.0000787 -0.0000800 0.0000833 -0.0001410 0.0000276 0.0002103 0.0000519 -0.0002533 -0.0000247 0.0002721 -0.0000842 0.0004135 -0.0000238 -0.0001011 -0.0000817 -0.0010513 0.0000309 -0.0005096 0.0000108 -0.0005920 0.0000887 -0.0004551 0.0001073 -0.0007438 0.0000816 -0.0006944 0.0000325 -0.0002576 -0.0000119 -0.0006587 0.0002699 -0.0007642 0.0000404 -0.0000977 0.0000552 -0.0001334 0.0000779 -0.0000307 0.0000608 0.0001122 0.0000046 -0.0001588 0.0000210 0.0001893 -0.0000366 0.0000614 0.0000046 -0.0001205 0.0003081 -0.0001845 -0.0000334 0.0002439 -0.0000523 0.0000295 0.0000104 -0.0001685 0.0000269 0.0000772 0.0000427 0.0000346 -0.0001608 -0.0000775 0.0000629 -0.0001947 0.0000608 -0.0002439 -0.0000252 -0.0001347 0.0001703 -0.0002554 0.0000339 -0.0001352 -0.0003439 0.0002544 0.0001210 -0.0003996 -0.0000384 -0.0001185 0.0006571 -0.0007597 -0.0002463 -0.0000819 0.0000250 0.0000091 0.0006308 -0.0007114 -0.0000270 -0.0002628 0.0001618 -0.0006336 -0.0000299 -0.0003818 0.0000243 -0.0000229 0.0000698 -0.0000796 0.0000249 -0.0001468 -0.0000069 -0.0004999 -0.0000916 -0.0002114 0.0001324 -0.0002940 0.0000694 -0.0000640 -0.0000507 0.0001956 0.0002425 -0.0002575 -0.0000176 -0.0000066 0.0000037 -0.0003177 0.0000253 -0.0002782 -0.0000557 -0.0001069 0.0013252 -0.0016854 0.0000271 -0.0001055 0.0000448 0.0002078 0.0002666 -0.0000604 0.0001408 -0.0003153 0.0000481 -0.0001651 0.0001033 0.0000700 0.0001191 -0.0002028 -0.0000190 0.0003589 0.0000873 0.0003872 -0.0000715 0.0000529 -0.0001749 0.0001741 -0.0000269 -0.0001241 -0.0000219 -0.0003426 0.0000349 -0.0002770 0.0001175 -0.0007262 0.0000369 -0.0002149 0.0000143 -0.0001484 -0.0002133 0.0004663 0.0000067 -0.0001052 -0.0001104 -0.0001685 -0.0001624 0.0003217 -0.0001246 0.0003534 0.0000703 -0.0000959 -0.0000194 0.0000028 0.0001514 -0.0003100 0.0001772 -0.0003619 -0.0001595 0.0000584 0.0000866 -0.0002485 0.0000835 -0.0002733 -0.0001107 0.0000997 -0.0000887 0.0001956 -0.0001125 0.0001739 -0.0000788 -0.0000902 0.0002957 -0.0008052 -0.0000493 -0.0001149 -0.0004690 0.0005007 -0.0003483 0.0002237 -0.0002825 0.0002594 0.0001809 -0.0003949 -0.0000788 -0.0000488 -0.0000914 -0.0002038
0.0002162 -0.0005846 0.0002280 -0.0002783 0.0002779 -0.0003976 0.0000521 -0.0001282 0.0000362 -0.0001365 0.0001164 -0.0004504 0.0001965 -0.0001079 0.0000918 -0.0001191 0.0000850 -0.0001808 -0.0000053 0.0000859 0.0000874 -0.0004348 0.0000198 0.0000642 -0.0000764 0.0002372 -0.0000282 -0.0002467 -0.0000766 -0.0012700 0.0000462 -0.0007131 0.0000269 -0.0007924 0.0001351 -0.0007008 0.0001294 -0.0010028 0.0001398 -0.0009908 0.0000422 -0.0004523 0.0000103 -0.0008324 0.0004623 -0.0011964 0.0000688 -0.0003268 0.0000938 -0.0002927 0.0000710 -0.0001255 0.0000864 0.0000140 0.0000648 -0.0004392 0.0000265 0.0000693 0.0000117 -0.0002481 0.0000279 -0.0003776 -0.0000579 -0.0002250 0.0000389 0.0000332 -0.0000357 -0.0002373 0.0000373 -0.0003482 0.0000586 -0.0000179 0.0000550 -0.0000671 -0.0001296 -0.0000754 0.0000932 -0.0004232 0.0000715 -0.0003814 0.0000368 -0.0003389 0.0001955 -0.0004348 0.0000314 -0.0002124 -0.0001388 -0.0000316 0.0001064 -0.0005503 -0.0000905 -0.0002058 0.0005833 -0.0007757 0.0000962 -0.0004842 0.0009742 -0.0007563 0.0008428 -0.0010328 0.0000353 -0.0004300 0.0000351 -0.0006151 -0.0000304 -0.0004272 0.0000371 -0.0000873 0.0001128 -0.0000044 0.0001004 -0.0002957 -0.0000708 -0.0005229 -0.0001055 -0.0003357 0.0001415 -0.0003304 0.0000728 -0.0001503 -0.0000361 0.0000663 0.0000766 -0.0002129 -0.0000034 -0.0000589 0.0000113 -0.0003750 0.0000347 -0.0003337 -0.0000517 -0.0001660 -0.0003212 -0.0004791 0.0001119 -0.0002266 -0.0000620 0.0005042 0.0001374 0.0000166 0.0001562 -0.0003605 0.0000642 -0.0002254 0.0000749 -0.0001257 0.0001479 -0.0002691 0.0000062 0.0002439 0.0001931 0.0001743 -0.0000805 -0.0000153 -0.0001804 0.0000750 -0.0000364 -0.0001498 -0.0000430 -0.0003272 0.0000446 -0.0003215 -0.0000339 -0.0006932 0.0000273 -0.0003030 0.0000259 -0.0002377 -0.0001013 0.0002308 0.0000482 -0.0002372 -0.0002931 -0.0000370 -0.0000414 0.0001497 0.0001397 0.0001062 0.0000746 -0.0001383 -0.0000443 -0.0000451 -0.0000739 -0.0002726 0.0001336 -0.0003611 0.0000583 -0.0001274 0.0000560 -0.0002435 0.0001535 -0.0003376 -0.0002129 0.0001475 -0.0001010 0.0001818 -0.0000621 0.0000976 -0.0000185 -0.0001538 0.0000148 -0.0004521 0.0000707 -0.0002720 -0.0002759 0.0002513 -0.0002937 0.0002105 0.0002809 -0.0000046 0.0001459 -0.0003675 -0.0000641 -0.0000818 -0.0000896 -0.0001923
0.0001246 -0.0005120 0.0001872 -0.0002755 0.0000427 -0.0001919 0.0000599 -0.0000872 0.0000404 -0.0001036 0.0001530 -0.0004664 0.0002173 -0.0002124 0.0001066 -0.0000878 0.0000988 -0.0002313 0.0000283 0.0000232 0.0002435 -0.0005071 0.0000469 0.0000285 0.0000686 0.0000511 -0.0000194 -0.0002577 -0.0000974 -0.0013986 0.0000542 -0.0007563 0.0000044 -0.0008568 0.0001660 -0.0007484 0.0001264 -0.0010500 0.0001794 -0.0010165 0.0000559 -0.0004901 0.0000064 -0.0008833 0.0003530 -0.0010957 0.0000703 -0.0003198 0.0001012 -0.0003103 0.0000480 -0.0000600 0.0000626 0.0001141 0.0000854 -0.0004202 0.0000405 0.0001247 0.0000543 -0.0002822 0.0000326 -0.0003272 -0.0000955 -0.0001421 0.0000538 -0.0000355 -0.0000025 -0.0002889 0.0000094 -0.0003856 0.0000632 0.0000697 0.0001019 -0.0001061 -0.0000279 -0.0001314 0.0000883 -0.0004354 0.0000683 -0.0003555 0.0000126 -0.0003769 0.0001771 -0.0004265 0.0000189 -0.0001707 -0.0000897 -0.0001066 0.0001496 -0.0005790 -0.0000695 -0.0002048 0.0001858 -0.0005104 0.0001040 -0.0004386 0.0006823 -0.0005405 -0.0005565 -0.0001954 -0.0000852 -0.0002780 -0.0002205 -0.0007220 -0.0000308 -0.0004798 0.0000511 -0.0000897 0.0001542 0.0001268 0.0001082 -0.0002816 -0.0000403 -0.0005171 0.0000116 -0.0004675 0.0001262 -0.0002794 0.0000489 -0.0001421 -0.0000293 0.0000069 -0.0000944 -0.0001301 0.0000029 -0.0000903 0.0000306 -0.0003546 0.0000295 -0.0003067 -0.0000422 -0.0001480 -0.0010449 0.0000651 0.0000719 -0.0001601 0.0001448 0.0001050 -0.0004707 0.0007148 0.0001355 -0.0003429 0.0000701 -0.0002074 0.0001409 -0.0002071 0.0000941 -0.0002116 -0.0000268 0.0001885 0.0001746 0.0001469 -0.0000950 -0.0000549 -0.0001734 -0.0000165 -0.0000239 -0.0002533 -0.0000116 -0.0003423 0.0000692 -0.0004443 0.0002381 -0.0009451 0.0000729 -0.0004233 0.0000582 -0.0003231 0.0001473 -0.0000713 0.0000459 -0.0003958 -0.0002584 -0.0001906 0.0001200 -0.0001875 0.0000242 -0.0002213 0.0000692 -0.0004274 -0.0000378 -0.0002415 -0.0000744 -0.0005264 0.0001398 -0.0006607 0.0001822 -0.0005757 0.0000572 -0.0004914 0.0001327 -0.0006287 -0.0001331 -0.0000051 -0.0001000 -0.0000064 -0.0000730 -0.0000942 0.0000102 -0.0004258 -0.0002130 -0.0001000 0.0000817 -0.0006198 -0.0001810 -0.0001776 0.0000189 -0.0004034 0.0005026 -0.0004517 0.0001382 -0.0007883 -0.0000294 -0.0004032 -0.0000145 -0.0006637
0.0001953 -0.0007331 0.0001240 -0.0004889 0.0003117 -0.0007786 0.0000936 -0.0003188 0.0000330 -0.0002144 0.0002038 -0.0007543 0.0001411 -0.0004552 0.0001538 -0.0002676 0.0001735 -0.0004178 0.0000815 -0.0002704 0.0002003 -0.0007065 0.0000319 -0.0002339 0.0003122 -0.0003542 -0.0000088 -0.0004688 -0.0001393 -0.0016273 0.0000616 -0.0010197 0.0000153 -0.0010521 0.0001718 -0.0010228 0.0001601 -0.0012944 0.0002319 -0.0013284 0.0000897 -0.0006744 0.0000152 -0.0010779 -0.0000305 -0.0009621 0.0000934 -0.0004826 0.0001208 -0.0004437 0.0000608 -0.0001038 0.0000531 0.0000701 0.0001410 -0.0005460 0.0000515 0.0000984 0.0001163 -0.0004647 0.0000459 -0.0004210 0.0001616 -0.0004912 0.0000743 -0.0002220 0.0000374 -0.0004917 -0.0000316 -0.0005022 0.0001321 -0.0000436 0.0000611 -0.0001502 0.0000319 -0.0002713 0.0001124 -0.0006007 0.0000660 -0.0004382 0.0000240 -0.0005861 0.0001457 -0.0005169 0.0000209 -0.0002379 -0.0000850 -0.0001286 0.0002254 -0.0008266 0.0000877 -0.0004660 0.0001933 -0.0007271 -0.0000211 -0.0005017 0.0002154 -0.0004317 -0.0010345 0.0000745 -0.0000502 -0.0004056 -0.0000814 -0.0008916 -0.0000060 -0.0006137 0.0000654 -0.0001544 0.0001701 0.0001565 0.0000986 -0.0003452 -0.0000918 -0.0006770 0.0000407 -0.0006156 0.0001186 -0.0003279 0.0000785 -0.0002778 0.0000068 -0.0001712 -0.0000568 -0.0002897 0.0000048 -0.0001455 -0.0000339 -0.0004090 0.0000156 -0.0003830 -0.0000343 -0.0002444 0.0009462 -0.0014645 -0.0000185 -0.0001430 -0.0000587 -0.0001434 -0.0005237 0.0005862 0.0001555 -0.0004450 0.0000824 -0.0002676 0.0001367 -0.0002427 0.0001369 -0.0003367 0.0000094 0.0000090 -0.0000269 0.0001774 -0.0000705 -0.0001481 -0.0000772 -0.0001953 -0.0000126 -0.0002815 -0.0000227 -0.0003175 0.0001080 -0.0004913 0.0002602 -0.0010882 0.0000759 -0.0004337 0.0000553 -0.0003937 -0.0002593 0.0001215 0.0000114 -0.0004906 0.0000892 -0.0006144 0.0001035 -0.0002134 0.0000289 -0.0002261 0.0000842 -0.0004496 -0.0000373 -0.0003043 0.0000967 -0.0006957 -0.0000918 -0.0006216 -0.0000014 -0.0004950 0.0000869 -0.0005702 0.0002936 -0.0008746 -0.0000982 -0.0000974 -0.0000601 -0.0000894 -0.0000510 -0.0001380 -0.0000074 -0.0004900 -0.0002347 0.0000629 0.0000559 -0.0006092 0.0000651 -0.0003935 0.0001472 -0.0005986 -0.0000968 -0.0001503 0.0001237 -0.0007988 -0.0000088 -0.0004064 0.0000408 -0.0007073
0.0003015 -0.0009523 -0.0000643 -0.0003520 0.0003234 -0.0009088 0.0001082 -0.0003449 0.0000296 -0.0001991 0.0002571 -0.0008691 0.0001198 -0.0005172 0.0001624 -0.0003248 0.0002360 -0.0005744 0.0000923 -0.0003671 0.0000638 -0.0007225 0.0000201 -0.0002559 0.0002825 -0.0004115 -0.0000288 -0.0005034 -0.0001638 -0.0018149 0.0000485 -0.0011390 0.0000239 -0.0011548 0.0001663 -0.0011077 0.0001563 -0.0013855 0.0001884 -0.0014123 0.0000753 -0.0007135 0.0000189 -0.0011738 -0.0002056 -0.0010847 0.0001068 -0.0005487 0.0001465 -0.0004899 0.0000519 -0.0000866 0.0000617 0.0000906 0.0001769 -0.0005792 0.0000603 0.0001133 0.0001619 -0.0005381 0.0000515 -0.0004294 0.0001297 -0.0005620 0.0000657 -0.0003004 0.0000504 -0.0005794 0.0000007 -0.0005271 0.0002626 -0.0001284 -0.0000031 -0.0001240 -0.0000548 -0.0002248 0.0001366 -0.0006771 0.0000634 -0.0004403 0.0000754 -0.0006730 0.0000895 -0.0005131 0.0000681 -0.0002832 -0.0000425 -0.0001859 0.0002447 -0.0008795 0.0000439 -0.0004888 0.0004277 -0.0010198 -0.0001272 -0.0004493 0.0003273 -0.0004104 -0.0006305 -0.0003656 0.0000476 -0.0005222 0.0002410 -0.0009676 -0.0000063 -0.0006084 0.0000747 -0.0001866 0.0002054 0.0001395 0.0001082 -0.0004838 -0.0001431 -0.0009106 0.0000244 -0.0007680 0.0001290 -0.0004594 0.0000970 -0.0003956 0.0000300 -0.0003038 0.0001375 -0.0005702 0.0000077 -0.0001777 -0.0000794 -0.0005762 0.0000029 -0.0005786 -0.0000289 -0.0005084 0.0017959 -0.0022931 -0.0000351 -0.0003655 0.0001932 -0.0008043 -0.0002089 -0.0000527 0.0002129 -0.0007700 0.0001217 -0.0005980 0.0000983 -0.0005715 0.0002184 -0.0007354 0.0000784 -0.0001808 -0.0000104 -0.0001760 -0.0000305 -0.0002617 0.0000014 -0.0005014 0.0000348 -0.0005191 -0.0000446 -0.0005072 0.0001325 -0.0007702 -0.0000380 -0.0010734 0.0001108 -0.0006551 0.0000688 -0.0005399 -0.0003452 -0.0001109 0.0000398 -0.0006615 0.0000747 -0.0007921 -0.0001728 -0.0002854 0.0004676 -0.0007910 0.0001108 -0.0006196 -0.0000234 -0.0004729 0.0003872 -0.0011356 -0.0001924 -0.0007429 0.0000423 -0.0006935 0.0001190 -0.0007448 0.0002482 -0.0009899 -0.0000636 -0.0003875 -0.0000709 -0.0002038 -0.0000265 -0.0002456 0.0000087 -0.0006255 0.0000457 -0.0000163 0.0000891 -0.0007773 0.0002072 -0.0004144 0.0000991 -0.0006316 -0.0002502 -0.0001527 0.0001738 -0.0009567 0.0000371 -0.0005079 0.0000807 -0.0008113
0.0002794 -0.0011314 0.0001474 -0.0006841 -0.0000119 -0.0006617 0.0001163 -0.0004383 0.0000352 -0.0002496 0.0003324 -0.0010580 0.0003019 -0.0008067 0.0001644 -0.0003578 0.0002947 -0.0007615 0.0001590 -0.0005431 -0.0000078 -0.0008475 0.0000467 -0.0003861 0.0002017 -0.0005741 -0.0000337 -0.0005953 -0.0001794 -0.0020514 0.0000540 -0.0012787 0.0000366 -0.0013596 0.0001845 -0.0012962 0.0001506 -0.0015783 0.0001806 -0.0015577 0.0000713 -0.0008173 0.0000094 -0.0012950 -0.0000065 -0.0013700 0.0001422 -0.0006677 0.0001542 -0.0005567 0.0000945 -0.0001548 0.0000987 0.0000444 0.0001862 -0.0006371 0.0000677 0.0000882 0.0002066 -0.0006681 0.0000467 -0.0004781 0.0001242 -0.0006993 0.0000900 -0.0004372 0.0000746 -0.0007182 0.0000500 -0.0006354 0.0001933 -0.0001183 0.0001052 -0.0002912 0.0000738 -0.0003308 0.0001608 -0.0007853 0.0000603 -0.0004767 0.0000830 -0.0007738 0.0000938 -0.0006165 0.0000637 -0.0003134 -0.0000519 -0.0002389 0.0003550 -0.0011182 0.0000795 -0.0005911 0.0002692 -0.0010277 -0.0003820 -0.0002680 0.0004517 -0.0003995 -0.0000198 -0.0009448 0.0000497 -0.0005308 0.0002268 -0.0009460 -0.0000024 -0.0006615 0.0000946 -0.0002107 0.0002151 0.0001807 0.0001683 -0.0005576 -0.0001512 -0.0009758 0.0002041 -0.0010049 0.0000686 -0.0003954 0.0001108 -0.0004710 0.0000632 -0.0004476 0.0001005 -0.0006072 0.0000124 -0.0001958 -0.0000710 -0.0006108 -0.0000039 -0.0006276 -0.0000190 -0.0005494 0.0006756 -0.0011049 0.0000281 -0.0004343 0.0001062 -0.0008584 0.0001364 -0.0004456 0.0001981 -0.0008243 0.0001533 -0.0006318 0.0001181 -0.0006524 0.0002230 -0.0007416 0.0000142 -0.0002512 0.0001747 -0.0004655 -0.0000295 -0.0003243 -0.0000045 -0.0006494 0.0000748 -0.0005753 -0.0000570 -0.0004587 0.0001446 -0.0007947 -0.0003305 -0.0009228 0.0001667 -0.0007525 0.0000957 -0.0005906 -0.0001249 -0.0003244 0.0000313 -0.0006824 -0.0000718 -0.0007232 -0.0000210 -0.0006111 0.0003331 -0.0008293 0.0001232 -0.0006412 -0.0000376 -0.0004970 0.0004022 -0.0012266 0.0001877 -0.0011105 0.0001857 -0.0008438 0.0001230 -0.0007667 0.0002647 -0.0009787 -0.0001564 -0.0003866 -0.0001173 -0.0001816 -0.0000483 -0.0002100 0.0000465 -0.0006665 0.0006431 -0.0004616 0.0000478 -0.0007463 -0.0005235 0.0000591 0.0001092 -0.0006954 0.0001382 -0.0005281 0.0002039 -0.0009815 0.0000505 -0.0005069 0.0000593 -0.0007691
0.0002883 -0.0011442 0.0001675 -0.0007220 -0.0002956 -0.0004773 0.0001363 -0.0004978 0.0000399 -0.0002496 0.0003782 -0.0011601 0.0002894 -0.0008744 0.0001427 -0.0003619 0.0003106 -0.0008741 0.0001766 -0.0006495 -0.0001132 -0.0009186 0.0000477 -0.0004572 0.0001173 -0.0006435 -0.0000244 -0.0006462 -0.0001908 -0.0022232 0.0000698 -0.0013635 0.0000555 -0.0014706 0.0002218 -0.0014238 0.0001442 -0.0016212 0.0002616 -0.0016828 0.0000872 -0.0008721 0.0000039 -0.0013514 -0.0001046 -0.0011789 0.0001672 -0.0007132 0.0001574 -0.0005788 0.0001250 -0.0001814 0.0000771 0.0000268 0.0001987 -0.0006352 0.0000643 0.0001010 0.0002279 -0.0007193 0.0000359 -0.0004561 0.0002394 -0.0009244 0.0001186 -0.0005234 0.0001060 -0.0007900 0.0000612 -0.0006583 0.0000702 -0.0001447 0.0001396 -0.0003364 0.0001232 -0.0003300 0.0001480 -0.0008536 0.0000553 -0.0004811 0.0001071 -0.0008462 0.0001464 -0.0007129 0.0000534 -0.0003598 0.0002988 -0.0004932 0.0000512 -0.0010537 0.0002430 -0.0008109 -0.0001153 -0.0007115 -0.0003732 -0.0003931 -0.0001172 -0.0003023 -0.0007438 -0.0001531 0.0001366 -0.0007116 0.0002510 -0.0008561 0.0000214 -0.0007474 0.0001373 -0.0002824 0.0002288 0.0001477 0.0002024 -0.0007942 -0.0001821 -0.0011200 0.0002082 -0.0012363 0.0000568 -0.0005563 0.0001116 -0.0006098 0.0000986 -0.0006366 0.0000646 -0.0007496 0.0000498 -0.0002484 -0.0000746 -0.0006440 0.0000094 -0.0007243 -0.0000084 -0.0006368 -0.0011837 -0.0001724 0.0000711 -0.0005889 0.0003783 -0.0009072 0.0002094 -0.0006156 0.0001764 -0.0008803 0.0001624 -0.0007058 0.0000864 -0.0007849 0.0002449 -0.0008264 0.0000877 -0.0004409 0.0001618 -0.0005824 -0.0000133 -0.0004199 0.0002180 -0.0008883 0.0000674 -0.0006399 0.0000380 -0.0005282 0.0001644 -0.0008688 0.0000919 -0.0014284 0.0001485 -0.0007854 0.0000985 -0.0006386 0.0001035 -0.0006362 0.0000174 -0.0007559 -0.0001903 -0.0007509 0.0000635 -0.0007314 0.0002308 -0.0008106 0.0001224 -0.0006883 -0.0000510 -0.0005469 0.0005204 -0.0014228 0.0001989 -0.0011493 0.0000852 -0.0007844 0.0001249 -0.0008098 0.0004571 -0.0011252 -0.0001683 -0.0003326 -0.0000978 -0.0002311 -0.0000470 -0.0002117 0.0000196 -0.0006280 0.0005346 -0.0006036 0.0001069 -0.0007853 0.0003930 -0.0007196 -0.0000998 -0.0005621 0.0000195 -0.0004898 0.0002123 -0.0009834 0.0000424 -0.0004491 0.0000366 -0.0007182
0.0001426 -0.0010232 -0.0002380 -0.0002620 -0.0001985 -0.0006416 0.0001432 -0.0005176 0.0000354 -0.0002326 0.0004158 -0.0011908 0.0002904 -0.0009527 0.0001057 -0.0003169 0.0003375 -0.0009680 0.0002156 -0.0007822 0.0000110 -0.0011330 0.0000422 -0.0005321 0.0002401 -0.0008279 -0.0000158 -0.0006847 -0.0002166 -0.0023581 0.0000687 -0.0014133 0.0000743 -0.0015517 0.0002186 -0.0014632 0.0001355 -0.0015989 0.0002563 -0.0016410 0.0001049 -0.0009200 -0.0000158 -0.0013824 0.0000442 -0.0013713 0.0001877 -0.0007012 0.0001664 -0.0005681 0.0001292 -0.0001749 0.0000548 0.0000375 0.0001892 -0.0005829 0.0000509 0.0001191 0.0002354 -0.0007077 0.0000242 -0.0003966 0.0002882 -0.0010001 0.0001215 -0.0005742 0.0001162 -0.0008232 0.0000746 -0.0006591 0.0000786 -0.0001729 0.0001075 -0.0002311 0.0000457 -0.0002169 0.0001346 -0.0008409 0.0000220 -0.0004074 0.0001371 -0.0008399 0.0001447 -0.0007216 0.0000845 -0.0003280 0.0003923 -0.0004732 -0.0000241 -0.0009212 0.0001528 -0.0006347 0.0001943 -0.0007868 0.0000643 -0.0008127 -0.0003598 -0.0001756 -0.0011462 0.0001642 0.0000622 -0.0006163 0.0000597 -0.0006494 0.0000288 -0.0006872 0.0001441 -0.0002388 0.0002228 0.0002392 0.0002093 -0.0007749 -0.0001449 -0.0011299 0.0001085 -0.0011504 0.0000709 -0.0005527 0.0000696 -0.0005587 0.0001015 -0.0006755 0.0001151 -0.0007901 0.0000819 -0.0002770 -0.0000549 -0.0006143 0.0000135 -0.0006906 0.0000072 -0.0006051 0.0002261 -0.0014320 0.0000091 -0.0005087 0.0012388 -0.0014594 -0.0004293 -0.0001841 0.0001880 -0.0008538 0.0001325 -0.0006475 0.0000104 -0.0006806 0.0002902 -0.0008498 0.0001899 -0.0005900 0.0001359 -0.0006207 -0.0000120 -0.0004174 0.0002370 -0.0010292 0.0000427 -0.0005938 0.0000607 -0.0004394 0.0001721 -0.0008358 0.0003372 -0.0015259 0.0001121 -0.0007412 0.0000830 -0.0005800 0.0000356 -0.0006631 0.0000502 -0.0007563 -0.0001447 -0.0007732 0.0001094 -0.0006854 0.0001711 -0.0007611 0.0001237 -0.0006615 -0.0000409 -0.0005213 0.0005440 -0.0014144 0.0000945 -0.0009935 -0.0000151 -0.0006599 0.0001134 -0.0007699 0.0002032 -0.0008211 -0.0000536 -0.0004874 -0.0000882 -0.0001864 -0.0000336 -0.0001865 0.0000710 -0.0006016 0.0000478 -0.0002696 0.0001850 -0.0008305 0.0007526 -0.0008654 -0.0002274 -0.0003262 -0.0003756 -0.0000083 0.0002102 -0.0009344 0.0000192 -0.0003389 0.0000638 -0.0006576
0.0001536 -0.0008572 -0.0000555 -0.0004181 0.0002616 -0.0008258 0.0001438 -0.0004764 0.0000366 -0.0001659 0.0004372 -0.0011463 0.0003000 -0.0009242 0.0000979 -0.0002462 0.0003184 -0.0009560 0.0001905 -0.0007813 0.0000072 -0.0011372 0.0000541 -0.0005351 0.0000700 -0.0007055 -0.0000027 -0.0006207 -0.0001923 -0.0024421 0.0000732 -0.0013167 0.0000748 -0.0015170 0.0002366 -0.0014013 0.0001261 -0.0014878 0.0002393 -0.0015114 0.0001122 -0.0009012 -0.0000186 -0.0013726 -0.0000409 -0.0013224 0.0002019 -0.0006439 0.0001572 -0.0004960 0.0001247 -0.0001414 0.0000624 0.0000756 0.0001508 -0.0004917 0.0000392 0.0001559 0.0002169 -0.0006471 -0.0000019 -0.0003105 0.0003634 -0.0010046 0.0001142 -0.0005639 0.0001070 -0.0007955 0.0000640 -0.0006249 0.0000478 -0.0000839 0.0000884 -0.0002431 0.0000394 -0.0002668 0.0001218 -0.0008567 0.0000057 -0.0003894 0.0001161 -0.0008254 0.0002024 -0.0007290 0.0000682 -0.0002795 0.0003173 -0.0004392 0.0000416 -0.0008183 0.0001822 -0.0006403 0.0000578 -0.0006856 0.0000431 -0.0007835 -0.0009468 0.0003031 -0.0000005 -0.0006388 0.0000081 -0.0005802 -0.0000099 -0.0004573 0.0000294 -0.0006578 0.0001288 -0.0001688 0.0002021 0.0003195 0.0001694 -0.0006840 -0.0000797 -0.0011582 0.0001986 -0.0012305 0.0000664 -0.0005345 0.0000382 -0.0005242 0.0000999 -0.0007385 0.0000340 -0.0007453 0.0000833 -0.0002819 -0.0000322 -0.0005516 0.0000026 -0.0006442 0.0000222 -0.0005726 0.0000353 -0.0011948 -0.0000072 -0.0004704 0.0009057 -0.0011837 -0.0002646 -0.0004911 0.0002004 -0.0008231 0.0001795 -0.0006387 -0.0000311 -0.0005790 0.0003350 -0.0008624 0.0002192 -0.0006976 0.0002697 -0.0008539 -0.0000280 -0.0004471 0.0001310 -0.0010115 0.0000470 -0.0005700 0.0000572 -0.0003503 0.0001594 -0.0007991 0.0001391 -0.0012413 0.0001400 -0.0007282 0.0000659 -0.0005213 -0.0001573 -0.0004704 0.0000675 -0.0007147 -0.0001061 -0.0007991 -0.0000590 -0.0004895 0.0002063 -0.0006920 0.0001241 -0.0005904 -0.0000345 -0.0004549 0.0003676 -0.0011385 0.0001664 -0.0009737 -0.0000338 -0.0005376 0.0000784 -0.0006301 0.0000174 -0.0004794 -0.0000635 -0.0004344 -0.0001059 -0.0000791 -0.0000374 -0.0001169 0.0001449 -0.0005764 0.0001285 -0.0004128 0.0000900 -0.0006741 -0.0000847 -0.0001957 -0.0000725 -0.0002451 -0.0000659 -0.0001035 0.0001215 -0.0007666 -0.0000061 -0.0002104 0.0000166 -0.0005166
0.0003280 -0.0007946 -0.0001753 -0.0004503 0.0006226 -0.0009141 0.0001636 -0.0004239 0.0000514 -0.0000948 0.0004220 -0.0010445 0.0003543 -0.0008929 0.0001165 -0.0001817 0.0002967 -0.0009123 0.0001277 -0.0007328 -0.0001511 -0.0010636 0.0000721 -0.0005230 0.0000018 -0.0006450 0.0000032 -0.0005082 -0.0001474 -0.0024660 0.0000827 -0.0011804 0.0000791 -0.0014391 0.0002764 -0.0013076 0.0000988 -0.0012907 0.0002270 -0.0013631 0.0001086 -0.0008437 -0.0000031 -0.0013249 -0.0002286 -0.0011329 0.0001887 -0.0005118 0.0001403 -0.0004136 0.0001044 -0.0000800 0.0000539 0.0001456 0.0001143 -0.0003691 0.0000332 0.0001944 0.0001781 -0.0005163 -0.0000162 -0.0002031 0.0003257 -0.0008622 0.0001017 -0.0004902 0.0001194 -0.0007277 0.0000692 -0.0005426 0.0000359 -0.0000049 0.0000320 -0.0001742 -0.0000112 -0.0001846 0.0000967 -0.0007537 -0.0000102 -0.0002894 0.0000716 -0.0006931 0.0002194 -0.0006281 0.0000551 -0.0001836 0.0001661 -0.0002357 -0.0000366 -0.0005608 0.0001900 -0.0005770 -0.0004193 -0.0002715 -0.0000223 -0.0005025 -0.0012593 0.0005890 -0.0004448 -0.0003316 0.0001301 -0.0006325 0.0002018 -0.0005832 0.0000396 -0.0005856 0.0001296 -0.0001214 0.0002314 0.0003729 0.0001536 -0.0005622 -0.0001258 -0.0010490 0.0002420 -0.0012482 0.0000751 -0.0004929 0.0000041 -0.0004326 0.0001128 -0.0007436 -0.0000465 -0.0006862 0.0000670 -0.0002496 -0.0000313 -0.0004515 -0.0000032 -0.0005787 0.0000243 -0.0005088 -0.0016666 0.0001770 -0.0000259 -0.0004140 -0.0000495 -0.0001342 0.0000622 -0.0006542 0.0002056 -0.0007542 0.0001817 -0.0005562 0.0000170 -0.0005461 0.0002809 -0.0007729 0.0002507 -0.0007581 0.0001070 -0.0006296 -0.0000263 -0.0004653 0.0001713 -0.0009709 0.0000794 -0.0005522 0.0000341 -0.0002515 0.0001449 -0.0007354 0.0000749 -0.0011520 0.0001658 -0.0006433 0.0000647 -0.0004529 0.0000366 -0.0004692 0.0000509 -0.0006272 -0.0000296 -0.0008649 -0.0002938 -0.0000935 0.0005222 -0.0008229 0.0001149 -0.0005131 -0.0000318 -0.0003864 0.0003911 -0.0010729 0.0003735 -0.0010236 -0.0000487 -0.0004080 0.0000853 -0.0005338 0.0000809 -0.0004022 0.0000670 -0.0003570 -0.0001239 0.0000036 -0.0000654 -0.0000037 0.0001336 -0.0004751 0.0001944 -0.0006100 0.0000594 -0.0005522 -0.0001868 -0.0000946 -0.0000814 -0.0001182 -0.0000169 -0.0001710 0.0001179 -0.0006765 -0.0000485 -0.0000798 -0.0000046 -0.0003923
0.0003222 -0.0006836 -0.0000560 -0.0003870 -0.0000535 -0.0003888 0.0001774 -0.0003597 0.0000552 -0.0000195 0.0004206 -0.0009159 0.0004054 -0.0008070 0.0001261 -0.0000954 0.0002970 -0.0008261 0.0001352 -0.0007209 -0.0000140 -0.0011353 0.0000660 -0.0004956 0.0002317 -0.0008354 0.0000074 -0.0004157 -0.0001332 -0.0024417 0.0000844 -0.0010688 0.0000810 -0.0013808 0.0002546 -0.0012244 0.0000595 -0.0011551 0.0001866 -0.0012210 0.0001143 -0.0008341 0.0000311 -0.0012937 -0.0000606 -0.0012012 0.0001802 -0.0005281 0.0001333 -0.0004145 0.0001403 -0.0001492 0.0000674 0.0000477 0.0001078 -0.0004962 0.0000334 0.0000524 0.0001385 -0.0006255 -0.0000319 -0.0004305 0.0003815 -0.0010677 0.0001251 -0.0005616 0.0001351 -0.0008814 0.0000841 -0.0005607 0.0000865 -0.0001350 0.0000283 -0.0001944 -0.0000546 -0.0000781 0.0000782 -0.0008866 -0.0000249 -0.0003912 0.0000812 -0.0007216 0.0002049 -0.0007262 0.0000609 -0.0001937 -0.0001734 0.0000322 0.0001170 -0.0008432 0.0001462 -0.0005888 -0.0001424 -0.0004457 -0.0000474 -0.0005836 0.0009352 -0.0011199 -0.0005671 -0.0004660 0.0003054 -0.0007305 -0.0000647 -0.0004548 0.0000673 -0.0006187 0.0001164 -0.0001492 0.0002334 0.0003735 0.0002126 -0.0006187 -0.0001320 -0.0010813 0.0002265 -0.0013279 0.0000864 -0.0005625 0.0000541 -0.0005249 0.0001164 -0.0008153 -0.0001477 -0.0006297 0.0000864 -0.0002716 -0.0000492 -0.0004400 0.0000029 -0.0005940 0.0000300 -0.0004946 -0.0020457 0.0004023 -0.0000353 -0.0004059 -0.0006988 0.0002903 -0.0001861 -0.0004549 0.0002006 -0.0007335 0.0001518 -0.0005004 -0.0001700 -0.0004053 0.0003045 -0.0007897 0.0002085 -0.0008181 0.0000604 -0.0006521 0.0000022 -0.0004698 -0.0000393 -0.0007694 0.0000952 -0.0005536 0.0000061 -0.0002855 0.0001627 -0.0007267 0.0000863 -0.0011773 0.0001903 -0.0005895 0.0000845 -0.0004364 -0.0002787 -0.0003261 0.0000678 -0.0006052 -0.0000302 -0.0008012 -0.0000635 -0.0002383 0.0002584 -0.0007562 0.0001089 -0.0005195 -0.0000463 -0.0003741 0.0003635 -0.0011637 0.0003991 -0.0011265 0.0000348 -0.0005373 0.0000918 -0.0005554 0.0001817 -0.0005476 0.0001587 -0.0004659 -0.0001094 -0.0000154 -0.0000951 0.0000357 0.0001470 -0.0004491 0.0001290 -0.0001994 0.0000087 -0.0004661 -0.0006569 0.0003995 -0.0003251 0.0000452 0.0000151 -0.0001174 0.0001420 -0.0006654 -0.0000872 0.0000038 -0.0000061 -0.0002908
0.0003231 -0.0006689 0.0003447 -0.0005050 -0.0004511 -0.0000858 0.0001682 -0.0003187 0.0000494 -0.0000026 0.0004144 -0.0008081 0.0002906 -0.0006767 0.0001096 -0.0000277 0.0003209 -0.0008258 0.0001406 -0.0007131 0.0000125 -0.0011858 0.0000638 -0.0004768 0.0002674 -0.0009080 0.0000113 -0.0003655 -0.0001033 -0.0024898 0.0000727 -0.0009796 0.0000508 -0.0013275 0.0002518 -0.0011584 0.0000249 -0.0010194 0.0001696 -0.0011044 0.0001164 -0.0007651 0.0000473 -0.0012445 0.0000617 -0.0012333 0.0001608 -0.0004578 0.0001162 -0.0003846 0.0001013 -0.0000972 0.0000540 0.0000483 0.0000745 -0.0004592 0.0000271 0.0000368 0.0001003 -0.0005653 -0.0000526 -0.0004011 0.0003331 -0.0010032 0.0001003 -0.0004721 0.0001237 -0.0007899 0.0000599 -0.0004333 -0.0000374 -0.0000416 0.0000219 -0.0002168 -0.0000404 -0.0000218 0.0000661 -0.0008144 -0.0000225 -0.0003674 0.0000895 -0.0006161 0.0001853 -0.0006687 0.0000435 -0.0001344 -0.0001176 -0.0000634 0.0003165 -0.0008647 0.0000920 -0.0005004 0.0000910 -0.0004730 -0.0003487 -0.0002877 0.0008099 -0.0008543 0.0000317 -0.0007145 0.0001760 -0.0005372 -0.0005971 0.0000917 0.0000658 -0.0005802 0.0000947 -0.0001216 0.0002128 0.0003734 0.0002051 -0.0005646 -0.0000976 -0.0011181 0.0001229 -0.0010867 0.0000992 -0.0005534 0.0000838 -0.0004930 0.0001099 -0.0007662 -0.0001473 -0.0005040 0.0000883 -0.0002199 -0.0000348 -0.0004202 -0.0000167 -0.0005232 0.0000199 -0.0004165 -0.0008218 -0.0004579 -0.0000320 -0.0003460 -0.0010197 -0.0000678 -0.0010267 0.0002967 0.0001784 -0.0006078 0.0001171 -0.0003907 -0.0000989 -0.0003905 0.0003225 -0.0007126 0.0001711 -0.0007856 0.0001484 -0.0006725 0.0000077 -0.0004362 -0.0001473 -0.0005531 0.0001109 -0.0004899 -0.0000231 -0.0002248 0.0001610 -0.0006431 0.0002312 -0.0010925 0.0001569 -0.0004737 0.0000826 -0.0003484 -0.0003444 -0.0002041 0.0000446 -0.0005022 -0.0000688 -0.0006572 -0.0001393 -0.0001415 -0.0000685 -0.0004636 0.0001122 -0.0004313 -0.0000530 -0.0002684 0.0002892 -0.0009927 0.0001779 -0.0008798 -0.0000202 -0.0004036 0.0000525 -0.0004171 0.0001665 -0.0005098 -0.0002008 -0.0001632 -0.0000941 0.0000193 -0.0001189 0.0001088 0.0001238 -0.0003397 0.0001361 0.0000589 -0.0000117 -0.0003445 -0.0000846 0.0001137 -0.0000762 -0.0000626 0.0000974 0.0000265 0.0000663 -0.0005483 -0.0001356 0.0001217 -0.0001154 -0.0001278
0.0002530 -0.0004579 0.0003667 -0.0004637 -0.0001123 -0.0002811 0.0001592 -0.0002703 0.0000482 0.0000042 0.0003806 -0.0007471 0.0002039 -0.0006129 0.0000757 -0.0000205 0.0002720 -0.0008098 0.0001178 -0.0007164 0.0002284 -0.0013900 0.0000641 -0.0005042 0.0001849 -0.0008926 -0.0000021 -0.0003763 -0.0000662 -0.0025750 0.0000486 -0.0009894 0.0000431 -0.0013738 0.0002124 -0.0011496 0.0000158 -0.0010195 0.0001723 -0.0011538 0.0001208 -0.0007836 0.0000387 -0.0012521 0.0004737 -0.0016933 0.0001418 -0.0004709 0.0001105 -0.0004358 0.0000352 -0.0000931 0.0000357 0.0000041 0.0000241 -0.0004715 0.0000240 -0.0000205 0.0000703 -0.0005878 -0.0000485 -0.0004628 0.0002607 -0.0009364 0.0000981 -0.0003762 0.0001125 -0.0007333 0.0000378 -0.0003488 -0.0000089 -0.0001755 0.0000733 -0.0003332 -0.0000150 -0.0000916 0.0000431 -0.0007888 0.0000001 -0.0004176 0.0000791 -0.0005182 0.0001679 -0.0006512 0.0000417 -0.0001326 0.0001484 -0.0003367 0.0001823 -0.0005774 0.0000348 -0.0004812 0.0002298 -0.0004394 -0.0005766 0.0000095 -0.0005791 0.0001719 0.0003432 -0.0007583 0.0000755 -0.0004521 -0.0001834 -0.0003400 0.0000628 -0.0005600 0.0000956 -0.0001499 0.0002374 0.0002777 0.0001425 -0.0005141 -0.0000913 -0.0011653 -0.0000409 -0.0008973 0.0001197 -0.0005975 0.0000421 -0.0004113 0.0001045 -0.0007237 -0.0000748 -0.0005581 0.0000898 -0.0001769 -0.0000455 -0.0004291 -0.0000160 -0.0005096 0.0000124 -0.0004031 -0.0005843 0.0000028 -0.0000585 -0.0003279 -0.0005316 -0.0004334 -0.0015177 0.0005590 0.0001771 -0.0005674 0.0001451 -0.0003979 0.0001529 -0.0005963 0.0002631 -0.0006633 0.0002247 -0.0008816 0.0000124 -0.0004447 -0.0000020 -0.0004260 -0.0001941 -0.0005513 0.0001342 -0.0005011 0.0000102 -0.0002635 0.0001552 -0.0006420 0.0001152 -0.0008933 0.0001603 -0.0004491 0.0000717 -0.0002937 -0.0000132 -0.0003659 0.0000544 -0.0004339 -0.0000637 -0.0006933 -0.0005734 0.0001569 0.0002789 -0.0005576 0.0001297 -0.0004151 -0.0000444 -0.0002469 0.0005753 -0.0010865 0.0000031 -0.0007118 -0.0000144 -0.0002708 0.0000333 -0.0003181 0.0003199 -0.0005785 -0.0002941 0.0000597 -0.0000960 0.0000510 -0.0001141 0.0001404 0.0000919 -0.0002309 -0.0001272 0.0000657 0.0000019 -0.0003191 0.0001061 -0.0000196 0.0002152 -0.0002609 -0.0001839 0.0002477 0.0000509 -0.0005174 -0.0001328 0.0001050 -0.0001346 -0.0001564
0.0001658 -0.0004064 0.0004161 -0.0005827 0.0001329 -0.0003710 0.0001357 -0.0002756 0.0000421 -0.0000214 0.0003443 -0.0007071 0.0001704 -0.0005215 0.0000576 -0.0000326 0.0002496 -0.0007781 0.0000981 -0.0006591 0.0001946 -0.0012363 0.0000489 -0.0004559 0.0002119 -0.0008463 0.0000069 -0.0003991 -0.0001259 -0.0025016 0.0000353 -0.0010122 0.0000362 -0.0013318 0.0001830 -0.0010248 -0.0000178 -0.0009396 0.0001411 -0.0011268 0.0001205 -0.0006943 0.0000394 -0.0012135 0.0003935 -0.0017081 0.0001157 -0.0004524 0.0001101 -0.0004479 0.0000559 -0.0001338 0.0000377 -0.0000595 0.0000217 -0.0005002 0.0000353 -0.0000839 0.0000680 -0.0006071 -0.0000335 -0.0005338 0.0003747 -0.0008873 0.0000701 -0.0002421 0.0000703 -0.0006149 0.0000404 -0.0002419 0.0002013 -0.0004615 0.0001106 -0.0003583 -0.0000005 -0.0002015 0.0000395 -0.0007636 0.0000216 -0.0004545 0.0000720 -0.0004341 0.0001279 -0.0005793 0.0000228 -0.0001072 0.0001610 -0.0003087 -0.0000549 -0.0003720 0.0000885 -0.0004967 0.0003875 -0.0004228 -0.0005060 -0.0000022 -0.0002893 -0.0001053 -0.0002045 -0.0002792 0.0001375 -0.0004263 0.0000782 -0.0006778 0.0000563 -0.0005389 0.0000869 -0.0001628 0.0002483 0.0002044 0.0000704 -0.0004672 -0.0000793 -0.0012109 0.0000275 -0.0010182 0.0001572 -0.0006711 0.0000492 -0.0003553 0.0000793 -0.0006286 -0.0001450 -0.0004176 0.0000912 -0.0001321 -0.0000779 -0.0004274 -0.0000108 -0.0005034 -0.0000023 -0.0003873 -0.0010457 0.0004630 -0.0000750 -0.0003009 0.0006123 -0.0012153 -0.0005502 -0.0001754 0.0002057 -0.0005584 0.0001755 -0.0003967 0.0000548 -0.0004353 0.0002286 -0.0006277 0.0001492 -0.0008036 0.0000853 -0.0004781 -0.0000033 -0.0003961 -0.0001922 -0.0004154 0.0001185 -0.0004960 0.0000227 -0.0003149 0.0001438 -0.0006320 0.0002192 -0.0010000 0.0002153 -0.0004714 0.0000664 -0.0002412 -0.0000002 -0.0003761 0.0000593 -0.0003525 -0.0003048 -0.0004796 -0.0008480 0.0002898 0.0004713 -0.0007341 0.0001167 -0.0004069 -0.0000289 -0.0002417 0.0005731 -0.0009638 0.0002900 -0.0009466 0.0000077 -0.0002654 0.0000714 -0.0003397 0.0003218 -0.0005603 -0.0001650 -0.0000596 -0.0000997 0.0000774 -0.0001262 0.0001560 0.0000409 -0.0001609 0.0000008 -0.0000278 -0.0000386 -0.0003116 -0.0001659 0.0001931 -0.0000529 -0.0000723 -0.0000010 0.0001484 0.0000199 -0.0005072 -0.0001034 0.0000328 -0.0000854 -0.0002665
0.0000283 -0.0003344 0.0003806 -0.0005729 0.0002652 -0.0004377 0.0001167 -0.0003293 0.0000297 -0.0000802 0.0003118 -0.0007638 0.0003378 -0.0006697 0.0000771 -0.0001332 0.0002642 -0.0008573 0.0001663 -0.0007672 -0.0001111 -0.0010584 0.0000493 -0.0005352 0.0004246 -0.0010128 0.0000160 -0.0005108 -0.0001415 -0.0025244 0.0000357 -0.0010937 0.0000563 -0.0013461 0.0001980 -0.0010041 -0.0000352 -0.0009622 0.0001469 -0.0012067 0.0001287 -0.0006291 0.0000340 -0.0011868 0.0000718 -0.0014020 0.0000813 -0.0004497 0.0001143 -0.0004653 0.0000999 -0.0002165 0.0000139 -0.0000908 0.0000266 -0.0005477 0.0000395 -0.0001548 0.0000690 -0.0006529 -0.0000052 -0.0006377 0.0003613 -0.0007556 0.0000531 -0.0001489 0.0000442 -0.0005375 0.0000373 -0.0001078 0.0002344 -0.0005063 0.0000300 -0.0003295 0.0000546 -0.0002334 0.0000527 -0.0007735 0.0000302 -0.0005027 0.0000649 -0.0003881 0.0001228 -0.0006005 0.0000186 -0.0001386 -0.0001608 -0.0000332 0.0001549 -0.0004645 0.0001236 -0.0005693 0.0002716 -0.0002622 -0.0000534 -0.0003314 -0.0004994 0.0000664 -0.0000939 -0.0002342 0.0000653 -0.0003312 0.0001475 -0.0008717 0.0000440 -0.0005200 0.0000982 -0.0001853 0.0002001 0.0001853 0.0001274 -0.0005168 -0.0000749 -0.0012765 -0.0000244 -0.0009819 0.0001859 -0.0007314 0.0000565 -0.0002970 0.0000658 -0.0005172 -0.0003605 -0.0001283 0.0000746 -0.0000564 -0.0000762 -0.0004640 -0.0000127 -0.0005061 -0.0000117 -0.0003843 0.0003860 -0.0009360 -0.0000393 -0.0003155 0.0014219 -0.0023343 0.0000053 -0.0004101 0.0001751 -0.0005193 0.0001589 -0.0003556 0.0000496 -0.0003614 0.0001937 -0.0005867 0.0001392 -0.0007333 0.0000926 -0.0004613 0.0000126 -0.0003522 -0.0000332 -0.0005391 0.0000912 -0.0004479 -0.0000249 -0.0002882 0.0001393 -0.0006042 0.0004739 -0.0011484 0.0001985 -0.0004307 0.0000812 -0.0002233 0.0001150 -0.0003018 0.0000150 -0.0002842 -0.0001385 -0.0005752 -0.0005564 0.0000620 0.0001152 -0.0004862 0.0001108 -0.0003863 -0.0000256 -0.0002242 0.0004766 -0.0009198 0.0002389 -0.0008097 -0.0000744 -0.0002057 0.0000580 -0.0003248 0.0001578 -0.0004293 -0.0001147 -0.0001302 -0.0000997 0.0000831 -0.0001148 0.0001316 -0.0000195 -0.0001329 0.0001297 -0.0000631 -0.0000007 -0.0003476 -0.0005064 0.0004226 -0.0001193 -0.0000060 -0.0000889 0.0002813 0.0000861 -0.0005557 -0.0001161 0.0000105 -0.0000307 -0.0003442
0.0000085 -0.0001799 0.0000113 -0.0002028 0.0004095 -0.0007029 0.0001033 -0.0003199 0.0000257 -0.0000985 0.0002567 -0.0007234 0.0003480 -0.0006611 0.0000660 -0.0001706 0.0002504 -0.0008780 0.0001612 -0.0007087 0.0000059 -0.0011527 0.0000586 -0.0004593 0.0002511 -0.0008285 -0.0000021 -0.0005237 -0.0001180 -0.0025220 0.0000255 -0.0010748 0.0000589 -0.0013170 0.0001764 -0.0008940 -0.0000321 -0.0009383 0.0001664 -0.0011743 0.0001010 -0.0005034 0.0000518 -0.0011568 -0.0002475 -0.0009563 0.0000449 -0.0003996 0.0001122 -0.0004512 0.0000819 -0.0002289 0.0000105 -0.0000985 0.0000324 -0.0005493 0.0000313 -0.0001636 0.0000637 -0.0006600 0.0000222 -0.0006960 0.0003302 -0.0006555 0.0000303 -0.0000477 0.0000452 -0.0004560 -0.0000081 0.0000624 0.0001751 -0.0004242 0.0000281 -0.0003508 0.0000653 -0.0002022 0.0000457 -0.0007500 0.0000567 -0.0005409 0.0000837 -0.0003871 0.0001628 -0.0006661 0.0000107 -0.0001462 -0.0001261 -0.0001643 0.0001448 -0.0003630 0.0000510 -0.0005586 0.0000163 0.0000009 0.0001655 -0.0005106 0.0003873 -0.0005723 0.0003133 -0.0004364 0.0000652 -0.0003593 0.0001748 -0.0008345 0.0000352 -0.0004812 0.0000939 -0.0002028 0.0002090 0.0001494 0.0002096 -0.0005423 -0.0000515 -0.0013303 -0.0000294 -0.0008954 0.0002094 -0.0007598 0.0000142 -0.0002094 0.0000109 -0.0003613 -0.0003631 -0.0000041 0.0000629 -0.0000099 -0.0000666 -0.0004893 -0.0000093 -0.0005052 0.0000055 -0.0003899 0.0016888 -0.0016214 -0.0000427 -0.0002944 0.0005066 -0.0008713 0.0000295 -0.0003575 0.0001377 -0.0004705 0.0001779 -0.0003269 0.0000498 -0.0003885 0.0002459 -0.0005791 0.0001713 -0.0007354 -0.0000309 -0.0003017 0.0000121 -0.0003017 0.0000298 -0.0007482 0.0000473 -0.0003576 0.0000778 -0.0004127 0.0001312 -0.0005526 0.0000901 -0.0008732 0.0001448 -0.0003287 0.0000932 -0.0001942 0.0002185 -0.0001695 0.0000081 -0.0002212 0.0000257 -0.0006723 -0.0000851 -0.0002411 -0.0001726 -0.0001110 0.0001297 -0.0003597 -0.0000385 -0.0001833 0.0003876 -0.0007816 -0.0001783 -0.0003320 -0.0000633 -0.0001705 0.0000328 -0.0002949 0.0000987 -0.0003892 -0.0000011 -0.0000664 -0.0000748 0.0000639 -0.0000752 0.0000841 0.0000225 -0.0001620 -0.0001315 0.0000002 -0.0000239 -0.0002990 -0.0008616 0.0006943 0.0000024 -0.0000753 -0.0005846 0.0005827 0.0001096 -0.0005966 -0.0000964 -0.0000732 0.0000074 -0.0004733
0.0001451 -0.0003032 0.0001680 -0.0003408 0.0002813 -0.0006560 0.0000985 -0.0003433 0.0000268 -0.0001187 0.0002191 -0.0007346 0.0002418 -0.0005803 0.0000600 -0.0002275 0.0002382 -0.0009042 0.0001349 -0.0006641 0.0002940 -0.0013870 0.0000748 -0.0004490 0.0002187 -0.0007732 -0.0000047 -0.0005492 -0.0000944 -0.0024859 0.0000267 -0.0010587 0.0000327 -0.0012633 0.0001666 -0.0008022 -0.0000238 -0.0008982 0.0001689 -0.0010919 0.0000778 -0.0004088 0.0000178 -0.0010777 -0.0004667 -0.0006771 0.0000208 -0.0003412 0.0000974 -0.0004122 0.0000560 -0.0002222 -0.0000038 -0.0000489 0.0000353 -0.0005227 0.0000377 -0.0001397 0.0000822 -0.0006634 0.0000372 -0.0007004 0.0003427 -0.0004689 0.0000091 0.0000596 0.0000266 -0.0003599 -0.0000244 0.0001572 0.0000587 -0.0002687 0.0001326 -0.0004366 0.0000626 -0.0001755 0.0000800 -0.0007394 0.0000951 -0.0005845 0.0001004 -0.0003437 0.0001156 -0.0006275 0.0000021 -0.0001348 0.0001444 -0.0004211 0.0000400 -0.0003265 -0.0000164 -0.0004958 0.0000404 -0.0000157 0.0000176 -0.0003945 0.0001118 -0.0003085 0.0009728 -0.0007778 -0.0000114 -0.0002033 0.0000621 -0.0007176 0.0000465 -0.0004294 0.0000899 -0.0002020 0.0002235 0.0001443 0.0001922 -0.0004349 -0.0000712 -0.0012734 0.0000652 -0.0008710 0.0001995 -0.0007203 -0.0000029 -0.0001115 -0.0000064 -0.0001854 -0.0000895 -0.0000963 0.0000566 0.0000399 -0.0000503 -0.0005165 -0.0000139 -0.0004685 -0.0000067 -0.0003564 0.0017001 -0.0013427 -0.0000862 -0.0002055 -0.0004516 0.0003034 -0.0000421 -0.0002358 0.0001840 -0.0004348 0.0001461 -0.0002332 -0.0000028 -0.0002207 0.0003127 -0.0005507 0.0001842 -0.0006442 0.0000615 -0.0002389 0.0000062 -0.0002243 -0.0001279 -0.0005448 0.0000287 -0.0002871 0.0001391 -0.0004452 0.0001099 -0.0004648 -0.0000361 -0.0007264 0.0001562 -0.0002742 0.0000846 -0.0001240 -0.0002839 0.0001999 0.0000441 -0.0001290 -0.0000727 -0.0004975 0.0001327 -0.0002630 -0.0000820 -0.0000339 0.0001242 -0.0002906 -0.0000367 -0.0001274 0.0004798 -0.0006368 -0.0000514 -0.0002753 -0.0001573 -0.0000268 0.0000645 -0.0002952 0.0001548 -0.0003644 -0.0000457 -0.0000251 -0.0000779 0.0001234 -0.0000846 0.0001060 0.0000527 -0.0001338 -0.0005179 0.0000691 -0.0000531 -0.0002393 -0.0001791 0.0002450 0.0000175 -0.0000042 -0.0007079 0.0006016 0.0000395 -0.0004801 -0.0000704 -0.0000757 -0.0000085 -0.0004325
0.0001871 -0.0003302 0.0001085 -0.0003172 0.0001061 -0.0004912 0.0000909 -0.0002585 0.0000296 -0.0000620 0.0002184 -0.0006687 0.0003831 -0.0005538 0.0000554 -0.0002213 0.0002221 -0.0008813 0.0001317 -0.0005356 0.0003600 -0.0013026 0.0000794 -0.0003149 0.0001985 -0.0006143 -0.0000029 -0.0004833 -0.0000637 -0.0024159 0.0000323 -0.0009381 0.0000412 -0.0011656 0.0001189 -0.0005984 -0.0000392 -0.0007597 0.0001630 -0.0009175 0.0000782 -0.0003101 0.0000067 -0.0009847 -0.0001023 -0.0008737 -0.0000020 -0.0002263 0.0000873 -0.0003172 0.0000557 -0.0001772 -0.0000222 0.0000401 0.0000255 -0.0004553 0.0000383 -0.0000724 0.0000896 -0.0006149 0.0000382 -0.0006413 0.0002762 -0.0002033 0.0000031 0.0001662 0.0000240 -0.0002606 -0.0000352 0.0002800 0.0000168 -0.0001334 0.0002395 -0.0004870 0.0000310 -0.0000734 0.0001003 -0.0006904 0.0001138 -0.0005859 0.0000803 -0.0002322 0.0001585 -0.0006142 0.0000112 -0.0001231 0.0000037 -0.0002147 0.0001118 -0.0003996 -0.0000069 -0.0005092 -0.0001527 0.0001811 -0.0001307 -0.0002526 -0.0007644 0.0004197 0.0006784 -0.0002869 -0.0001647 0.0000257 0.0003595 -0.0008444 0.0000392 -0.0003671 0.0001143 -0.0001614 0.0002164 0.0001904 0.0001499 -0.0003200 -0.0000419 -0.0012153 -0.0000431 -0.0006401 0.0001936 -0.0006778 -0.0000267 -0.0000039 0.0000093 -0.0000231 0.0001137 -0.0001225 0.0000405 0.0001125 -0.0000273 -0.0005030 -0.0000283 -0.0004193 -0.0000228 -0.0003109 0.0021977 -0.0014859 -0.0000826 -0.0001652 -0.0001214 -0.0004588 0.0000062 -0.0000431 0.0001682 -0.0003541 0.0000896 -0.0001118 -0.0000220 -0.0001004 0.0002545 -0.0004343 0.0001773 -0.0004957 0.0001529 -0.0000484 0.0000089 -0.0001317 -0.0003528 -0.0002536 0.0000105 -0.0002142 -0.0000556 -0.0002235 0.0000755 -0.0003619 0.0001948 -0.0008101 0.0001382 -0.0002122 0.0000896 -0.0000735 -0.0004395 0.0003878 0.0000884 -0.0000862 -0.0000788 -0.0004470 0.0001029 -0.0001638 0.0003158 -0.0003301 0.0001083 -0.0003218 -0.0000415 -0.0001213 0.0005442 -0.0007765 0.0001647 -0.0003931 -0.0000698 -0.0002183 0.0000687 -0.0003935 0.0002000 -0.0004991 0.0001454 -0.0003134 -0.0000990 0.0000521 -0.0000712 -0.0000246 0.0000352 -0.0002317 -0.0005482 -0.0000019 -0.0000848 -0.0004590 -0.0003047 0.0000854 0.0000076 -0.0002591 -0.0001519 -0.0000791 0.0000732 -0.0007962 -0.0000379 -0.0003192 0.0000111 -0.0007372
0.0001223 -0.0004157 0.0000498 -0.0003519 0.0004304 -0.0008224 0.0000617 -0.0002797 0.0000287 -0.0000867 0.0001520 -0.0006718 0.0003631 -0.0005276 0.0000590 -0.0002661 0.0002373 -0.0008819 0.0000975 -0.0004795 0.0001445 -0.0011021 0.0000609 -0.0002954 0.0000678 -0.0004934 -0.0000098 -0.0004615 -0.0000664 -0.0023651 0.0000282 -0.0009013 0.0000581 -0.0011603 0.0001260 -0.0005435 -0.0000507 -0.0007383 0.0001780 -0.0009068 0.0000767 -0.0003003 0.0000579 -0.0010107 0.0001635 -0.0010569 -0.0000231 -0.0001686 0.0000716 -0.0002778 0.0000560 -0.0001468 0.0000083 0.0000524 0.0000297 -0.0004405 0.0000385 -0.0000239 0.0000826 -0.0005816 0.0000534 -0.0006391 0.0000854 -0.0000266 -0.0000109 0.0001961 0.0000418 -0.0002315 -0.0000288 0.0002834 0.0001050 -0.0001670 0.0001966 -0.0004241 -0.0000396 0.0000549 0.0000737 -0.0006379 0.0001191 -0.0006052 0.0000569 -0.0002367 0.0001801 -0.0006390 0.0000190 -0.0001316 0.0000748 -0.0002902 0.0002019 -0.0004608 -0.0000770 -0.0004483 -0.0003577 0.0003212 0.0000749 -0.0002966 -0.0000879 0.0000056 0.0003237 -0.0001131 -0.0000713 -0.0000265 0.0005189 -0.0008713 -0.0000044 -0.0003401 0.0001205 -0.0001507 0.0002391 0.0001954 0.0001069 -0.0002429 -0.0000344 -0.0012025 -0.0001187 -0.0005267 0.0002066 -0.0006814 -0.0000187 0.0000160 -0.0000008 0.0000988 -0.0000323 0.0000646 0.0000036 0.0001618 -0.0000292 -0.0004819 -0.0000011 -0.0004237 -0.0000010 -0.0002955 0.0010271 -0.0000656 -0.0000538 -0.0001479 -0.0016085 0.0010750 0.0001991 -0.0001839 0.0001144 -0.0002880 0.0001036 -0.0000590 0.0000340 -0.0001355 0.0002245 -0.0003359 0.0001370 -0.0002715 0.0001129 0.0001089 -0.0000108 -0.0000647 -0.0001833 -0.0003297 -0.0000009 -0.0001379 -0.0001420 -0.0001105 0.0000416 -0.0002302 0.0005439 -0.0010825 0.0001094 -0.0001458 0.0000713 -0.0000163 -0.0001584 0.0003360 0.0000495 0.0000077 -0.0001055 -0.0003995 -0.0000059 -0.0000202 0.0000478 -0.0001124 0.0000983 -0.0002279 -0.0000466 -0.0000829 0.0001387 -0.0003072 0.0001504 -0.0002416 0.0000298 -0.0001720 0.0000037 -0.0002705 0.0001185 -0.0003483 0.0002222 -0.0003397 -0.0000905 0.0000682 -0.0000468 -0.0000117 0.0000292 -0.0001973 -0.0002044 0.0000286 -0.0001045 -0.0003817 -0.0000046 -0.0002335 -0.0002330 -0.0000565 0.0001003 -0.0002489 0.0000839 -0.0007111 -0.0000185 -0.0003094 0.0000112 -0.0006593
0.0001638 -0.0003451 0.0002906 -0.0003407 0.0005166 -0.0007988 0.0000456 -0.0001691 0.0000367 -0.0000149 0.0000833 -0.0005143 0.0002967 -0.0003673 0.0000433 -0.0002217 0.0001850 -0.0008370 0.0000680 -0.0003531 0.0001014 -0.0009644 0.0000352 -0.0001765 0.0002860 -0.0006212 -0.0000163 -0.0003550 -0.0001050 -0.0022396 0.0000099 -0.0007999 0.0000360 -0.0011101 0.0001419 -0.0005040 -0.0000616 -0.0006700 0.0000529 -0.0007214 0.0000653 -0.0002682 0.0000453 -0.0009534 0.0003487 -0.0011333 -0.0000478 -0.0000734 0.0000527 -0.0002076 0.0000703 -0.0001095 0.0000135 0.0001509 0.0000098 -0.0003335 0.0000420 0.0000798 0.0000697 -0.0004736 0.0000541 -0.0005695 -0.0001242 0.0002942 -0.0000301 0.0002209 0.0000090 -0.0001299 0.0000474 0.0002234 0.0001307 -0.0000896 0.0001676 -0.0003043 -0.0000231 0.0001076 0.0000560 -0.0005742 0.0001307 -0.0006046 0.0000233 -0.0002118 0.0001682 -0.0006295 0.0000225 -0.0001019 0.0001127 -0.0002580 0.0002284 -0.0004665 -0.0000229 -0.0004733 -0.0000079 -0.0000200 0.0001713 -0.0004162 0.0002486 -0.0002241 0.0014171 -0.0009824 0.0000085 0.0000053 0.0000868 -0.0004444 -0.0000061 -0.0003412 0.0001189 -0.0001317 0.0002283 0.0002873 0.0000406 -0.0000889 -0.0001071 -0.0009696 -0.0000030 -0.0005920 0.0001990 -0.0006025 -0.0000205 0.0000557 -0.0000260 0.0002230 -0.0002514 0.0002999 -0.0000105 0.0001721 0.0000196 -0.0004340 0.0000010 -0.0003690 0.0000006 -0.0002219 0.0002099 0.0001764 -0.0000593 -0.0000719 -0.0017160 0.0012614 0.0002700 -0.0002239 0.0000713 -0.0002487 0.0000730 -0.0000480 0.0000131 -0.0000201 0.0002343 -0.0003051 0.0000660 -0.0000634 -0.0001366 0.0002856 -0.0000165 -0.0000177 0.0000206 -0.0004784 -0.0000035 -0.0002906 -0.0000762 -0.0003131 0.0000398 -0.0003874 0.0006630 -0.0011660 0.0000988 -0.0002228 0.0000547 -0.0000231 -0.0002586 0.0001321 0.0000431 -0.0000539 -0.0002485 -0.0003286 -0.0002607 -0.0000582 -0.0005012 0.0001666 0.0000744 -0.0004540 -0.0000254 -0.0002900 0.0000285 -0.0002580 0.0001283 -0.0003387 -0.0000467 -0.0002912 0.0000281 -0.0004773 0.0000352 -0.0003985 0.0000194 -0.0003374 -0.0000839 -0.0000308 -0.0000295 -0.0001062 0.0000001 -0.0002371 -0.0002766 0.0002739 -0.0000531 -0.0004677 0.0002519 -0.0004463 -0.0003153 -0.0000546 -0.0000599 -0.0002689 0.0001264 -0.0007722 0.0000101 -0.0003964 -0.0000116 -0.0007028
0.0001501 -0.0003296 0.0001942 -0.0002861 0.0002741 -0.0006684 0.0000333 -0.0001472 0.0000345 -0.0000053 0.0001268 -0.0005608 0.0003339 -0.0004410 0.0000321 -0.0002067 0.0001642 -0.0008538 0.0001140 -0.0003756 0.0001654 -0.0010075 0.0000229 -0.0001879 0.0002657 -0.0006188 -0.0000124 -0.0003939 -0.0001093 -0.0022405 0.0000238 -0.0008613 0.0000169 -0.0011576 0.0000794 -0.0005734 -0.0000593 -0.0007360 -0.0000078 -0.0007442 0.0000515 -0.0003483 0.0000137 -0.0009915 0.0001443 -0.0009167 -0.0000510 -0.0000943 0.0000564 -0.0001718 0.0000741 -0.0001112 -0.0000145 0.0002075 0.0000231 -0.0003342 0.0000413 0.0001150 0.0000777 -0.0004844 0.0000596 -0.0006179 -0.0000730 0.0002338 -0.0000238 0.0001459 -0.0000190 -0.0001633 0.0000534 0.0001289 -0.0000544 0.0001231 0.0001929 -0.0003344 0.0000212 0.0000304 0.0000653 -0.0006604 0.0001518 -0.0007019 0.0000418 -0.0003157 0.0001686 -0.0007656 -0.0000001 -0.0001591 -0.0000132 -0.0002926 0.0000897 -0.0005121 0.0000365 -0.0006417 -0.0000301 -0.0001315 0.0000406 -0.0005249 0.0001187 -0.0002594 0.0003389 -0.0003885 -0.0001696 0.0001334 -0.0003365 -0.0000049 0.0000379 -0.0004072 0.0001238 -0.0001199 0.0001922 0.0001641 -0.0000506 -0.0000434 0.0000697 -0.0006379 0.0000235 -0.0006809 0.0002085 -0.0006623 -0.0000283 0.0000144 -0.0000325 0.0002296 -0.0002699 0.0003011 -0.0000019 0.0001379 0.0001167 -0.0003005 0.0000596 -0.0002595 0.0000313 -0.0001274 0.0005651 -0.0009725 -0.0000913 -0.0000777 -0.0005580 0.0001846 0.0001848 -0.0001838 0.0000656 -0.0003019 0.0000927 -0.0001511 -0.0001534 0.0000906 0.0001489 -0.0002621 0.0000049 0.0001173 -0.0003048 0.0004507 -0.0000260 0.0000030 0.0000650 -0.0006734 -0.0000383 -0.0002915 0.0000236 -0.0004062 0.0000300 -0.0004053 0.0003632 -0.0009939 0.0000446 -0.0002233 0.0000615 -0.0000584 -0.0001084 -0.0000565 0.0000487 -0.0001137 -0.0001749 -0.0003655 -0.0003223 -0.0000398 -0.0005604 0.0002369 0.0000617 -0.0004936 -0.0000203 -0.0003649 0.0001341 -0.0004605 0.0000721 -0.0002792 -0.0001057 -0.0003730 0.0000812 -0.0005822 -0.0000426 -0.0003969 -0.0001792 -0.0001311 -0.0000803 -0.0000991 0.0000068 -0.0001971 0.0000056 -0.0002893 0.0001832 -0.0001618 0.0000094 -0.0005999 -0.0007630 0.0003621 0.0000016 -0.0004302 -0.0001177 -0.0002855 0.0001068 -0.0007893 0.0000293 -0.0004695 0.0000100 -0.0007736
