-0.0000000 -0.0000000 -0.0000000 -0.0000000 -0.0000000 -0.0000000 -0.0000000 -0.0000000 -0.0000000 -0.0000000 -0.0000000 -0.0000000 -0.0000000 -0.0000000 -0.0000000 -0.0000000 -0.0000000 -0.0000000 -0.0000000 -0.0000000 -0.0000000 -0.0000000 -0.0000000 -0.0000000 -0.0000000 -0.0000000 -0.0000000 -0.0000000 -0.0000000 -0.0000000 -0.0000000 -0.0000000 -0.0000000 -0.0000000 -0.0000000 -0.0000000 -0.0000000 -0.0000000 -0.0000000 -0.0000000 -0.0000000 -0.0000000 -0.0000000 -0.0000000 -0.0000000 -0.0000000 -0.0000000 -0.0000000 -0.0000000 -0.0000000 -0.0000000 -0.0000000 -0.0000000 -0.0000000 -0.0000000 -0.0000000 -0.0000000 -0.0000000 -0.0000000 -0.0000000 -0.0000000 -0.0000000 -0.0000000 -0.0000000 -0.0000000 -0.0000000 -0.0000000 -0.0000000 -0.0000000 -0.0000000 -0.0000000 -0.0000000 -0.0000000 -0.0000000 -0.0000000 -0.0000000 -0.0000000 -0.0000000 -0.0000000 -0.0000000 -0.0000000 -0.0000000 -0.0000000 -0.0000000 -0.0000000 -0.0000000 -0.0000000 -0.0000000 -0.0000000 -0.0000000 -0.0000000 -0.0000000 -0.0000000 -0.0000000 -0.0000000 -0.0000000 -0.0000000 -0.0000000 -0.0000000 -0.0000000 -0.0000000 -0.0000000 -0.0000000 -0.0000000 -0.0000000 -0.0000000 -0.0000000 -0.0000000 -0.0000000 -0.0000000 -0.0000000 -0.0000000 -0.0000000 -0.0000000 -0.0000000 -0.0000000 -0.0000000 -0.0000000 -0.0000000 -0.0000000 -0.0000000 -0.0000000 -0.0000000 -0.0000000 -0.0000000 -0.0000000 -0.0000000 -0.0000000 -0.0000000 -0.0000000 -0.0000000 -0.0000000 -0.0000000 -0.0000000 -0.0000000 -0.0000000 -0.0000000 -0.0000000 -0.0000000 -0.0000000
-0.0000000 -0.0000000 -0.0000000 -0.0000000 -0.0000000 -0.0000000 -0.0000000 -0.0000000 -0.0000000 -0.0000000 -0.0000000 -0.0000000 -0.0000000 -0.0000000 -0.0000000 -0.0000000 -0.0000000 -0.0000000 -0.0000000 -0.0000000 -0.0000000 -0.0000000 -0.0000000 -0.0000000 -0.0000000 -0.0000000 -0.0000000 -0.0000000 -0.0000000 -0.0000000 -0.0000000 -0.0000000 -0.0000000 -0.0000000 -0.0000000 -0.0000000 -0.0000000 -0.0000000 -0.0000000 -0.0000000 -0.0000000 -0.0000000 -0.0000000 -0.0000000 -0.0000000 -0.0000000 -0.0000000 -0.0000000 -0.0000000 -0.0000000 -0.0000000 -0.0000000 -0.0000000 -0.0000000 -0.0000000 -0.0000000 -0.0000000 -0.0000000 -0.0000000 -0.0000000 -0.0000000 -0.0000000 -0.0000000 -0.0000000 -0.0000000 -0.0000000 -0.0000000 -0.0000000 -0.0000000 -0.0000000 -0.0000000 -0.0000000 -0.0000000 -0.0000000 -0.0000000 -0.0000000 -0.0000000 -0.0000000 -0.0000000 -0.0000000 -0.0000000 -0.0000000 -0.0000000 -0.0000000 -0.0000000 -0.0000000 -0.0000000 -0.0000000 -0.0000000 -0.0000000 -0.0000000 -0.0000000 -0.0000000 -0.0000000 -0.0000000 -0.0000000 -0.0000000 -0.0000000 -0.0000000 -0.0000000 -0.0000000 -0.0000000 -0.0000000 -0.0000000 -0.0000000 -0.0000000 -0.0000000 -0.0000000 -0.0000000 -0.0000000 -0.0000000 -0.0000000 -0.0000000 -0.0000000 -0.0000000 -0.0000000 -0.0000000 -0.0000000 -0.0000000 -0.0000000 -0.0000000 -0.0000000 -0.0000000 -0.0000000 -0.0000000 -0.0000000 -0.0000000 -0.0000000 -0.0000000 -0.0000000 -0.0000000 -0.0000000 -0.0000000 -0.0000000 -0.0000000 -0.0000000 -0.0000000 -0.0000000 -0.0000000 -0.0000000
-0.0000015 0.0000457 0.0000000 0.0000264 -0.0000003 0.0000480 0.0000041 0.0000822 0.0000086 0.0000320 -0.0000078 0.0000337 -0.0000034 0.0000414 -0.0000055 0.0000357 -0.0000143 0.0000669 -0.0000075 0.0000599 -0.0000204 0.0000680 0.0000160 0.0000419 0.0000003 0.0000320 -0.0000061 0.0000555 0.0000003 0.0000296 -0.0000080 0.0000612 -0.0000093 0.0000588 -0.0000130 0.0000890 -0.0000119 0.0000447 -0.0000030 0.0000545 -0.0000041 0.0000360 0.0000171 0.0000565 -0.0000011 0.0000624 0.0000160 0.0000182 -0.0001710 0.0000975 -0.0000004 -0.0000070 0.0000005 0.0000530 0.0000103 0.0000167 -0.0000006 0.0000270 0.0040989 -0.0038720 0.0021700 -0.0022157 -0.0158872 0.0196928 0.0000025 -0.0000329 -0.0003721 -0.0046076 -0.0000276 -0.0000559 0.0000104 -0.0001010 -0.0000015 -0.0000825 0.0000113 -0.0000803 -0.0000167 -0.0000106 -0.0000038 -0.0002511 -0.0000006 -0.0001678 -0.0000008 -0.0000516 0.0000047 -0.0001583 0.0000061 -0.0000770 0.0000020 -0.0000689 0.0000091 -0.0000458 0.0000062 -0.0000794 -0.0000117 0.0000575 -0.0000014 -0.0000635 -0.0001273 -0.0004982 0.0000061 -0.0001082 0.0000037 -0.0000881 0.0000036 -0.0000112 -0.0000075 -0.0001050 -0.0000027 -0.0001137 0.0000002 -0.0000672 0.0000064 0.0000185 -0.0000002 -0.0000449 -0.0000196 -0.0000585 -0.0000361 -0.0000140 -0.0000050 0.0000003 -0.0000249 -0.0000501 -0.0000067 0.0000363 -0.0000186 -0.0000287 0.0000316 0.0000950 0.0000324 0.0002672 0.0000155 0.0001834 0.0000017 0.0001024 0.0000395 0.0002182 0.0000040 0.0001143
-0.0000042 -0.0001250 -0.0000074 0.0000035 -0.0000022 -0.0000324 -0.0000062 0.0000143 -0.0000013 -0.0001244 -0.0000015 -0.0000260 0.0000158 -0.0000053 -0.0000155 -0.0000261 -0.0000139 -0.0000023 0.0000013 -0.0000654 -0.0000008 -0.0000278 0.0000450 -0.0000902 0.0000056 0.0000256 0.0000109 -0.0000120 -0.0000022 0.0000066 -0.0000188 -0.0000345 -0.0000072 0.0000020 -0.0000018 0.0000162 -0.0000083 -0.0000444 0.0000024 -0.0000072 0.0000019 -0.0000241 0.0000226 0.0000308 0.0000084 -0.0000349 -0.0000279 -0.0000082 -0.0001402 -0.0000296 0.0000214 -0.0000538 0.0000034 0.0000280 -0.0000354 0.0000928 -0.0000536 0.0000566 0.0108370 -0.0378911 -0.0034528 0.0042099 -0.0116964 0.0162288 -0.0000458 0.0000986 -0.0068400 -0.0006230 -0.0000042 0.0000540 0.0000118 0.0003239 -0.0000064 0.0001544 0.0000267 0.0003176 -0.0000285 0.0001698 -0.0000125 0.0002262 -0.0000019 0.0001596 -0.0000035 0.0002145 -0.0000046 0.0001865 0.0000084 0.0001068 0.0000012 0.0000809 0.0000127 0.0000948 -0.0000217 0.0000594 -0.0000257 0.0001885 -0.0000083 0.0001134 -0.0002198 -0.0008428 -0.0000028 0.0000134 -0.0000056 0.0000014 -0.0000064 0.0001041 -0.0000101 0.0000054 -0.0000020 -0.0000264 0.0000152 0.0000494 -0.0000009 0.0000724 0.0000077 0.0000231 -0.0000491 -0.0000609 -0.0000310 0.0000197 -0.0000151 0.0000076 -0.0000394 -0.0000003 -0.0000041 0.0001044 -0.0000164 -0.0000135 -0.0000190 -0.0000236 0.0000666 0.0002689 0.0000456 0.0002243 -0.0000099 0.0001199 0.0000280 0.0002317 -0.0000039 0.0001449
-0.0000007 0.0001090 -0.0000087 0.0000404 -0.0000034 0.0000914 -0.0000009 0.0001746 -0.0000149 0.0000925 -0.0000050 0.0000342 -0.0000086 0.0001072 -0.0000536 0.0001314 -0.0000048 0.0000678 -0.0000097 0.0000964 -0.0000014 0.0000780 0.0000342 0.0000546 0.0000017 0.0000812 -0.0000249 0.0001195 0.0000019 0.0000786 -0.0000255 0.0001207 -0.0000131 0.0000964 -0.0000227 0.0001515 -0.0000280 0.0000974 -0.0000087 0.0000889 -0.0000071 0.0000689 0.0000135 0.0001235 -0.0000010 0.0001202 -0.0000497 0.0001336 -0.0000763 -0.0000501 0.0000164 0.0001124 -0.0000034 0.0001753 -0.0000640 0.0002157 -0.0000231 0.0001436 0.0165825 -0.0438429 -0.0057642 0.0128478 -0.0026596 -0.0029038 -0.0000568 0.0003275 -0.0014701 -0.0035945 -0.0000628 0.0003406 0.0000165 0.0003787 -0.0000228 0.0001987 0.0000374 0.0004015 -0.0000527 0.0002104 -0.0000106 0.0002424 -0.0000032 0.0001837 0.0000004 0.0002711 -0.0000072 0.0001968 0.0000051 0.0001266 -0.0000036 0.0000889 0.0000151 0.0001124 -0.0000226 0.0000500 -0.0000200 0.0002271 -0.0000085 0.0001086 -0.0001808 -0.0006669 -0.0000032 -0.0000051 -0.0000042 -0.0000040 -0.0000148 0.0001404 -0.0000098 0.0000201 -0.0000010 -0.0000458 0.0000301 0.0000834 -0.0000176 0.0000456 0.0000095 0.0000267 -0.0000327 -0.0001201 -0.0000233 -0.0000001 0.0000009 -0.0000434 -0.0000021 0.0000331 0.0000018 0.0000767 -0.0000051 -0.0000691 -0.0000806 -0.0001681 0.0000209 -0.0000434 0.0000283 0.0000156 0.0000039 0.0000143 -0.0000281 0.0000056 -0.0000018 0.0000631
0.0000045 0.0002374 -0.0000116 0.0000999 -0.0000028 0.0001911 -0.0000154 0.0003107 -0.0000225 0.0001582 -0.0000041 0.0000816 -0.0000264 0.0002265 -0.0000443 0.0001774 -0.0000054 0.0001086 -0.0000017 0.0001444 -0.0000175 0.0001440 -0.0000235 0.0001445 0.0000125 0.0001623 -0.0000370 0.0001662 0.0000046 0.0001245 -0.0000164 0.0001625 -0.0000158 0.0001592 -0.0000512 0.0002321 -0.0000435 0.0001319 -0.0000188 0.0001527 -0.0000113 0.0000895 0.0000173 0.0001617 0.0000000 0.0001486 -0.0000706 0.0001627 -0.0001679 -0.0000956 -0.0000030 0.0001311 -0.0000488 0.0001938 -0.0000681 0.0001981 -0.0000038 0.0001645 0.0223191 -0.0412316 0.0004687 -0.0011415 -0.0038296 0.0062445 -0.0000038 0.0002994 0.0049671 -0.0165140 -0.0001109 0.0003471 0.0000113 0.0001826 -0.0000405 0.0001916 0.0000038 0.0002043 -0.0000522 0.0001604 0.0000082 0.0002385 -0.0000069 0.0001071 -0.0000090 0.0002426 -0.0000026 0.0001095 0.0000060 0.0001695 -0.0000039 0.0000968 0.0000163 0.0001372 -0.0000072 0.0000098 -0.0000114 0.0002689 -0.0000192 0.0001733 -0.0000762 -0.0002286 -0.0000115 0.0002027 -0.0000092 0.0001420 -0.0000239 0.0002353 -0.0000117 0.0002552 0.0000055 0.0002171 0.0000231 0.0002531 -0.0000279 0.0003064 -0.0000147 0.0000669 -0.0000268 -0.0000503 -0.0000482 0.0000404 -0.0000162 0.0000382 0.0000260 0.0002778 -0.0000080 0.0001508 0.0000014 0.0000625 -0.0002148 -0.0003846 -0.0000434 -0.0002153 -0.0000665 -0.0001730 -0.0000037 0.0000712 -0.0000549 0.0000015 0.0000032 0.0000499
0.0000001 0.0001317 -0.0000051 0.0000828 -0.0000016 0.0001750 -0.0000288 0.0003022 -0.0000296 0.0000368 -0.0000082 0.0000541 0.0000082 0.0002471 -0.0000381 0.0001542 -0.0000024 0.0000612 -0.0000020 0.0000584 -0.0000239 0.0000762 0.0000271 0.0000061 0.0000328 0.0002354 -0.0000249 0.0001582 -0.0000016 0.0000435 -0.0000204 0.0000891 -0.0000148 0.0001379 0.0000080 0.0003445 -0.0000508 0.0000483 -0.0000193 0.0001310 -0.0000100 0.0000472 0.0000978 0.0003009 0.0000261 0.0000981 -0.0001288 0.0001325 0.0000491 -0.0004524 -0.0000041 0.0000544 -0.0000280 0.0000829 0.0000097 0.0000579 -0.0000445 0.0001316 0.0136360 -0.0198310 0.0002854 -0.0023510 -0.0008176 0.0045997 0.0000299 0.0001136 -0.0017534 0.0064883 -0.0000675 0.0002019 0.0000123 0.0000871 -0.0000509 0.0003080 -0.0000074 0.0000764 -0.0000432 0.0001369 0.0000145 0.0001394 -0.0000163 0.0000432 -0.0000193 0.0002145 0.0000014 0.0000650 0.0000156 0.0001966 -0.0000020 0.0000846 0.0000200 0.0001627 -0.0000170 0.0000083 -0.0000133 0.0002727 -0.0000160 0.0001504 0.0000309 0.0002409 -0.0000027 0.0001936 -0.0000111 0.0001473 -0.0000294 0.0002489 -0.0000141 0.0002674 0.0000045 0.0002221 0.0000132 0.0002270 -0.0000277 0.0003613 -0.0000300 0.0000235 -0.0000301 -0.0001539 -0.0000641 0.0000251 -0.0000964 -0.0001563 0.0000252 0.0003170 -0.0000198 0.0001847 -0.0000032 0.0000865 -0.0003494 -0.0008048 -0.0000820 -0.0002826 -0.0001114 -0.0003174 -0.0000042 0.0000523 -0.0000698 -0.0000728 0.0000002 -0.0000080
-0.0000015 0.0001558 -0.0000020 0.0000502 -0.0000193 0.0002304 -0.0000164 0.0003579 -0.0000287 0.0001585 -0.0000210 0.0000774 0.0000041 0.0002829 -0.0000546 0.0002786 -0.0000201 0.0001200 -0.0000472 0.0002153 -0.0000202 0.0001276 0.0000143 0.0001078 0.0000319 0.0002817 -0.0000457 0.0003183 0.0000076 0.0000958 -0.0000394 0.0002266 -0.0000232 0.0002251 0.0000159 0.0004985 -0.0000718 0.0001719 -0.0000195 0.0002098 -0.0000112 0.0001394 0.0001266 0.0004653 0.0000258 0.0002590 -0.0000927 0.0002109 0.0000140 -0.0003297 -0.0000488 0.0002733 -0.0000841 0.0003130 0.0000483 0.0001256 -0.0001795 0.0003005 -0.0033183 0.0023408 0.0016415 -0.0015507 -0.0036919 0.0102232 -0.0000394 0.0003687 -0.0027639 0.0122084 0.0000166 0.0003349 0.0000107 -0.0000582 -0.0000443 0.0003202 -0.0000139 -0.0000964 -0.0000378 0.0000252 0.0000132 -0.0001066 -0.0000237 -0.0000692 -0.0000230 0.0000842 0.0000078 -0.0000840 0.0000189 0.0001375 -0.0000044 0.0000247 0.0000199 0.0001184 -0.0000204 -0.0000435 -0.0000171 0.0002094 -0.0000171 0.0000214 0.0000589 0.0003324 0.0000076 0.0000714 -0.0000061 0.0000775 -0.0000326 0.0001944 -0.0000063 0.0001409 -0.0000033 0.0001234 0.0000051 0.0001416 -0.0000267 0.0003430 -0.0000357 -0.0000269 -0.0000296 -0.0002831 -0.0000878 0.0000301 -0.0001736 -0.0003151 0.0000318 0.0003907 -0.0000188 0.0002821 -0.0000188 0.0002213 -0.0004094 -0.0008657 -0.0000959 -0.0002334 -0.0001352 -0.0001880 0.0000001 0.0002864 -0.0000868 0.0000852 -0.0000238 0.0002635
-0.0000044 0.0002930 -0.0000118 0.0001122 -0.0000181 0.0003060 -0.0000141 0.0004576 -0.0000342 0.0002115 -0.0000202 0.0001252 -0.0000289 0.0003831 -0.0000994 0.0003637 -0.0000010 0.0001314 -0.0000751 0.0002740 -0.0000169 0.0001489 -0.0000142 0.0001604 0.0000305 0.0003047 -0.0000494 0.0003028 0.0000193 0.0002218 -0.0000614 0.0002671 -0.0000207 0.0002706 -0.0000486 0.0003481 -0.0000806 0.0001853 -0.0000213 0.0002366 -0.0000137 0.0001468 0.0000554 0.0003214 0.0000062 0.0002129 -0.0000369 0.0001522 -0.0000993 -0.0001658 -0.0000984 0.0002967 -0.0000950 0.0002360 -0.0000796 0.0002296 -0.0001581 0.0002728 0.0021690 -0.0057186 -0.0056127 0.0073253 -0.0068380 0.0094287 -0.0000608 0.0003862 0.0006872 0.0000385 0.0000006 0.0003311 -0.0000010 0.0003885 -0.0000267 0.0006320 -0.0000117 0.0001912 -0.0000238 0.0001337 0.0000002 0.0002868 -0.0000447 0.0002889 -0.0000407 0.0002888 -0.0000122 0.0002922 0.0000169 0.0003135 -0.0000130 0.0001926 0.0000122 0.0002628 -0.0000387 0.0001232 -0.0000321 0.0002546 -0.0000181 0.0001437 0.0000195 0.0001856 -0.0000032 0.0001501 -0.0000155 0.0001461 -0.0000325 0.0002376 -0.0000143 0.0001941 -0.0000021 0.0001559 0.0000076 0.0001604 -0.0000340 0.0003544 -0.0000270 0.0000283 -0.0000483 -0.0002509 -0.0000869 0.0000531 -0.0001710 -0.0002535 0.0000357 0.0003934 -0.0000292 0.0002807 -0.0000184 0.0001766 -0.0004171 -0.0009108 -0.0001110 -0.0002132 -0.0001371 -0.0001737 0.0000209 0.0002523 -0.0000689 0.0000933 -0.0000088 0.0002605
-0.0000105 0.0002074 -0.0000166 0.0000948 -0.0000101 0.0002634 -0.0000157 0.0004201 -0.0000458 0.0001187 -0.0000115 0.0000876 -0.0000367 0.0003862 -0.0001091 0.0003250 -0.0000007 0.0000788 -0.0000659 0.0001622 -0.0000205 0.0000745 -0.0000448 0.0000899 0.0000350 0.0003066 -0.0000488 0.0002320 0.0000162 0.0001869 -0.0000649 0.0001831 -0.0000131 0.0002342 -0.0000375 0.0002380 -0.0000720 0.0000847 -0.0000223 0.0001932 -0.0000131 0.0000864 0.0000504 0.0002300 0.0000120 0.0000889 -0.0000649 0.0000613 -0.0001257 -0.0002520 -0.0000597 0.0001005 -0.0000045 0.0000422 -0.0001306 0.0001878 -0.0000250 0.0000666 -0.0018437 -0.0048328 -0.0006459 0.0025716 -0.0094658 0.0159224 -0.0000363 0.0001951 0.0024666 0.0024346 -0.0000186 0.0001788 -0.0000070 0.0003841 -0.0000294 0.0006107 -0.0000052 0.0002053 -0.0000337 0.0001187 -0.0000020 0.0002658 -0.0000475 0.0002751 -0.0000486 0.0002629 -0.0000144 0.0002974 0.0000204 0.0003207 -0.0000124 0.0001957 0.0000142 0.0002689 -0.0000460 0.0001079 -0.0000383 0.0001843 -0.0000182 0.0001108 0.0000012 0.0001463 -0.0000036 0.0001137 -0.0000153 0.0001093 -0.0000307 0.0002055 -0.0000270 0.0001631 0.0000055 0.0001008 0.0000085 0.0001180 -0.0000392 0.0003016 -0.0000154 0.0000583 -0.0000424 -0.0002495 -0.0000733 0.0000292 -0.0001483 -0.0002354 0.0000187 0.0002917 -0.0000163 0.0001974 -0.0000006 0.0000564 -0.0004028 -0.0010686 -0.0001277 -0.0002089 -0.0001294 -0.0002585 0.0000313 0.0001607 -0.0000570 0.0000410 -0.0000068 0.0001475
-0.0000065 0.0001384 -0.0000219 0.0000418 -0.0000220 0.0002555 -0.0000149 0.0004139 -0.0000591 0.0002159 -0.0000224 0.0000763 -0.0000567 0.0003654 -0.0000925 0.0003503 -0.0000225 0.0001086 -0.0000776 0.0002320 -0.0000327 0.0001078 -0.0000589 0.0001494 0.0000263 0.0003066 -0.0000742 0.0003073 0.0000192 0.0002056 -0.0000682 0.0002765 -0.0000140 0.0002903 -0.0000432 0.0002667 -0.0000769 0.0001718 -0.0000215 0.0002503 -0.0000152 0.0001581 0.0000475 0.0002687 0.0000016 0.0002179 -0.0000879 0.0001976 -0.0002744 -0.0001376 -0.0000447 0.0002894 0.0000851 0.0001212 -0.0000927 0.0003122 0.0000277 0.0000819 -0.0148651 0.0148558 -0.0041672 0.0074236 -0.0117354 0.0198193 -0.0000826 0.0004077 -0.0019445 0.0036479 -0.0000310 0.0004423 -0.0000119 0.0002445 -0.0000384 0.0004841 -0.0000212 0.0001939 -0.0000488 0.0000763 0.0000005 0.0004003 -0.0000412 0.0002864 -0.0000539 0.0002257 -0.0000147 0.0002943 0.0000140 0.0003949 -0.0000159 0.0002490 0.0000166 0.0003057 -0.0000467 0.0000969 -0.0000426 0.0001443 -0.0000334 0.0002135 0.0000053 0.0001647 -0.0000151 0.0003458 -0.0000210 0.0002687 -0.0000480 0.0002787 -0.0000158 0.0003830 0.0000070 0.0003690 0.0000102 0.0003062 -0.0000469 0.0004548 -0.0000214 0.0001798 -0.0000385 -0.0001381 -0.0000693 0.0000843 -0.0001202 -0.0001170 0.0000068 0.0003576 0.0000129 0.0002203 0.0000094 0.0000868 -0.0003772 -0.0010995 -0.0000773 -0.0002527 -0.0001168 -0.0002834 0.0000236 0.0001460 -0.0000475 0.0000112 -0.0000170 0.0000947
-0.0000056 0.0003569 -0.0000254 0.0001042 -0.0000326 0.0004160 -0.0000279 0.0006193 -0.0000805 0.0004641 -0.0000399 0.0001992 -0.0000880 0.0005191 -0.0001208 0.0005244 -0.0000398 0.0002637 -0.0001014 0.0004588 -0.0000445 0.0002895 -0.0000765 0.0003601 0.0000176 0.0003412 -0.0001040 0.0004266 0.0000223 0.0002746 -0.0000854 0.0004483 -0.0000314 0.0004311 -0.0000555 0.0004284 -0.0000829 0.0003143 -0.0000251 0.0003545 -0.0000240 0.0002339 0.0000376 0.0002873 0.0000068 0.0002874 -0.0000709 0.0002469 -0.0002200 -0.0002016 -0.0000146 0.0002750 -0.0001070 0.0002551 -0.0001911 0.0004282 -0.0000656 0.0001804 -0.0100018 0.0100143 -0.0145861 0.0091114 -0.0033327 0.0069342 -0.0000005 0.0002921 -0.0070574 -0.0004460 -0.0000603 0.0004261 -0.0000073 0.0000892 -0.0000365 0.0004046 -0.0000225 0.0000198 -0.0000516 -0.0000734 -0.0000055 0.0001695 -0.0000432 0.0001674 -0.0000574 0.0000601 -0.0000143 0.0001657 0.0000092 0.0003342 -0.0000158 0.0001942 0.0000175 0.0002488 -0.0000329 0.0000251 -0.0000460 -0.0000333 -0.0000296 0.0000924 0.0000251 0.0002169 -0.0000114 0.0002659 -0.0000230 0.0002058 -0.0000412 0.0001708 -0.0000193 0.0002930 0.0000019 0.0002950 0.0000091 0.0002390 -0.0000481 0.0002973 -0.0000260 0.0001078 -0.0000384 -0.0001788 -0.0000586 0.0000280 -0.0001258 -0.0000976 0.0000118 0.0003032 0.0000145 0.0001366 0.0000093 -0.0000103 -0.0003508 -0.0012177 -0.0000559 -0.0003199 -0.0001025 -0.0003641 0.0000315 0.0000312 -0.0000377 -0.0000835 -0.0000136 -0.0000133
-0.0000093 0.0002486 -0.0000218 0.0000917 -0.0000341 0.0003655 -0.0000335 0.0005653 -0.0000808 0.0003463 -0.0000407 0.0001833 -0.0000950 0.0005029 -0.0001329 0.0004810 -0.0000455 0.0002281 -0.0001031 0.0003743 -0.0000419 0.0002280 0.0000072 0.0002082 0.0000233 0.0003066 -0.0000975 0.0003416 0.0000226 0.0002296 -0.0000972 0.0003869 -0.0000313 0.0004022 -0.0000471 0.0003316 -0.0000601 0.0002408 -0.0000270 0.0003197 -0.0000199 0.0001824 0.0000359 0.0002027 0.0000108 0.0001694 0.0000014 0.0001036 -0.0003215 -0.0001711 0.0000313 0.0000938 -0.0002382 0.0002099 -0.0002450 0.0003260 -0.0000481 0.0000741 -0.0025047 0.0136672 -0.0028230 -0.0024116 0.0014162 -0.0046247 0.0000490 0.0000463 0.0080694 -0.0076933 -0.0000185 0.0001280 -0.0000031 -0.0001256 -0.0000290 0.0002592 -0.0000208 -0.0002374 -0.0000464 -0.0003290 -0.0000049 -0.0001817 -0.0000385 -0.0000439 -0.0000581 -0.0002334 -0.0000100 -0.0000599 0.0000157 0.0001933 -0.0000124 0.0000665 0.0000144 0.0001349 -0.0000095 -0.0001074 -0.0000462 -0.0003500 -0.0000223 -0.0001639 0.0000193 0.0001411 0.0000022 0.0000641 -0.0000146 0.0000559 -0.0000342 -0.0000315 -0.0000237 0.0000695 0.0000035 0.0001012 0.0000047 0.0000747 -0.0000542 0.0000567 -0.0000243 -0.0000364 -0.0000270 -0.0002688 -0.0000536 -0.0000380 -0.0001115 -0.0000951 -0.0000060 0.0003115 -0.0000042 0.0001623 -0.0000077 0.0000862 -0.0003379 -0.0011951 -0.0000849 -0.0003146 -0.0001068 -0.0002579 0.0000105 0.0002268 -0.0000423 -0.0000219 -0.0000078 0.0001648
-0.0000073 0.0000242 -0.0000249 0.0000220 -0.0000313 0.0002101 -0.0000194 0.0003460 -0.0000746 0.0001259 -0.0000399 0.0000766 -0.0000829 0.0003360 -0.0001463 0.0003715 -0.0000238 0.0000649 -0.0001006 0.0001668 -0.0000186 0.0000283 0.0000162 -0.0000009 0.0000290 0.0002159 -0.0000801 0.0001557 0.0000215 0.0001266 -0.0000961 0.0002307 -0.0000240 0.0002816 -0.0000439 0.0001139 -0.0000366 0.0001016 -0.0000263 0.0002330 -0.0000135 0.0001239 0.0000459 0.0001522 -0.0000063 0.0001390 0.0000621 0.0000613 -0.0003416 -0.0001407 -0.0000054 0.0002763 -0.0001900 0.0002502 -0.0002970 0.0004973 0.0000227 0.0000568 0.0002995 0.0138784 -0.0004212 0.0015701 -0.0157160 0.0104304 -0.0000221 0.0002693 0.0098351 -0.0075611 -0.0000774 0.0003181 0.0000042 0.0001186 -0.0000136 0.0004133 -0.0000089 -0.0001832 -0.0000421 -0.0003711 -0.0000146 -0.0001419 -0.0000432 0.0000551 -0.0000640 -0.0002981 -0.0000201 0.0000511 0.0000197 0.0001978 -0.0000150 0.0000901 0.0000107 0.0001419 -0.0000224 -0.0000502 -0.0000485 -0.0005869 -0.0000148 -0.0002413 0.0000715 0.0003122 -0.0000013 0.0000160 -0.0000164 0.0000150 -0.0000412 -0.0001399 -0.0000238 -0.0000270 0.0000071 0.0000045 -0.0000008 -0.0000444 -0.0000561 -0.0001934 -0.0000200 -0.0001487 -0.0000082 -0.0003798 -0.0000259 -0.0001197 -0.0000865 -0.0001848 -0.0000058 0.0001658 -0.0000066 0.0000503 0.0000091 -0.0000447 -0.0003290 -0.0013584 -0.0001227 -0.0004481 -0.0000961 -0.0003394 0.0000116 0.0001541 -0.0000226 -0.0001386 0.0000038 0.0000768
-0.0000055 0.0002464 -0.0000375 0.0000731 -0.0000361 0.0003316 -0.0000153 0.0004654 -0.0000681 0.0003358 -0.0000498 0.0001568 -0.0000808 0.0004008 -0.0001760 0.0005064 -0.0000189 0.0001670 -0.0001085 0.0003279 -0.0000300 0.0001505 -0.0001491 0.0002659 0.0000235 0.0002256 -0.0001105 0.0002223 0.0000241 0.0001656 -0.0000941 0.0003353 -0.0000458 0.0003762 -0.0000626 0.0002441 -0.0000436 0.0002294 -0.0000325 0.0003092 -0.0000210 0.0002042 0.0000456 0.0002223 -0.0000171 0.0002940 0.0000305 0.0002179 -0.0002038 -0.0002529 -0.0000779 0.0005953 -0.0001351 0.0004780 -0.0001452 0.0005865 0.0000312 0.0001840 -0.0045602 0.0072888 -0.0083455 0.0041426 -0.0125548 0.0106322 -0.0000622 0.0003868 0.0017511 -0.0075957 -0.0001370 0.0003917 -0.0000091 -0.0000203 -0.0000092 0.0002929 -0.0000123 -0.0003436 -0.0000419 -0.0005513 -0.0000135 -0.0003297 -0.0000331 -0.0000558 -0.0000587 -0.0005798 -0.0000149 -0.0000731 0.0000155 0.0001098 -0.0000125 -0.0000019 0.0000146 0.0000547 -0.0000438 -0.0000854 -0.0000417 -0.0009285 -0.0000066 -0.0004446 0.0001410 0.0005335 -0.0000008 -0.0001280 -0.0000106 -0.0001068 -0.0000271 -0.0003570 -0.0000266 -0.0001908 0.0000042 -0.0001586 -0.0000149 -0.0002283 -0.0000570 -0.0005260 -0.0000252 -0.0003012 0.0000036 -0.0005233 -0.0000049 -0.0002227 -0.0000870 -0.0002939 0.0000131 -0.0000658 0.0000058 -0.0001551 0.0000280 -0.0002548 -0.0003133 -0.0015801 -0.0001319 -0.0005965 -0.0000885 -0.0004710 0.0000189 0.0000072 -0.0000120 -0.0002710 0.0000144 -0.0000791
-0.0000078 0.0001580 -0.0000403 0.0000869 -0.0000369 0.0003049 -0.0000233 0.0004203 -0.0000593 0.0002339 -0.0000506 0.0001566 -0.0000608 0.0003671 -0.0002126 0.0004430 -0.0000484 0.0001613 -0.0001084 0.0002543 -0.0000440 0.0001220 -0.0002065 0.0002411 0.0000249 0.0001882 -0.0001174 0.0001253 0.0000220 0.0001180 -0.0000955 0.0002789 -0.0000411 0.0003495 -0.0000527 0.0001753 -0.0000590 0.0001979 -0.0000348 0.0002735 -0.0000201 0.0001629 0.0000401 0.0001521 -0.0000190 0.0002107 -0.0000309 0.0002321 -0.0003044 -0.0002086 -0.0000332 0.0004660 -0.0000417 0.0003308 0.0000064 0.0003449 0.0000186 0.0001209 -0.0112802 0.0192540 -0.0241437 0.0158027 -0.0001137 0.0037860 -0.0000905 0.0002862 -0.0046137 -0.0020671 -0.0000854 0.0001709 -0.0000421 -0.0000963 -0.0000125 0.0001623 -0.0000391 -0.0002667 -0.0000305 -0.0006577 -0.0000115 0.0000305 -0.0000245 0.0001324 -0.0000719 -0.0006497 -0.0000207 0.0000959 0.0000107 0.0002447 -0.0000161 0.0000819 0.0000117 0.0001290 -0.0000387 -0.0000222 -0.0000452 -0.0011072 -0.0000158 -0.0003529 0.0001025 0.0003557 -0.0000201 0.0001162 -0.0000137 0.0000616 -0.0000273 -0.0003654 -0.0000189 0.0000177 0.0000051 0.0000888 -0.0000207 -0.0000872 -0.0000765 -0.0004703 -0.0000380 -0.0002296 -0.0000114 -0.0004771 -0.0000113 -0.0001942 -0.0000917 -0.0002606 0.0000060 -0.0000624 0.0000191 -0.0001870 0.0000075 -0.0002634 -0.0003122 -0.0016473 -0.0001188 -0.0006246 -0.0000802 -0.0005360 0.0000181 -0.0000473 -0.0000046 -0.0003598 0.0000100 -0.0001880
-0.0000123 -0.0000420 -0.0000317 0.0000210 -0.0000303 0.0001558 -0.0000351 0.0002259 -0.0000636 0.0000369 -0.0000433 0.0000705 -0.0000534 0.0002188 -0.0002116 0.0002615 -0.0000635 0.0000406 -0.0001025 0.0000472 -0.0000315 -0.0000484 -0.0001385 0.0000174 0.0000304 0.0000736 -0.0000970 -0.0001093 0.0000168 0.0000095 -0.0000894 0.0001020 -0.0000325 0.0002264 -0.0000267 -0.0000586 -0.0000538 0.0000531 -0.0000289 0.0001306 -0.0000143 0.0000441 0.0000444 0.0000016 -0.0000115 0.0000095 -0.0000552 0.0001209 -0.0002728 -0.0002048 -0.0000175 0.0002088 -0.0000656 0.0000894 -0.0000596 0.0001666 -0.0000370 0.0000229 -0.0082931 0.0157565 -0.0138503 0.0045830 0.0083578 -0.0038287 -0.0000779 0.0002459 -0.0028404 0.0071338 -0.0000314 0.0001650 -0.0000452 -0.0002486 -0.0000074 0.0000247 -0.0000425 -0.0004386 -0.0000203 -0.0008117 -0.0000154 -0.0001510 -0.0000313 0.0000265 -0.0000716 -0.0008452 -0.0000241 -0.0000075 0.0000139 0.0001677 -0.0000195 0.0000188 0.0000154 0.0000672 -0.0000227 -0.0000891 -0.0000510 -0.0013358 -0.0000091 -0.0004866 0.0000458 0.0001081 -0.0000184 0.0000306 -0.0000083 -0.0000232 -0.0000136 -0.0005215 -0.0000151 -0.0000922 0.0000014 -0.0000054 -0.0000265 -0.0001622 -0.0000788 -0.0006610 -0.0000367 -0.0003222 -0.0000002 -0.0005787 -0.0000232 -0.0002937 -0.0000749 -0.0003114 0.0000104 -0.0001876 0.0000450 -0.0003226 0.0000182 -0.0004127 -0.0002970 -0.0017602 -0.0000936 -0.0007197 -0.0000613 -0.0006456 0.0000429 -0.0001809 -0.0000038 -0.0005206 0.0000009 -0.0003477
-0.0000138 0.0001779 -0.0000336 0.0000303 -0.0000374 0.0002235 -0.0000437 0.0002923 -0.0000649 0.0002530 -0.0000540 0.0001198 -0.0000949 0.0002585 -0.0001876 0.0003045 -0.0000762 0.0001252 -0.0001104 0.0001739 -0.0000395 0.0000285 -0.0001104 0.0001301 0.0000281 0.0000591 -0.0001169 -0.0000829 0.0000192 0.0000554 -0.0001060 0.0002084 -0.0000391 0.0002663 -0.0000367 0.0000122 -0.0000536 0.0001774 -0.0000301 0.0001645 -0.0000243 0.0001124 0.0000525 0.0000604 -0.0000194 0.0001242 -0.0001068 0.0002275 -0.0003916 -0.0000054 -0.0000718 0.0003824 -0.0000559 0.0002080 -0.0001096 0.0003241 -0.0000345 0.0000859 -0.0068065 0.0064031 -0.0076366 -0.0099839 0.0045135 -0.0029684 0.0000083 0.0003321 -0.0004118 0.0073491 -0.0000330 0.0003689 -0.0000436 -0.0004378 -0.0000075 -0.0001594 -0.0000327 -0.0006314 -0.0000155 -0.0009862 -0.0000169 -0.0004554 -0.0000250 -0.0002208 -0.0000571 -0.0011238 -0.0000172 -0.0002393 0.0000164 0.0000125 -0.0000183 -0.0001277 0.0000218 -0.0000557 -0.0000173 -0.0002218 -0.0000464 -0.0016295 0.0000007 -0.0007275 0.0000026 -0.0001286 -0.0000040 -0.0001806 -0.0000026 -0.0001911 0.0000085 -0.0007402 -0.0000175 -0.0003105 -0.0000038 -0.0002068 -0.0000389 -0.0003232 -0.0000674 -0.0009021 -0.0000347 -0.0004543 0.0000123 -0.0006666 -0.0000396 -0.0003830 -0.0000342 -0.0002765 -0.0000028 -0.0002502 0.0000359 -0.0003138 0.0000077 -0.0003019 -0.0002654 -0.0016670 -0.0000931 -0.0007072 -0.0000692 -0.0005141 0.0000035 0.0000422 -0.0000327 -0.0004165 -0.0000045 -0.0001349
-0.0000160 0.0004305 -0.0000422 0.0001147 -0.0000468 0.0003639 -0.0000442 0.0004574 -0.0001007 0.0004249 -0.0000629 0.0002204 -0.0000926 0.0003611 -0.0002067 0.0003797 -0.0001057 0.0002336 -0.0001397 0.0003187 -0.0000481 0.0001280 -0.0000832 0.0002236 0.0000298 0.0000945 -0.0001203 -0.0000633 0.0000210 0.0000998 -0.0001246 0.0002141 -0.0000467 0.0002931 -0.0000241 0.0000619 -0.0000642 0.0002122 -0.0000406 0.0001784 -0.0000309 0.0001105 0.0000556 0.0000526 -0.0000189 0.0000939 -0.0001395 0.0002020 -0.0003428 -0.0000641 -0.0000854 0.0003137 -0.0001564 0.0002471 -0.0002457 0.0003867 -0.0000674 0.0001151 -0.0010325 -0.0054555 -0.0033379 -0.0058704 -0.0074430 -0.0014446 0.0000513 0.0002388 -0.0046000 0.0107775 -0.0000312 0.0002380 -0.0000531 0.0000332 -0.0000106 0.0001140 -0.0000248 -0.0001414 -0.0000049 -0.0007233 -0.0000347 0.0001629 -0.0000299 0.0002185 -0.0000579 -0.0008161 -0.0000341 0.0002555 0.0000066 0.0002384 -0.0000241 0.0000829 0.0000096 0.0001315 -0.0000195 -0.0000088 -0.0000541 -0.0015765 0.0000053 -0.0005234 -0.0000213 -0.0002303 -0.0000124 -0.0000576 -0.0000097 -0.0000910 0.0000106 -0.0006704 -0.0000361 -0.0002075 -0.0000054 -0.0001816 -0.0000449 -0.0003149 -0.0000679 -0.0009474 -0.0000269 -0.0004440 0.0000169 -0.0007142 -0.0000362 -0.0004504 -0.0000254 -0.0002897 -0.0000189 -0.0003273 0.0000118 -0.0003745 -0.0000059 -0.0003601 -0.0002358 -0.0017243 -0.0001165 -0.0007195 -0.0000624 -0.0005765 0.0000021 -0.0000163 -0.0000201 -0.0004971 0.0000053 -0.0002088
-0.0000180 0.0003042 -0.0000407 0.0000856 -0.0000495 0.0002824 -0.0000364 0.0003382 -0.0001072 0.0002776 -0.0000598 0.0001723 -0.0000608 0.0002446 -0.0002370 0.0002430 -0.0000989 0.0001422 -0.0001286 0.0001792 -0.0000563 0.0000357 -0.0000863 0.0001065 0.0000399 0.0000476 -0.0001074 -0.0002315 0.0000219 0.0000529 -0.0001056 0.0000609 -0.0000456 0.0002130 0.0000031 -0.0000719 -0.0000619 0.0001116 -0.0000406 0.0000809 -0.0000275 0.0000277 0.0000539 -0.0000358 -0.0000184 -0.0000535 -0.0000911 0.0000391 -0.0001519 -0.0002748 -0.0000687 0.0001046 -0.0001021 0.0000389 -0.0003398 0.0002542 -0.0000966 0.0000531 0.0066040 -0.0136676 -0.0052805 -0.0012769 -0.0054534 0.0053003 0.0000205 0.0000308 -0.0036786 -0.0028090 -0.0000722 0.0000076 -0.0000618 -0.0000386 -0.0000203 0.0000428 -0.0000269 -0.0001907 -0.0000046 -0.0007297 -0.0000409 0.0000622 -0.0000338 0.0001335 -0.0000440 -0.0008789 -0.0000341 0.0001718 0.0000012 0.0001794 -0.0000240 0.0000253 0.0000081 0.0000814 -0.0000292 -0.0000432 -0.0000503 -0.0016318 0.0000123 -0.0005976 -0.0000229 -0.0002681 -0.0000060 -0.0001562 -0.0000045 -0.0001673 0.0000319 -0.0007451 -0.0000463 -0.0002740 -0.0000103 -0.0002759 -0.0000481 -0.0003779 -0.0000571 -0.0010466 -0.0000202 -0.0004949 0.0000259 -0.0008186 -0.0000373 -0.0005343 -0.0000271 -0.0003931 -0.0000308 -0.0004475 0.0000149 -0.0005396 0.0000175 -0.0005253 -0.0002100 -0.0018725 -0.0001071 -0.0008118 -0.0000574 -0.0007067 0.0000180 -0.0001757 -0.0000106 -0.0006588 0.0000443 -0.0004091
-0.0000224 0.0001079 -0.0000505 0.0000134 -0.0000597 0.0001485 -0.0000367 0.0001631 -0.0000952 0.0001798 -0.0000606 0.0000775 -0.0000480 0.0000615 -0.0002358 0.0000888 -0.0000717 0.0000391 -0.0001064 0.0000511 -0.0000475 -0.0000600 -0.0001075 0.0000240 0.0000415 -0.0000168 -0.0001198 -0.0003284 0.0000265 0.0000306 -0.0000902 0.0000570 -0.0000489 0.0001637 0.0000046 -0.0000918 -0.0000589 0.0001473 -0.0000355 0.0000544 -0.0000289 0.0000576 0.0000572 0.0000125 -0.0000306 0.0000370 -0.0001248 0.0001371 -0.0001697 -0.0002099 -0.0000738 0.0002355 -0.0001143 0.0001455 -0.0003320 0.0003667 -0.0000754 0.0000888 -0.0058723 0.0103097 -0.0031062 -0.0016070 -0.0013389 0.0056884 -0.0000737 0.0002505 -0.0080037 -0.0021871 -0.0001144 0.0002134 -0.0000657 -0.0002754 -0.0000260 -0.0001421 -0.0000322 -0.0003879 -0.0000010 -0.0008393 -0.0000401 -0.0001378 -0.0000265 -0.0000956 -0.0000340 -0.0010599 -0.0000235 -0.0000883 0.0000070 0.0000681 -0.0000164 -0.0000973 0.0000188 -0.0000192 -0.0000091 -0.0001823 -0.0000366 -0.0016874 0.0000080 -0.0006570 -0.0000224 -0.0003081 -0.0000104 -0.0000855 -0.0000132 -0.0001166 0.0000253 -0.0007297 -0.0000305 -0.0001672 -0.0000149 -0.0000969 -0.0000506 -0.0002423 -0.0000506 -0.0008504 -0.0000301 -0.0003907 0.0000108 -0.0006881 -0.0000573 -0.0004332 -0.0000417 -0.0002527 -0.0000299 -0.0002998 0.0000047 -0.0003731 0.0000037 -0.0002207 -0.0002016 -0.0016918 -0.0001119 -0.0007133 -0.0000650 -0.0005086 -0.0000021 0.0001000 -0.0000472 -0.0004528 0.0000265 -0.0001209
-0.0000296 0.0003042 -0.0000537 0.0000654 -0.0000699 0.0002594 -0.0000407 0.0003257 -0.0001199 0.0004049 -0.0000610 0.0001482 -0.0000723 0.0001872 -0.0002176 0.0001676 -0.0000775 0.0001430 -0.0001200 0.0002235 -0.0000436 0.0000699 -0.0001066 0.0001864 0.0000371 0.0000298 -0.0001402 -0.0002026 0.0000329 0.0001117 -0.0000974 0.0001968 -0.0000641 0.0002678 -0.0000101 0.0001093 -0.0000881 0.0003281 -0.0000464 0.0001521 -0.0000356 0.0001546 0.0000579 0.0000954 -0.0000270 0.0001773 -0.0001368 0.0002006 -0.0002621 -0.0001401 -0.0000874 0.0002238 -0.0001833 0.0002480 -0.0004144 0.0005059 -0.0001336 0.0001474 -0.0168388 0.0210018 0.0135207 -0.0165600 0.0037578 -0.0084083 -0.0001281 0.0002552 -0.0028744 -0.0043711 -0.0001226 0.0001740 -0.0000638 0.0001788 -0.0000167 0.0001898 -0.0000075 -0.0000700 0.0000059 -0.0005562 -0.0000551 0.0001786 -0.0000443 0.0002334 -0.0000336 -0.0007387 -0.0000375 0.0002716 0.0000065 0.0001953 -0.0000181 0.0000456 0.0000136 0.0001064 -0.0000101 -0.0000049 -0.0000309 -0.0014836 0.0000148 -0.0004988 0.0000067 -0.0001495 -0.0000156 -0.0000470 -0.0000212 -0.0000773 0.0000098 -0.0006225 -0.0000328 -0.0001502 -0.0000202 -0.0001121 -0.0000519 -0.0002385 -0.0000516 -0.0008042 -0.0000308 -0.0003608 0.0000221 -0.0006851 -0.0000583 -0.0004367 -0.0000418 -0.0002648 -0.0000221 -0.0003467 -0.0000063 -0.0003728 -0.0000165 -0.0002290 -0.0001962 -0.0016868 -0.0001241 -0.0006874 -0.0000466 -0.0005548 0.0000318 0.0000119 -0.0000388 -0.0004871 -0.0000105 -0.0001553
-0.0000325 0.0002022 -0.0000447 0.0000461 -0.0000728 0.0002055 -0.0000428 0.0002805 -0.0001586 0.0003277 -0.0000532 0.0001116 -0.0000922 0.0001879 -0.0002246 0.0000634 -0.0000986 0.0001248 -0.0001207 0.0001104 -0.0000414 0.0000183 -0.0001022 0.0001208 0.0000424 0.0000374 -0.0001323 -0.0002770 0.0000323 0.0001125 -0.0001017 0.0001297 -0.0000716 0.0002283 -0.0000152 0.0000707 -0.0001024 0.0003031 -0.0000508 0.0001137 -0.0000344 0.0001166 0.0000588 0.0000704 -0.0000238 0.0001124 -0.0000849 0.0000874 -0.0001317 -0.0002646 -0.0000932 0.0000969 0.0000310 0.0000134 -0.0002373 0.0002959 -0.0000574 -0.0000032 -0.0085261 0.0079947 0.0214220 -0.0336702 -0.0140888 0.0153012 -0.0001119 0.0000403 0.0002021 -0.0044258 -0.0000904 -0.0000764 -0.0000641 0.0000930 -0.0000236 0.0001378 -0.0000059 -0.0001602 -0.0000002 -0.0004969 -0.0000469 -0.0000361 -0.0000499 0.0001018 -0.0000188 -0.0007577 -0.0000315 0.0001179 0.0000050 0.0001078 -0.0000173 -0.0000328 0.0000139 0.0000418 -0.0000244 -0.0000508 -0.0000166 -0.0013711 0.0000212 -0.0005603 0.0000236 -0.0000597 -0.0000043 -0.0001998 -0.0000189 -0.0001702 0.0000161 -0.0006504 -0.0000354 -0.0002787 -0.0000257 -0.0002467 -0.0000537 -0.0003260 -0.0000436 -0.0008290 -0.0000218 -0.0003860 0.0000399 -0.0007525 -0.0000370 -0.0005151 -0.0000397 -0.0003567 -0.0000267 -0.0004728 -0.0000083 -0.0005043 -0.0000149 -0.0003817 -0.0001757 -0.0017825 -0.0001296 -0.0007283 -0.0000471 -0.0006844 0.0000479 -0.0001775 -0.0000133 -0.0006288 0.0000125 -0.0003488
-0.0000350 0.0000009 -0.0000490 -0.0000136 -0.0000741 0.0000689 -0.0000423 0.0001236 -0.0001789 0.0001257 -0.0000574 0.0000093 -0.0000683 0.0000237 -0.0002334 -0.0001149 -0.0000671 -0.0000394 -0.0001018 -0.0001159 -0.0000340 -0.0001486 -0.0001228 -0.0000551 0.0000494 -0.0000156 -0.0001097 -0.0004485 0.0000291 0.0000397 -0.0000833 -0.0000533 -0.0000669 0.0000833 -0.0000060 -0.0000939 -0.0000943 0.0001718 -0.0000394 -0.0000161 -0.0000367 0.0000310 0.0000570 0.0000417 -0.0000411 0.0000329 -0.0000645 0.0000494 -0.0001588 -0.0002568 -0.0001301 0.0001982 -0.0000172 0.0001035 0.0000624 0.0001282 -0.0000079 -0.0000279 -0.0159708 0.0180331 0.0045425 -0.0128153 -0.0136579 0.0161414 -0.0001174 0.0001761 -0.0109341 0.0179432 -0.0000573 0.0000269 -0.0000653 -0.0001212 -0.0000312 -0.0000476 -0.0000182 -0.0001673 0.0000060 -0.0004749 -0.0000365 0.0000411 -0.0000426 0.0000323 -0.0000180 -0.0007433 -0.0000258 0.0000178 0.0000011 0.0001206 -0.0000154 -0.0000477 0.0000141 0.0000354 -0.0000348 -0.0000908 -0.0000064 -0.0012026 0.0000062 -0.0004296 -0.0000213 -0.0002351 -0.0000184 -0.0000017 -0.0000262 -0.0000225 0.0000093 -0.0005191 -0.0000289 -0.0000496 -0.0000262 0.0000126 -0.0000546 -0.0001319 -0.0000383 -0.0005004 -0.0000204 -0.0002013 0.0000365 -0.0005393 -0.0000274 -0.0003785 -0.0000321 -0.0001652 -0.0000178 -0.0002899 -0.0000342 -0.0002872 -0.0000234 -0.0000310 -0.0001631 -0.0015596 -0.0001409 -0.0005913 -0.0000723 -0.0004766 -0.0000026 0.0001296 -0.0000248 -0.0004394 0.0000215 -0.0000919
-0.0000413 0.0002106 -0.0000561 0.0000299 -0.0000821 0.0001853 -0.0000381 0.0002818 -0.0001828 0.0003170 -0.0000717 0.0000752 -0.0000616 0.0000987 -0.0002461 -0.0000031 -0.0000598 0.0000290 -0.0001108 0.0000534 -0.0000429 -0.0000228 -0.0001417 0.0000955 0.0000472 0.0000342 -0.0001193 -0.0003198 0.0000302 0.0001064 -0.0001041 0.0000822 -0.0000692 0.0001482 0.0000019 0.0000527 -0.0001249 0.0003067 -0.0000436 0.0000499 -0.0000474 0.0001161 0.0000767 0.0001878 -0.0000518 0.0001877 -0.0000545 0.0001659 -0.0002602 -0.0002049 -0.0001310 0.0004682 -0.0002440 0.0004624 0.0001499 0.0002376 -0.0001209 0.0001794 -0.0076286 0.0100830 -0.0085075 0.0066549 -0.0017105 -0.0024695 -0.0001400 0.0004050 -0.0149719 0.0201001 -0.0000611 0.0001729 -0.0000415 0.0002027 -0.0000176 0.0002165 0.0000186 0.0000299 0.0000115 -0.0002427 -0.0000494 0.0001321 -0.0000556 0.0001772 -0.0000200 -0.0004774 -0.0000362 0.0001826 -0.0000034 0.0001713 -0.0000175 0.0000196 0.0000060 0.0001039 -0.0000343 0.0000122 -0.0000033 -0.0009366 0.0000148 -0.0003034 -0.0000310 -0.0002614 -0.0000190 -0.0000012 -0.0000279 -0.0000136 0.0000126 -0.0004047 -0.0000417 -0.0000298 -0.0000305 -0.0000143 -0.0000522 -0.0001192 -0.0000206 -0.0003615 -0.0000127 -0.0001433 0.0000375 -0.0004810 -0.0000547 -0.0003057 -0.0000239 -0.0000970 -0.0000325 -0.0002951 -0.0000168 -0.0002933 -0.0000359 -0.0000132 -0.0001436 -0.0015340 -0.0001290 -0.0005589 -0.0000607 -0.0004986 -0.0000089 0.0000906 -0.0000377 -0.0004276 0.0000404 -0.0001313
-0.0000430 0.0002090 -0.0000568 0.0000739 -0.0000824 0.0002129 -0.0000477 0.0003306 -0.0001997 0.0002728 -0.0000645 0.0000863 -0.0000558 0.0001659 -0.0002540 -0.0000153 -0.0000679 0.0000383 -0.0001230 0.0000286 -0.0000371 -0.0000263 -0.0001123 0.0000265 0.0000533 0.0000982 -0.0001124 -0.0003067 0.0000259 0.0001176 -0.0001082 0.0000335 -0.0000718 0.0001363 0.0000221 0.0001046 -0.0001511 0.0002864 -0.0000447 0.0000424 -0.0000520 0.0001113 0.0001059 0.0002565 -0.0000395 0.0001671 -0.0000642 0.0001505 -0.0002017 -0.0003827 -0.0001400 0.0004089 -0.0002814 0.0003936 -0.0000204 0.0003480 -0.0000801 0.0001185 -0.0079928 0.0030385 -0.0018865 0.0136604 0.0054704 -0.0165172 -0.0000924 0.0002864 -0.0169540 0.0180783 -0.0001266 0.0001322 -0.0000292 0.0001376 -0.0000120 0.0001697 0.0000297 -0.0000104 0.0000053 -0.0001364 -0.0000394 -0.0000786 -0.0000585 0.0000374 -0.0000102 -0.0004505 -0.0000299 0.0000219 -0.0000045 0.0000919 -0.0000150 -0.0000551 0.0000101 0.0000405 -0.0000152 -0.0000691 0.0000078 -0.0007452 0.0000258 -0.0003340 0.0000013 -0.0001163 -0.0000026 -0.0001557 -0.0000312 -0.0000923 0.0000123 -0.0003810 -0.0000517 -0.0001401 -0.0000347 -0.0001455 -0.0000513 -0.0001829 -0.0000085 -0.0002777 -0.0000058 -0.0001522 0.0000455 -0.0005374 -0.0000698 -0.0003504 -0.0000017 -0.0001358 -0.0000277 -0.0004116 -0.0000094 -0.0003825 -0.0000311 -0.0001537 -0.0001166 -0.0015651 -0.0000895 -0.0005829 -0.0000367 -0.0005996 0.0000138 -0.0000727 -0.0000310 -0.0004918 0.0000343 -0.0002383
-0.0000425 0.0000499 -0.0000555 0.0000405 -0.0000787 0.0001310 -0.0000588 0.0002393 -0.0002032 0.0000852 -0.0000445 0.0000051 -0.0000703 0.0001249 -0.0002524 -0.0001306 -0.0000618 -0.0000764 -0.0001081 -0.0001409 -0.0000343 -0.0001539 -0.0001242 -0.0001185 0.0000645 0.0001187 -0.0000845 -0.0004179 0.0000223 0.0000840 -0.0000733 -0.0001373 -0.0000712 0.0000493 0.0000372 0.0000231 -0.0001339 0.0001487 -0.0000428 -0.0000389 -0.0000478 0.0000371 0.0001134 0.0002194 -0.0000272 0.0000448 -0.0000194 -0.0000064 -0.0005218 -0.0003177 -0.0000138 0.0000944 -0.0001978 0.0002127 -0.0001278 0.0003118 -0.0000436 0.0000071 -0.0134533 -0.0039945 0.0059288 0.0047713 0.0168382 -0.0224447 -0.0000800 0.0001487 -0.0092847 0.0082251 -0.0001114 0.0000867 -0.0000399 0.0001090 -0.0000170 0.0000935 0.0000149 0.0001855 0.0000074 0.0000456 -0.0000271 0.0003035 -0.0000472 0.0001906 -0.0000141 -0.0002412 -0.0000309 0.0001676 -0.0000144 0.0002332 -0.0000179 0.0000508 0.0000094 0.0001233 -0.0000288 -0.0000155 0.0000177 -0.0004696 0.0000098 -0.0000816 0.0000151 -0.0000288 -0.0000178 0.0001341 -0.0000413 0.0001284 -0.0000076 -0.0001661 -0.0000376 0.0001546 -0.0000297 0.0001801 -0.0000512 0.0000552 -0.0000056 0.0000826 -0.0000131 0.0000404 0.0000441 -0.0003382 -0.0000482 -0.0002251 0.0000380 0.0000604 -0.0000434 -0.0001356 -0.0000299 -0.0001181 -0.0000332 0.0001945 -0.0000978 -0.0012942 -0.0000654 -0.0004674 -0.0000392 -0.0004641 0.0000038 0.0000907 -0.0000312 -0.0003888 -0.0000114 -0.0001033
-0.0000445 0.0001512 -0.0000619 0.0000229 -0.0000888 0.0001875 -0.0000553 0.0003131 -0.0002309 0.0002536 -0.0000457 0.0000174 -0.0000809 0.0001677 -0.0002302 -0.0000750 -0.0000612 -0.0000443 -0.0000979 -0.0000394 -0.0000399 -0.0000810 -0.0001345 -0.0000072 0.0000703 0.0001849 -0.0000813 -0.0003114 0.0000300 0.0001719 -0.0000697 -0.0000189 -0.0000821 0.0000957 0.0000183 0.0001140 -0.0001386 0.0002494 -0.0000541 0.0000259 -0.0000488 0.0001028 0.0001015 0.0002932 -0.0000356 0.0001683 -0.0000368 0.0000700 -0.0005960 -0.0002249 0.0000033 0.0002322 -0.0002144 0.0003324 -0.0000378 0.0002604 -0.0000222 0.0000685 0.0027159 -0.0113651 0.0134422 -0.0294784 0.0108733 -0.0079289 -0.0001178 0.0003536 0.0046158 -0.0192583 -0.0000636 0.0002805 -0.0000160 0.0001369 -0.0000227 0.0001929 0.0000404 0.0001768 -0.0000001 0.0002234 -0.0000257 0.0001297 -0.0000468 0.0001103 -0.0000139 -0.0001194 -0.0000279 0.0000962 -0.0000143 0.0002016 -0.0000208 0.0000398 0.0000092 0.0001223 -0.0000413 -0.0000073 0.0000194 -0.0002217 0.0000124 -0.0000256 0.0000428 0.0001126 -0.0000184 0.0000989 -0.0000377 0.0001053 -0.0000002 -0.0000694 -0.0000280 0.0001252 -0.0000297 0.0001550 -0.0000494 0.0000570 0.0000092 0.0002033 -0.0000103 0.0000927 0.0000346 -0.0002751 -0.0000375 -0.0001924 0.0000513 0.0000943 -0.0000385 -0.0000800 -0.0000293 -0.0000773 -0.0000445 0.0002266 -0.0000881 -0.0012170 -0.0000674 -0.0004419 -0.0000373 -0.0004612 -0.0000043 0.0000603 -0.0000337 -0.0003777 -0.0000123 -0.0001364
-0.0000480 0.0003503 -0.0000713 0.0000903 -0.0000892 0.0003021 -0.0000641 0.0004860 -0.0002679 0.0003855 -0.0000656 0.0001068 -0.0000815 0.0002992 -0.0002157 0.0000115 -0.0000622 0.0000290 -0.0001119 0.0000756 -0.0000381 -0.0000122 -0.0001302 0.0000767 0.0000731 0.0002538 -0.0000753 -0.0002122 0.0000318 0.0002280 -0.0000826 0.0000003 -0.0000851 0.0001166 -0.0000086 0.0001681 -0.0001466 0.0002457 -0.0000577 0.0000360 -0.0000578 0.0001136 0.0000723 0.0002681 -0.0000346 0.0001441 -0.0000902 0.0000960 -0.0004896 -0.0002998 -0.0000942 0.0002461 -0.0001627 0.0001588 -0.0002331 0.0003065 -0.0000185 0.0000376 -0.0065844 0.0183018 0.0048995 -0.0053005 -0.0084551 0.0044904 -0.0000884 0.0002086 0.0049931 -0.0209898 -0.0000714 0.0001941 0.0000028 0.0000346 -0.0000219 0.0001516 0.0000544 0.0001168 -0.0000104 0.0003185 -0.0000151 -0.0001598 -0.0000475 -0.0000880 -0.0000109 -0.0001189 -0.0000204 -0.0001309 -0.0000070 0.0000978 -0.0000185 -0.0000695 0.0000083 0.0000486 -0.0000236 -0.0001139 0.0000253 -0.0000351 0.0000177 -0.0000818 0.0000601 0.0002068 -0.0000038 -0.0000910 -0.0000332 -0.0000109 -0.0000004 -0.0000442 -0.0000273 -0.0000380 -0.0000257 -0.0000077 -0.0000470 -0.0000342 0.0000127 0.0002886 -0.0000026 0.0000815 0.0000464 -0.0003258 -0.0000560 -0.0002099 0.0000498 0.0000545 -0.0000153 -0.0001750 -0.0000344 -0.0001178 -0.0000147 0.0000903 -0.0000844 -0.0012049 -0.0000390 -0.0004531 -0.0000365 -0.0004505 0.0000083 0.0000469 -0.0000329 -0.0003081 -0.0000146 -0.0000474
-0.0000481 0.0002302 -0.0000716 0.0000650 -0.0000887 0.0002419 -0.0000742 0.0004445 -0.0002665 0.0002392 -0.0000674 0.0000601 -0.0000918 0.0002637 -0.0002430 -0.0000473 -0.0000880 -0.0000236 -0.0001227 -0.0000250 -0.0000409 -0.0000973 -0.0001218 -0.0000358 0.0000749 0.0002408 -0.0000725 -0.0002622 0.0000318 0.0001910 -0.0000958 -0.0001044 -0.0000870 0.0000576 -0.0000095 0.0000825 -0.0001369 0.0001457 -0.0000457 -0.0000593 -0.0000505 0.0000470 0.0000688 0.0002079 -0.0000284 0.0000251 -0.0000497 -0.0000378 -0.0002500 -0.0005092 -0.0000805 0.0000490 -0.0000824 -0.0000245 -0.0003617 0.0003295 -0.0000245 -0.0000615 0.0028764 0.0158274 0.0026805 0.0055947 0.0008222 -0.0015999 -0.0000577 -0.0000177 0.0013176 -0.0105111 -0.0000680 -0.0000476 -0.0000143 0.0003226 -0.0000217 0.0002995 0.0000359 0.0005275 -0.0000085 0.0006008 -0.0000151 0.0005167 -0.0000480 0.0003103 -0.0000250 0.0002582 -0.0000348 0.0002686 -0.0000088 0.0003443 -0.0000219 0.0001344 0.0000031 0.0002207 -0.0000335 0.0000476 0.0000274 0.0003008 0.0000028 0.0002588 0.0000665 0.0002714 -0.0000243 0.0002520 -0.0000452 0.0002411 -0.0000226 0.0002003 -0.0000234 0.0002972 -0.0000219 0.0003362 -0.0000439 0.0002119 0.0000152 0.0006394 -0.0000080 0.0002675 0.0000606 -0.0001591 -0.0000735 -0.0000519 0.0000541 0.0002034 -0.0000231 -0.0000070 -0.0000259 0.0000311 -0.0000071 0.0002217 -0.0000587 -0.0010917 -0.0000499 -0.0003665 -0.0000406 -0.0004258 0.0000271 -0.0000078 -0.0000375 -0.0002758 -0.0000249 -0.0000812
-0.0000474 0.0000490 -0.0000658 -0.0000127 -0.0000967 0.0001511 -0.0000673 0.0003339 -0.0002363 0.0001495 -0.0000683 -0.0000270 -0.0001061 0.0001593 -0.0002608 -0.0001331 -0.0001142 -0.0000744 -0.0001378 -0.0000823 -0.0000440 -0.0001506 -0.0001105 -0.0001182 0.0000705 0.0002289 -0.0000951 -0.0002514 0.0000337 0.0001767 -0.0000973 -0.0000719 -0.0000928 0.0000343 -0.0000047 0.0001147 -0.0001309 0.0001895 -0.0000471 -0.0000537 -0.0000445 0.0000784 0.0000780 0.0002879 -0.0000374 0.0001413 -0.0000443 0.0000276 -0.0001426 -0.0004858 -0.0000951 0.0001956 -0.0001537 0.0001332 -0.0001009 0.0002306 -0.0000174 -0.0000129 0.0072767 0.0010180 -0.0020632 0.0034681 0.0003645 0.0043945 -0.0000539 0.0001457 -0.0141016 0.0149044 -0.0000767 0.0001397 -0.0000064 0.0001852 -0.0000240 0.0002613 0.0000356 0.0004292 -0.0000178 0.0007014 -0.0000133 0.0003392 -0.0000427 0.0001874 -0.0000300 0.0003278 -0.0000313 0.0001461 -0.0000072 0.0002949 -0.0000263 0.0000986 0.0000027 0.0001854 -0.0000488 0.0000181 0.0000290 0.0005089 0.0000003 0.0002775 0.0000998 0.0004378 -0.0000244 0.0001989 -0.0000457 0.0002095 -0.0000193 0.0002537 -0.0000245 0.0002504 -0.0000203 0.0002936 -0.0000381 0.0001996 0.0000262 0.0007227 -0.0000103 0.0002884 0.0000631 -0.0001318 -0.0000620 -0.0000320 0.0000634 0.0001936 -0.0000195 -0.0000020 -0.0000109 0.0000575 -0.0000135 0.0002054 -0.0000429 -0.0010504 -0.0000701 -0.0003267 -0.0000320 -0.0004607 0.0000174 -0.0000920 -0.0000322 -0.0003073 -0.0000054 -0.0001756
-0.0000514 0.0002338 -0.0000693 0.0000337 -0.0001010 0.0002702 -0.0000753 0.0005077 -0.0002414 0.0003444 -0.0000854 0.0000652 -0.0001413 0.0002967 -0.0002547 0.0000073 -0.0001095 0.0000290 -0.0001551 0.0001215 -0.0000486 -0.0000034 -0.0000895 0.0000376 0.0000590 0.0002665 -0.0001114 -0.0000913 0.0000348 0.0002295 -0.0001197 0.0001059 -0.0000907 0.0001174 -0.0000190 0.0002929 -0.0001405 0.0003118 -0.0000571 0.0000541 -0.0000535 0.0001612 0.0000682 0.0003242 -0.0000256 0.0002296 -0.0000964 0.0001020 -0.0003606 -0.0003493 -0.0001153 0.0002056 -0.0003155 0.0002142 0.0000446 0.0000630 0.0000156 -0.0000466 -0.0192262 0.0250134 -0.0090229 0.0183833 -0.0094895 0.0150748 -0.0000584 0.0000788 -0.0072405 0.0179760 -0.0000588 0.0000771 0.0000063 -0.0000071 -0.0000181 0.0001619 0.0000375 0.0002577 -0.0000224 0.0007009 -0.0000079 -0.0000424 -0.0000278 -0.0000883 -0.0000231 0.0002508 -0.0000216 -0.0001595 -0.0000004 0.0001402 -0.0000255 -0.0000560 0.0000012 0.0000594 -0.0000391 -0.0001357 0.0000324 0.0006139 -0.0000000 0.0001475 0.0001285 0.0005638 -0.0000118 -0.0000379 -0.0000350 0.0000490 -0.0000190 0.0002270 -0.0000213 0.0000301 -0.0000120 0.0000877 -0.0000331 0.0000696 0.0000258 0.0007184 -0.0000099 0.0002346 0.0000624 -0.0001720 -0.0000453 -0.0000615 0.0000519 0.0001784 -0.0000360 -0.0000044 -0.0000056 0.0001197 -0.0000063 0.0002677 -0.0000392 -0.0009073 -0.0000247 -0.0002807 -0.0000331 -0.0003331 0.0000087 0.0000887 -0.0000266 -0.0001580 0.0000160 0.0000393
-0.0000541 0.0001106 -0.0000654 -0.0000005 -0.0001034 0.0002048 -0.0000797 0.0004573 -0.0002405 0.0001772 -0.0000703 0.0000159 -0.0001185 0.0002405 -0.0002324 -0.0000724 -0.0000547 -0.0000872 -0.0001288 -0.0000157 -0.0000512 -0.0000730 -0.0001271 -0.0000401 0.0000599 0.0002269 -0.0000924 -0.0001753 0.0000322 0.0001780 -0.0001086 -0.0000141 -0.0000778 0.0000422 -0.0000162 0.0001970 -0.0001252 0.0002075 -0.0000479 -0.0000132 -0.0000486 0.0001047 0.0000640 0.0002539 -0.0000182 0.0001188 -0.0000947 0.0000061 -0.0004679 -0.0003892 -0.0000940 0.0000347 -0.0003102 0.0000311 -0.0000792 0.0000200 0.0001053 -0.0002423 -0.0098440 0.0207547 -0.0002075 0.0086770 -0.0061546 0.0044644 -0.0001398 -0.0001158 0.0001020 0.0080950 -0.0000893 -0.0001485 -0.0000070 0.0004191 -0.0000070 0.0004187 0.0000234 0.0006774 -0.0000119 0.0009473 -0.0000162 0.0006176 -0.0000355 0.0003579 -0.0000373 0.0006311 -0.0000412 0.0003010 -0.0000052 0.0003867 -0.0000326 0.0001693 -0.0000018 0.0002362 -0.0000529 0.0000546 0.0000271 0.0008773 -0.0000171 0.0004576 0.0001451 0.0006475 -0.0000329 0.0002230 -0.0000410 0.0002325 -0.0000389 0.0004185 -0.0000286 0.0002382 -0.0000029 0.0002394 -0.0000290 0.0001640 0.0000143 0.0008210 -0.0000012 0.0002815 0.0000684 -0.0001407 -0.0000444 -0.0000499 0.0000541 0.0001625 -0.0000214 -0.0000677 0.0000057 0.0001160 -0.0000048 0.0001766 -0.0000178 -0.0008906 0.0000024 -0.0002679 -0.0000218 -0.0003702 0.0000268 -0.0000199 -0.0000083 -0.0001976 0.0000079 -0.0000208
-0.0000568 -0.0001189 -0.0000576 -0.0000943 -0.0001020 0.0000548 -0.0000708 0.0002651 -0.0002246 -0.0000767 -0.0000560 -0.0001238 -0.0000995 0.0000634 -0.0002306 -0.0002718 -0.0000108 -0.0002919 -0.0001050 -0.0002764 -0.0000357 -0.0002720 -0.0001423 -0.0002400 0.0000655 0.0001431 -0.0000884 -0.0003682 0.0000277 0.0000685 -0.0000840 -0.0002218 -0.0000772 -0.0001155 -0.0000018 -0.0000143 -0.0000885 0.0000285 -0.0000371 -0.0001519 -0.0000401 0.0000219 0.0000567 0.0001908 -0.0000274 0.0000492 -0.0000719 -0.0000084 -0.0004833 -0.0004019 0.0000262 0.0000282 -0.0000931 -0.0001269 -0.0001762 0.0001525 0.0000624 -0.0002337 -0.0000995 0.0008959 0.0113765 -0.0279000 -0.0051560 -0.0018557 -0.0001133 -0.0000420 -0.0072342 0.0104204 -0.0001152 -0.0000213 -0.0000086 0.0002570 0.0000008 0.0003196 0.0000107 0.0005265 -0.0000172 0.0009346 -0.0000066 0.0003709 -0.0000408 0.0001967 -0.0000373 0.0006021 -0.0000309 0.0001099 -0.0000018 0.0002778 -0.0000286 0.0000596 0.0000038 0.0001344 -0.0000430 -0.0000765 0.0000293 0.0009592 -0.0000181 0.0003839 0.0001756 0.0007887 -0.0000238 0.0000652 -0.0000377 0.0001243 -0.0000354 0.0003832 -0.0000297 0.0001087 0.0000022 0.0001031 -0.0000274 0.0000636 0.0000119 0.0007910 0.0000035 0.0002136 0.0000815 -0.0001892 -0.0000389 -0.0000998 0.0000612 0.0000780 -0.0000191 -0.0001921 0.0000205 0.0000201 0.0000014 0.0000067 -0.0000044 -0.0009543 -0.0000103 -0.0002656 -0.0000002 -0.0004998 0.0000213 -0.0001915 0.0000052 -0.0003209 0.0000156 -0.0002147
-0.0000574 0.0000654 -0.0000678 -0.0000593 -0.0001033 0.0001540 -0.0000665 0.0003694 -0.0002089 0.0001125 -0.0000783 -0.0000566 -0.0001277 0.0001482 -0.0002346 -0.0001710 -0.0000420 -0.0001812 -0.0001435 -0.0000845 -0.0000404 -0.0001637 -0.0000609 -0.0001511 0.0000582 0.0001447 -0.0001140 -0.0002638 0.0000303 0.0001039 -0.0000975 -0.0000794 -0.0000813 -0.0000515 -0.0000113 0.0000770 -0.0000884 0.0001332 -0.0000360 -0.0000898 -0.0000423 0.0000917 0.0000473 0.0002373 -0.0000352 0.0001653 -0.0000654 0.0001025 -0.0003643 -0.0004211 0.0000124 0.0002288 -0.0000041 -0.0000103 -0.0001207 0.0003167 -0.0000021 -0.0000507 -0.0173968 0.0131168 0.0052195 -0.0044579 -0.0022540 0.0061393 -0.0000768 0.0002074 -0.0083564 0.0100324 -0.0001247 0.0001708 -0.0000046 -0.0000582 -0.0000004 0.0001016 0.0000071 0.0002170 -0.0000282 0.0007848 0.0000068 -0.0001517 -0.0000236 -0.0001893 -0.0000259 0.0003860 -0.0000084 -0.0003293 0.0000085 0.0000454 -0.0000168 -0.0001892 0.0000102 -0.0000712 -0.0000224 -0.0003351 0.0000318 0.0009251 -0.0000183 0.0001492 0.0001657 0.0007716 -0.0000047 -0.0002128 -0.0000314 -0.0000602 -0.0000258 0.0002623 -0.0000167 -0.0000962 0.0000011 -0.0000199 -0.0000306 -0.0000198 0.0000122 0.0008483 -0.0000112 0.0001976 0.0000949 -0.0001502 -0.0000327 -0.0000550 0.0000509 0.0001510 -0.0000374 -0.0000741 0.0000115 0.0001166 -0.0000144 0.0002104 0.0000006 -0.0008119 0.0000072 -0.0001681 0.0000058 -0.0003805 0.0000315 -0.0000178 -0.0000075 -0.0001952 0.0000191 -0.0000671
-0.0000630 0.0001149 -0.0000772 0.0000026 -0.0000941 0.0001743 -0.0000670 0.0004040 -0.0002202 0.0000754 -0.0000758 -0.0000237 -0.0001054 0.0001796 -0.0002480 -0.0001477 -0.0000765 -0.0001393 -0.0001494 -0.0000963 -0.0000524 -0.0001464 -0.0000232 -0.0001904 0.0000578 0.0001384 -0.0000990 -0.0002946 0.0000283 0.0001011 -0.0001077 -0.0001207 -0.0000601 -0.0000762 0.0000011 0.0000393 -0.0000934 0.0000867 -0.0000352 -0.0001015 -0.0000399 0.0000609 0.0000716 0.0002427 -0.0000326 0.0000970 -0.0000460 0.0000495 -0.0004843 -0.0003649 -0.0000301 0.0001397 -0.0001406 0.0000257 0.0000235 0.0001368 -0.0000272 -0.0000673 0.0063346 -0.0149706 0.0076667 -0.0004146 -0.0035527 -0.0013916 -0.0001069 0.0001125 -0.0007998 0.0052599 -0.0001837 0.0000438 0.0000102 0.0001026 0.0000080 0.0002290 0.0000221 0.0002360 -0.0000303 0.0007834 -0.0000066 -0.0002275 -0.0000219 -0.0001903 -0.0000331 0.0004346 -0.0000203 -0.0003072 0.0000133 -0.0000070 -0.0000177 -0.0002279 0.0000114 -0.0001106 -0.0000228 -0.0003552 0.0000242 0.0009212 -0.0000157 0.0000978 0.0001491 0.0007268 -0.0000027 -0.0003471 -0.0000219 -0.0001763 -0.0000253 0.0002115 -0.0000150 -0.0002332 0.0000007 -0.0001765 -0.0000353 -0.0001353 0.0000114 0.0007528 -0.0000116 0.0001276 0.0001156 -0.0002258 -0.0000245 -0.0000951 0.0000627 0.0000624 -0.0000356 -0.0001857 0.0000257 0.0000354 -0.0000098 0.0000915 0.0000167 -0.0008851 0.0000019 -0.0001942 0.0000115 -0.0004485 0.0000635 -0.0001487 0.0000091 -0.0002667 0.0000185 -0.0001523
-0.0000674 -0.0000744 -0.0000738 -0.0000533 -0.0000822 0.0000442 -0.0000689 0.0002560 -0.0002278 -0.0001277 -0.0000592 -0.0001180 -0.0000996 0.0000499 -0.0002679 -0.0002712 -0.0000673 -0.0002698 -0.0001149 -0.0002978 -0.0000384 -0.0002869 0.0000021 -0.0003800 0.0000642 0.0000514 -0.0000866 -0.0004881 0.0000219 0.0000078 -0.0000935 -0.0003291 -0.0000438 -0.0002057 0.0000236 -0.0001334 -0.0000785 -0.0000562 -0.0000272 -0.0002178 -0.0000359 -0.0000367 0.0000782 0.0001363 -0.0000196 -0.0000746 -0.0000405 -0.0000824 -0.0005770 -0.0003896 0.0000315 -0.0000936 -0.0000796 -0.0002066 -0.0000049 -0.0000573 -0.0000110 -0.0002490 0.0085035 -0.0011963 0.0067707 -0.0094059 -0.0054650 -0.0092554 -0.0000213 -0.0002176 -0.0013684 0.0061270 -0.0001806 -0.0001717 0.0000136 -0.0000777 0.0000149 0.0000934 0.0000131 0.0000687 -0.0000404 0.0006383 0.0000004 -0.0005187 -0.0000214 -0.0003972 -0.0000348 0.0002941 -0.0000200 -0.0005232 0.0000184 -0.0001681 -0.0000197 -0.0003926 0.0000165 -0.0002518 -0.0000062 -0.0005495 0.0000185 0.0008161 -0.0000099 -0.0000781 0.0001533 0.0007500 0.0000057 -0.0005759 -0.0000026 -0.0003745 -0.0000219 0.0000953 -0.0000174 -0.0004398 0.0000050 -0.0004049 -0.0000395 -0.0003098 0.0000070 0.0006046 -0.0000069 0.0000094 0.0001169 -0.0003316 -0.0000284 -0.0001667 0.0000725 -0.0000900 -0.0000432 -0.0003993 0.0000478 -0.0001303 -0.0000061 -0.0001254 0.0000236 -0.0010189 -0.0000185 -0.0002451 0.0000145 -0.0005719 0.0000769 -0.0003393 0.0000266 -0.0003661 0.0000380 -0.0002995
-0.0000598 -0.0000717 -0.0000678 -0.0001142 -0.0000856 0.0000271 -0.0000715 0.0002181 -0.0002009 -0.0000403 -0.0000641 -0.0001343 -0.0001170 -0.0000260 -0.0002614 -0.0002716 -0.0000702 -0.0002606 -0.0001220 -0.0002271 -0.0000285 -0.0002731 -0.0000526 -0.0002810 0.0000588 -0.0000080 -0.0001006 -0.0004969 0.0000199 -0.0000152 -0.0000786 -0.0002702 -0.0000524 -0.0001902 0.0000174 -0.0001016 -0.0000604 0.0000069 -0.0000306 -0.0001937 -0.0000378 0.0000062 0.0000684 0.0001335 -0.0000241 0.0000109 -0.0000363 0.0000060 -0.0003911 -0.0004710 -0.0000777 0.0001494 -0.0000810 -0.0001040 -0.0000632 0.0000536 0.0000480 -0.0002447 -0.0009455 0.0160487 0.0121884 -0.0200049 0.0040358 -0.0080189 0.0000093 -0.0001199 -0.0067219 -0.0003583 -0.0001121 -0.0000587 -0.0000072 -0.0001607 0.0000146 -0.0000335 -0.0000137 0.0001323 -0.0000464 0.0005584 0.0000125 -0.0002634 -0.0000082 -0.0003190 -0.0000437 0.0003015 -0.0000172 -0.0004669 0.0000181 -0.0000974 -0.0000196 -0.0003698 0.0000183 -0.0002242 0.0000104 -0.0005847 0.0000070 0.0007895 -0.0000227 -0.0000302 0.0001268 0.0006558 -0.0000086 -0.0004152 -0.0000028 -0.0002628 -0.0000324 0.0001395 -0.0000044 -0.0002883 0.0000081 -0.0002214 -0.0000394 -0.0001874 -0.0000150 0.0007394 -0.0000190 0.0001117 0.0001121 -0.0002029 -0.0000412 -0.0000514 0.0000573 0.0000207 -0.0000393 -0.0002730 0.0000337 -0.0000283 -0.0000002 0.0000719 0.0000238 -0.0009197 0.0000263 -0.0002255 0.0000031 -0.0005304 0.0000532 -0.0002798 0.0000282 -0.0003349 0.0000330 -0.0003052
-0.0000584 0.0001539 -0.0000730 -0.0000459 -0.0000938 0.0001569 -0.0000678 0.0003686 -0.0002040 0.0001903 -0.0000746 -0.0000241 -0.0001085 0.0000628 -0.0002581 -0.0001079 -0.0000645 -0.0001074 -0.0001323 0.0000021 -0.0000208 -0.0001089 -0.0001205 -0.0000171 0.0000511 0.0000316 -0.0001142 -0.0003232 0.0000227 0.0000662 -0.0000906 -0.0000446 -0.0000624 -0.0000522 0.0000023 0.0000673 -0.0000769 0.0001740 -0.0000379 -0.0000525 -0.0000463 0.0001287 0.0000780 0.0002596 -0.0000362 0.0002124 -0.0000590 0.0002092 0.0001579 -0.0007605 -0.0001364 0.0004038 0.0000019 0.0000631 -0.0002046 0.0003055 0.0000497 -0.0000737 -0.0001527 0.0030486 0.0072450 -0.0153639 0.0052740 -0.0094483 -0.0000205 -0.0000358 -0.0046306 -0.0031857 -0.0001137 -0.0000226 -0.0000024 -0.0002760 0.0000123 -0.0000826 -0.0000171 -0.0000283 -0.0000542 0.0004254 0.0000105 -0.0004944 -0.0000029 -0.0004563 -0.0000494 0.0001943 -0.0000126 -0.0005845 0.0000263 -0.0002002 -0.0000148 -0.0004458 0.0000275 -0.0002962 0.0000240 -0.0006676 -0.0000049 0.0006748 -0.0000200 -0.0001386 0.0001175 0.0006302 -0.0000071 -0.0005026 0.0000053 -0.0003452 -0.0000331 0.0000743 0.0000021 -0.0003739 0.0000056 -0.0003243 -0.0000434 -0.0002604 -0.0000244 0.0006113 -0.0000215 0.0000552 0.0001223 -0.0002549 -0.0000480 -0.0000753 0.0000646 -0.0000564 -0.0000191 -0.0003812 0.0000309 -0.0001513 0.0000083 -0.0000869 0.0000287 -0.0009843 0.0000210 -0.0003008 0.0000075 -0.0006160 0.0000605 -0.0004030 0.0000304 -0.0004015 0.0000250 -0.0004084
-0.0000658 0.0000212 -0.0000748 -0.0000385 -0.0000923 0.0000998 -0.0000513 0.0003054 -0.0002062 0.0000501 -0.0000713 -0.0000349 -0.0001092 0.0000674 -0.0002663 -0.0001471 -0.0000674 -0.0001054 -0.0001291 -0.0000745 -0.0000264 -0.0001377 -0.0001142 -0.0001056 0.0000556 0.0000080 -0.0000988 -0.0003824 0.0000226 0.0000494 -0.0000826 -0.0001383 -0.0000586 -0.0000756 -0.0000040 0.0000197 -0.0000988 0.0001130 -0.0000214 -0.0000780 -0.0000465 0.0000959 0.0000810 0.0002142 -0.0000352 0.0001258 -0.0000341 0.0001468 0.0002365 -0.0008062 -0.0000998 0.0002500 -0.0000454 -0.0000415 -0.0000528 0.0001419 -0.0000172 -0.0000555 -0.0065198 0.0067047 0.0050624 -0.0168024 0.0094562 -0.0089343 -0.0000082 -0.0001501 -0.0097195 0.0079239 -0.0001114 -0.0001954 -0.0000019 -0.0004800 0.0000128 -0.0002401 -0.0000221 -0.0002519 -0.0000611 0.0002142 0.0000181 -0.0008629 0.0000012 -0.0007232 -0.0000467 -0.0000438 -0.0000030 -0.0008650 0.0000300 -0.0003888 -0.0000060 -0.0006334 0.0000366 -0.0004540 0.0000314 -0.0008597 -0.0000145 0.0004443 -0.0000148 -0.0003708 0.0001170 0.0006074 0.0000153 -0.0007678 0.0000174 -0.0005422 -0.0000300 -0.0000813 0.0000001 -0.0005906 0.0000036 -0.0005641 -0.0000522 -0.0004525 -0.0000322 0.0004195 -0.0000190 -0.0000750 0.0001382 -0.0003879 -0.0000553 -0.0001681 0.0000612 -0.0001656 -0.0000515 -0.0005623 0.0000447 -0.0003872 0.0000062 -0.0003277 0.0000245 -0.0010473 0.0000007 -0.0003436 0.0000250 -0.0006287 0.0000895 -0.0004274 0.0000305 -0.0003645 0.0000256 -0.0003224
-0.0000686 -0.0002030 -0.0000738 -0.0000939 -0.0000829 -0.0000542 -0.0000405 0.0001198 -0.0002061 -0.0001793 -0.0000606 -0.0001299 -0.0000719 -0.0000816 -0.0002622 -0.0003097 -0.0000640 -0.0002398 -0.0001253 -0.0002887 -0.0000327 -0.0002844 -0.0000907 -0.0003191 0.0000589 -0.0000877 -0.0000797 -0.0005753 0.0000198 -0.0000452 -0.0000637 -0.0003436 -0.0000540 -0.0001957 0.0000020 -0.0001380 -0.0000853 -0.0000378 -0.0000041 -0.0002020 -0.0000356 -0.0000083 0.0000803 0.0001000 -0.0000249 -0.0000533 -0.0000509 0.0000355 -0.0001025 -0.0005753 -0.0000218 0.0000311 -0.0002238 -0.0000948 0.0000840 -0.0001261 0.0000284 -0.0002144 -0.0012371 0.0035452 0.0112200 -0.0249786 0.0074991 -0.0066595 0.0000127 -0.0000982 -0.0156160 0.0116459 -0.0000949 -0.0001735 -0.0000171 -0.0002179 0.0000225 -0.0001364 -0.0000366 0.0000575 -0.0000614 0.0002578 0.0000172 -0.0003533 0.0000082 -0.0004267 -0.0000557 0.0000820 -0.0000058 -0.0005911 0.0000295 -0.0002099 -0.0000072 -0.0004917 0.0000330 -0.0003212 0.0000104 -0.0007168 -0.0000288 0.0003979 -0.0000241 -0.0002310 0.0001074 0.0005647 0.0000094 -0.0005365 0.0000085 -0.0003579 -0.0000345 0.0000047 0.0000112 -0.0003647 0.0000027 -0.0003210 -0.0000537 -0.0003018 -0.0000612 0.0005754 -0.0000281 0.0000609 0.0001429 -0.0002393 -0.0000442 -0.0000482 0.0000381 0.0000289 -0.0000579 -0.0004271 0.0000426 -0.0003142 0.0000093 -0.0001455 0.0000372 -0.0009484 0.0000115 -0.0003181 0.0000201 -0.0005863 0.0001011 -0.0004326 0.0000335 -0.0003401 0.0000432 -0.0003399
-0.0000652 -0.0000011 -0.0000780 -0.0000684 -0.0000805 0.0000145 -0.0000394 0.0002132 -0.0001919 -0.0000078 -0.0000603 -0.0000832 -0.0000762 -0.0000319 -0.0002682 -0.0002013 -0.0000589 -0.0001861 -0.0001286 -0.0001315 -0.0000340 -0.0001849 -0.0000780 -0.0001821 0.0000512 -0.0000888 -0.0000920 -0.0004826 0.0000208 -0.0000090 -0.0000782 -0.0001907 -0.0000528 -0.0001301 0.0000125 -0.0000455 -0.0000750 0.0000769 -0.0000102 -0.0001358 -0.0000374 0.0000615 0.0000804 0.0001758 -0.0000275 0.0000697 -0.0000478 0.0001289 -0.0004202 -0.0002821 0.0000170 0.0002451 -0.0001166 0.0000243 -0.0002443 0.0002515 0.0000496 -0.0001525 -0.0009079 0.0023118 0.0055529 -0.0219365 -0.0123343 0.0028981 -0.0000736 0.0001935 -0.0013792 -0.0124277 -0.0000816 0.0000884 -0.0000122 -0.0003333 0.0000167 -0.0001811 -0.0000368 -0.0000361 -0.0000749 0.0002032 0.0000143 -0.0005187 0.0000126 -0.0005340 -0.0000572 -0.0000047 0.0000056 -0.0006846 0.0000350 -0.0002817 -0.0000116 -0.0005367 0.0000325 -0.0003610 0.0000270 -0.0007799 -0.0000382 0.0002793 -0.0000083 -0.0003203 0.0001119 0.0005942 0.0000159 -0.0005936 0.0000136 -0.0004111 -0.0000250 -0.0000363 0.0000172 -0.0004215 0.0000021 -0.0003963 -0.0000555 -0.0003552 -0.0000725 0.0004682 -0.0000270 0.0000339 0.0001460 -0.0002675 -0.0000240 -0.0000789 0.0000501 0.0000068 -0.0000228 -0.0005408 0.0000197 -0.0003707 0.0000055 -0.0002378 0.0000552 -0.0009980 -0.0000028 -0.0003792 0.0000211 -0.0006436 0.0001149 -0.0005404 0.0000344 -0.0003969 0.0000513 -0.0004429
-0.0000679 0.0002717 -0.0000810 0.0000232 -0.0000870 0.0001804 -0.0000302 0.0004412 -0.0002179 0.0002923 -0.0000683 0.0000572 -0.0001151 0.0001727 -0.0002709 0.0000228 -0.0000647 0.0000097 -0.0001555 0.0001794 -0.0000280 0.0000260 -0.0001250 0.0000961 0.0000428 -0.0000124 -0.0001165 -0.0002078 0.0000220 0.0000990 -0.0001039 0.0000885 -0.0000567 0.0000449 0.0000195 0.0001684 -0.0001028 0.0002922 -0.0000303 0.0000526 -0.0000483 0.0002093 0.0000829 0.0003164 -0.0000309 0.0002869 -0.0000382 0.0002697 -0.0003908 -0.0002242 -0.0000548 0.0004068 -0.0000478 0.0000987 -0.0002446 0.0004403 -0.0000572 0.0000165 -0.0014691 -0.0005739 0.0040901 -0.0221460 0.0002005 -0.0056757 -0.0001380 0.0002004 0.0008083 -0.0039219 -0.0000281 0.0000473 -0.0000108 -0.0005468 0.0000017 -0.0003225 -0.0000333 -0.0002464 -0.0000898 0.0000647 0.0000200 -0.0008953 0.0000214 -0.0008316 -0.0000587 -0.0002424 0.0000182 -0.0009836 0.0000399 -0.0004684 0.0000010 -0.0007365 0.0000415 -0.0005225 0.0000531 -0.0009924 -0.0000439 0.0000416 0.0000086 -0.0005633 0.0001013 0.0005633 0.0000366 -0.0008545 0.0000328 -0.0006122 -0.0000122 -0.0001867 0.0000218 -0.0006399 0.0000019 -0.0006258 -0.0000644 -0.0005201 -0.0000799 0.0003001 -0.0000252 -0.0000630 0.0001537 -0.0003940 -0.0000181 -0.0001754 0.0000804 -0.0001056 -0.0000328 -0.0006696 0.0000213 -0.0005112 0.0000060 -0.0003800 0.0000530 -0.0010351 -0.0000272 -0.0004162 0.0000258 -0.0006045 0.0001096 -0.0004389 0.0000311 -0.0003172 0.0000327 -0.0002926
-0.0000744 0.0001196 -0.0000793 0.0000247 -0.0000917 0.0001285 -0.0000325 0.0004063 -0.0002269 0.0001615 -0.0000703 0.0000525 -0.0000958 0.0001497 -0.0002690 -0.0000123 -0.0000593 -0.0000023 -0.0001631 0.0001082 -0.0000261 -0.0000095 -0.0001318 0.0000034 0.0000477 -0.0000186 -0.0001124 -0.0002156 0.0000195 0.0000831 -0.0000951 0.0000073 -0.0000595 0.0000354 0.0000226 0.0001283 -0.0001178 0.0002408 -0.0000321 0.0000478 -0.0000467 0.0001793 0.0000792 0.0002864 -0.0000184 0.0002172 -0.0000417 0.0002490 -0.0002808 -0.0003365 -0.0000735 0.0002755 0.0000891 -0.0001116 -0.0001051 0.0002848 -0.0001284 0.0000305 0.0031107 -0.0080544 0.0010123 -0.0036040 0.0010079 -0.0016861 -0.0001158 0.0000438 -0.0052699 0.0002363 -0.0000353 -0.0001237 -0.0000271 -0.0002271 0.0000054 -0.0001653 -0.0000459 0.0001019 -0.0000986 0.0001839 0.0000188 -0.0003724 0.0000260 -0.0005044 -0.0000747 -0.0000751 0.0000082 -0.0006561 0.0000414 -0.0002669 0.0000052 -0.0005716 0.0000446 -0.0003728 0.0000440 -0.0008310 -0.0000552 0.0000319 -0.0000038 -0.0003793 0.0000661 0.0004646 0.0000277 -0.0005894 0.0000259 -0.0004035 -0.0000307 -0.0000523 0.0000246 -0.0003784 0.0000034 -0.0003617 -0.0000664 -0.0003374 -0.0001080 0.0005211 -0.0000359 0.0000918 0.0001523 -0.0002362 -0.0000111 -0.0000551 0.0000868 0.0000778 -0.0000308 -0.0004726 0.0000345 -0.0003750 0.0000006 -0.0001377 0.0000485 -0.0008608 -0.0000281 -0.0003275 0.0000121 -0.0005171 0.0000965 -0.0003712 0.0000322 -0.0002566 0.0000194 -0.0002402
-0.0000742 -0.0001070 -0.0000732 -0.0000392 -0.0000834 -0.0000014 -0.0000374 0.0002519 -0.0002243 -0.0000829 -0.0000708 -0.0000345 -0.0000904 0.0000511 -0.0002569 -0.0001580 -0.0000712 -0.0001042 -0.0001447 -0.0001203 -0.0000406 -0.0001376 -0.0000739 -0.0002317 0.0000542 -0.0000701 -0.0001043 -0.0003547 0.0000176 0.0000158 -0.0000818 -0.0001983 -0.0000535 -0.0000787 0.0000233 -0.0000082 -0.0000941 0.0000813 -0.0000136 -0.0000657 -0.0000412 0.0000788 0.0000774 0.0002022 -0.0000084 0.0000633 -0.0000416 0.0002104 -0.0004080 -0.0002811 -0.0000349 0.0002188 0.0001377 -0.0001936 -0.0001289 0.0003157 0.0000019 -0.0000829 -0.0034755 -0.0012839 -0.0088590 0.0071441 -0.0159263 0.0055262 -0.0000245 0.0000865 0.0015836 -0.0015527 -0.0000344 0.0000062 -0.0000180 -0.0002901 0.0000093 -0.0001753 -0.0000422 0.0000318 -0.0001074 0.0001897 0.0000130 -0.0005072 0.0000259 -0.0005624 -0.0000685 -0.0001321 0.0000162 -0.0007056 0.0000399 -0.0003049 0.0000053 -0.0005799 0.0000401 -0.0003740 0.0000439 -0.0008249 -0.0000559 -0.0000304 0.0000100 -0.0004212 0.0000803 0.0005236 0.0000339 -0.0006093 0.0000260 -0.0004062 -0.0000388 -0.0000369 0.0000251 -0.0003844 -0.0000023 -0.0003890 -0.0000607 -0.0003545 -0.0001131 0.0004945 -0.0000308 0.0000757 0.0001433 -0.0002555 -0.0000141 -0.0000663 0.0000700 0.0000933 -0.0000186 -0.0005147 0.0000369 -0.0004160 0.0000291 -0.0002222 0.0000446 -0.0008713 -0.0000230 -0.0003591 0.0000118 -0.0005534 0.0001014 -0.0004404 0.0000496 -0.0003010 0.0000216 -0.0002976
-0.0000736 0.0001196 -0.0000799 0.0000129 -0.0000789 0.0001185 -0.0000434 0.0003950 -0.0002405 0.0001194 -0.0000907 0.0000550 -0.0001006 0.0001571 -0.0002733 0.0000122 -0.0000552 -0.0000207 -0.0001380 0.0000163 -0.0000358 -0.0000245 -0.0000209 -0.0001327 0.0000484 -0.0000120 -0.0001076 -0.0002051 0.0000183 0.0000862 -0.0000893 -0.0000383 -0.0000577 0.0000145 0.0000179 0.0001219 -0.0000856 0.0001986 -0.0000103 0.0000316 -0.0000511 0.0001672 0.0000804 0.0002918 -0.0000121 0.0002152 -0.0000628 0.0003531 -0.0004652 -0.0001643 -0.0000242 0.0004377 0.0000258 0.0001470 -0.0000688 0.0004465 -0.0000180 0.0000662 -0.0093214 0.0019731 -0.0080318 -0.0019525 -0.0068483 -0.0002426 -0.0000104 0.0003290 -0.0087956 0.0232831 -0.0000222 0.0002835 -0.0000082 -0.0004721 0.0000053 -0.0002910 -0.0000333 -0.0001484 -0.0001061 0.0000726 0.0000168 -0.0008383 0.0000210 -0.0007926 -0.0000557 -0.0003574 0.0000315 -0.0009684 0.0000423 -0.0004554 0.0000164 -0.0007396 0.0000442 -0.0004830 0.0000577 -0.0009697 -0.0000586 -0.0002047 0.0000289 -0.0006207 0.0000768 0.0004739 0.0000450 -0.0008125 0.0000372 -0.0005489 -0.0000275 -0.0001617 0.0000223 -0.0005495 -0.0000079 -0.0005624 -0.0000599 -0.0004872 -0.0001015 0.0003572 -0.0000203 -0.0000159 0.0001572 -0.0003938 -0.0000099 -0.0001552 0.0000743 0.0000117 -0.0000297 -0.0006202 0.0000362 -0.0005152 0.0000396 -0.0003714 0.0000543 -0.0009436 -0.0000170 -0.0004113 0.0000118 -0.0005095 0.0001079 -0.0003481 0.0000549 -0.0002224 0.0000252 -0.0001617
-0.0000736 0.0004119 -0.0000928 0.0001282 -0.0000886 0.0003286 -0.0000525 0.0006697 -0.0002430 0.0004096 -0.0001008 0.0002220 -0.0001205 0.0003581 -0.0003015 0.0003063 -0.0000439 0.0001701 -0.0001518 0.0003215 -0.0000223 0.0001898 -0.0000367 0.0001186 0.0000443 0.0000891 -0.0001028 0.0000513 0.0000237 0.0002047 -0.0001171 0.0002394 -0.0000683 0.0002121 0.0000068 0.0003475 -0.0001245 0.0004176 -0.0000163 0.0001991 -0.0000570 0.0002805 0.0000686 0.0003656 -0.0000043 0.0003495 0.0000079 0.0003463 -0.0003365 -0.0002901 -0.0001265 0.0005392 -0.0000480 0.0002122 0.0000508 0.0003288 -0.0000923 0.0001521 -0.0115982 0.0062983 -0.0035799 0.0002519 0.0007292 0.0017322 -0.0000831 0.0003797 -0.0124871 0.0213443 -0.0001030 0.0003714 -0.0000221 -0.0001553 0.0000118 -0.0001300 -0.0000356 0.0002073 -0.0001052 0.0001968 0.0000143 -0.0002699 0.0000165 -0.0004286 -0.0000669 -0.0001854 0.0000178 -0.0006036 0.0000403 -0.0002216 0.0000241 -0.0005530 0.0000457 -0.0003030 0.0000491 -0.0007824 -0.0000705 -0.0001785 0.0000203 -0.0004132 0.0000401 0.0003332 0.0000350 -0.0005134 0.0000269 -0.0003176 -0.0000374 -0.0000381 0.0000285 -0.0002779 -0.0000050 -0.0002713 -0.0000617 -0.0002831 -0.0001057 0.0005429 -0.0000223 0.0001222 0.0001671 -0.0002484 -0.0000139 -0.0000391 0.0000753 0.0002032 -0.0000266 -0.0003770 0.0000268 -0.0002997 0.0000073 -0.0000474 0.0000517 -0.0007379 0.0000025 -0.0003286 0.0000028 -0.0003638 0.0000795 -0.0001826 0.0000418 -0.0001056 0.0000395 -0.0000882
-0.0000747 0.0003059 -0.0000949 0.0001305 -0.0000901 0.0003017 -0.0000526 0.0006395 -0.0002671 0.0003221 -0.0000897 0.0002049 -0.0001299 0.0003776 -0.0002910 0.0002757 -0.0000268 0.0001423 -0.0001450 0.0002698 -0.0000372 0.0001685 -0.0000971 0.0000839 0.0000551 0.0001223 -0.0000944 0.0000635 0.0000306 0.0002211 -0.0000970 0.0001628 -0.0000605 0.0002183 0.0000127 0.0003064 -0.0001450 0.0003911 -0.0000090 0.0001987 -0.0000543 0.0002576 0.0000643 0.0003427 0.0000006 0.0002949 0.0000200 0.0002985 -0.0003882 -0.0003671 -0.0002340 0.0005202 -0.0000498 -0.0000181 0.0001019 0.0001564 0.0000119 0.0000081 -0.0055364 -0.0027782 0.0003055 -0.0050679 0.0082895 -0.0110305 -0.0001296 0.0002599 0.0011499 -0.0036761 -0.0001211 0.0002122 -0.0000062 -0.0001249 0.0000135 -0.0000496 -0.0000147 0.0001521 -0.0001144 0.0002476 0.0000132 -0.0003603 0.0000118 -0.0004250 -0.0000614 -0.0002118 0.0000226 -0.0005958 0.0000371 -0.0002059 0.0000214 -0.0005086 0.0000441 -0.0002673 0.0000382 -0.0007008 -0.0000672 -0.0002112 0.0000310 -0.0004100 0.0000598 0.0004175 0.0000446 -0.0004936 0.0000245 -0.0002858 -0.0000354 -0.0000345 0.0000380 -0.0002804 -0.0000061 -0.0002614 -0.0000588 -0.0002592 -0.0001146 0.0004989 -0.0000214 0.0001011 0.0001578 -0.0002522 -0.0000254 -0.0000566 0.0000612 0.0002158 -0.0000540 -0.0003017 0.0000431 -0.0003151 0.0000195 -0.0000795 0.0000490 -0.0007069 0.0000054 -0.0003567 0.0000053 -0.0003598 0.0000812 -0.0002199 0.0000312 -0.0001074 0.0000495 -0.0001311
-0.0000721 0.0001099 -0.0000842 0.0000703 -0.0000826 0.0001827 -0.0000537 0.0004672 -0.0002725 0.0001247 -0.0000827 0.0001055 -0.0001111 0.0002613 -0.0002838 0.0001343 -0.0000101 0.0000146 -0.0001413 0.0000732 -0.0000370 0.0000162 -0.0000410 -0.0001442 0.0000667 0.0001303 -0.0000811 -0.0000647 0.0000313 0.0002015 -0.0000701 -0.0000071 -0.0000568 0.0001292 0.0000268 0.0001464 -0.0001329 0.0002622 0.0000077 0.0001220 -0.0000517 0.0002028 0.0000782 0.0003457 -0.0000086 0.0002558 -0.0000647 0.0004134 -0.0007169 -0.0002190 -0.0001473 0.0005895 -0.0001898 0.0001749 0.0000032 0.0003434 -0.0000586 0.0000869 -0.0047629 0.0081160 0.0177849 -0.0311245 0.0079280 -0.0173777 -0.0002249 0.0005023 -0.0112170 0.0047434 -0.0000646 0.0003106 0.0000093 -0.0002429 0.0000088 -0.0001038 0.0000017 -0.0000165 -0.0001124 0.0001535 0.0000195 -0.0006343 0.0000180 -0.0006050 -0.0000519 -0.0004125 0.0000421 -0.0007999 0.0000417 -0.0003042 0.0000173 -0.0005894 0.0000451 -0.0003299 0.0000439 -0.0007676 -0.0000636 -0.0003627 0.0000492 -0.0005647 0.0000711 0.0004339 0.0000620 -0.0006508 0.0000264 -0.0003749 -0.0000264 -0.0001440 0.0000393 -0.0004306 -0.0000065 -0.0003857 -0.0000532 -0.0003471 -0.0001132 0.0003241 -0.0000158 -0.0000171 0.0001498 -0.0003699 -0.0000129 -0.0001810 0.0000618 0.0001325 -0.0000655 -0.0003646 0.0000548 -0.0004144 0.0000376 -0.0002452 0.0000588 -0.0007660 0.0000041 -0.0004186 0.0000075 -0.0003444 0.0000901 -0.0001957 0.0000251 -0.0000589 0.0000348 -0.0000148
-0.0000677 0.0002979 -0.0000867 0.0001256 -0.0000836 0.0002955 -0.0000614 0.0005781 -0.0002814 0.0003095 -0.0000856 0.0001773 -0.0001044 0.0003250 -0.0002725 0.0002693 -0.0000191 0.0001328 -0.0001633 0.0002482 -0.0000479 0.0001391 -0.0000521 0.0000420 0.0000670 0.0002019 -0.0000837 0.0000488 0.0000351 0.0002836 -0.0001046 0.0001598 -0.0000670 0.0002370 0.0000083 0.0002587 -0.0001380 0.0003692 -0.0000039 0.0002216 -0.0000608 0.0002841 0.0000824 0.0004320 -0.0000107 0.0003889 -0.0000925 0.0005324 -0.0005057 -0.0003696 -0.0001051 0.0006354 -0.0002787 0.0004545 0.0000561 0.0003483 -0.0001416 0.0002303 0.0025099 -0.0012483 0.0040126 -0.0070273 0.0005767 -0.0081739 -0.0002475 0.0005403 -0.0088293 0.0027483 -0.0000007 0.0002741 -0.0000025 0.0000096 0.0000077 0.0000182 -0.0000024 0.0002779 -0.0001012 0.0002276 0.0000162 -0.0000521 0.0000252 -0.0002612 -0.0000588 -0.0002694 0.0000326 -0.0004384 0.0000418 -0.0000647 0.0000199 -0.0003803 0.0000444 -0.0001378 0.0000380 -0.0005619 -0.0000633 -0.0003559 0.0000462 -0.0003646 0.0000654 0.0004056 0.0000550 -0.0003495 0.0000195 -0.0001396 -0.0000288 -0.0000330 0.0000385 -0.0001474 -0.0000020 -0.0000701 -0.0000453 -0.0001266 -0.0001145 0.0004253 -0.0000196 0.0000859 0.0001413 -0.0002434 -0.0000069 -0.0000967 0.0000565 0.0003124 -0.0000316 -0.0001651 0.0000326 -0.0001926 0.0000231 0.0000470 0.0000560 -0.0005902 -0.0000292 -0.0003126 0.0000021 -0.0002534 0.0000611 -0.0001007 0.0000312 -0.0000139 0.0000387 -0.0000016
-0.0000693 0.0001979 -0.0000948 0.0001251 -0.0000832 0.0002511 -0.0000712 0.0005172 -0.0002545 0.0001901 -0.0000855 0.0001434 -0.0000895 0.0002809 -0.0002604 0.0002016 -0.0000243 0.0001121 -0.0001605 0.0001656 -0.0000471 0.0000936 -0.0001148 0.0000450 0.0000758 0.0002081 -0.0000699 -0.0000081 0.0000383 0.0002730 -0.0001044 0.0000657 -0.0000603 0.0001935 0.0000037 0.0002041 -0.0001373 0.0003114 -0.0000112 0.0001938 -0.0000613 0.0002463 0.0000744 0.0003759 -0.0000068 0.0003102 -0.0000826 0.0004552 -0.0001021 -0.0006483 -0.0001312 0.0005051 -0.0001873 0.0003015 0.0000256 0.0002555 -0.0001162 0.0001810 0.0060644 -0.0128160 -0.0064423 0.0037800 0.0039866 -0.0031983 -0.0001839 0.0003917 -0.0143547 0.0140035 0.0000992 -0.0000044 0.0000170 -0.0000523 0.0000114 0.0000268 0.0000201 0.0001526 -0.0001010 0.0001998 0.0000221 -0.0001988 0.0000159 -0.0003025 -0.0000444 -0.0003432 0.0000320 -0.0004701 0.0000465 -0.0000753 0.0000276 -0.0003668 0.0000429 -0.0001184 0.0000325 -0.0004782 -0.0000512 -0.0004204 0.0000535 -0.0003834 0.0000723 0.0004314 0.0000580 -0.0003539 0.0000200 -0.0001280 -0.0000176 -0.0000607 0.0000402 -0.0001528 0.0000037 -0.0000783 -0.0000309 -0.0001145 -0.0001043 0.0002902 -0.0000142 0.0000348 0.0001545 -0.0003049 0.0000023 -0.0001613 0.0000467 0.0002829 -0.0000290 -0.0001663 0.0000454 -0.0002093 0.0000158 0.0000056 0.0000528 -0.0005927 -0.0000418 -0.0002827 0.0000052 -0.0002743 0.0000528 -0.0001486 0.0000489 -0.0000833 0.0000413 -0.0001021
-0.0000669 -0.0000002 -0.0000895 0.0000562 -0.0000776 0.0001102 -0.0000580 0.0003187 -0.0002501 -0.0000178 -0.0000856 0.0000256 -0.0001076 0.0001461 -0.0002628 0.0000094 -0.0000231 -0.0000161 -0.0001512 -0.0000390 -0.0000215 -0.0000782 -0.0000630 -0.0001592 0.0000785 0.0001308 -0.0000665 -0.0001880 0.0000338 0.0001789 -0.0000721 -0.0001612 -0.0000496 0.0000359 0.0000181 0.0000167 -0.0001155 0.0001675 -0.0000012 0.0000538 -0.0000501 0.0001331 0.0000676 0.0002375 0.0000006 0.0001239 -0.0000083 0.0002857 -0.0001903 -0.0006014 -0.0001105 0.0003771 -0.0001092 0.0001015 -0.0000106 0.0003451 -0.0000566 0.0000798 0.0042775 -0.0023004 0.0184611 -0.0322367 0.0048261 -0.0027852 -0.0001743 0.0004560 0.0016533 0.0039366 0.0000745 0.0001146 0.0000332 -0.0002086 0.0000188 -0.0000708 0.0000369 -0.0000730 -0.0000934 0.0000464 0.0000387 -0.0005417 0.0000333 -0.0005284 -0.0000312 -0.0005603 0.0000495 -0.0007039 0.0000533 -0.0001937 0.0000352 -0.0004756 0.0000451 -0.0002054 0.0000296 -0.0005196 -0.0000430 -0.0005885 0.0000646 -0.0005541 0.0000583 0.0003314 0.0000674 -0.0005328 0.0000213 -0.0002369 -0.0000083 -0.0001975 0.0000436 -0.0003229 0.0000070 -0.0002313 -0.0000214 -0.0002182 -0.0000840 0.0000438 -0.0000040 -0.0001148 0.0001626 -0.0004501 -0.0000113 -0.0002949 0.0000361 0.0001590 -0.0000288 -0.0002627 0.0000662 -0.0003389 0.0000366 -0.0001808 0.0000641 -0.0006508 -0.0000201 -0.0003042 0.0000092 -0.0002506 0.0000517 -0.0000762 0.0000361 -0.0000434 0.0000325 0.0000128
-0.0000652 0.0002063 -0.0000895 0.0000807 -0.0000791 0.0001781 -0.0000460 0.0003780 -0.0002535 0.0001676 -0.0000891 0.0000585 -0.0001275 0.0001692 -0.0002294 0.0000472 -0.0000314 0.0000690 -0.0001464 0.0001115 -0.0000185 0.0000220 -0.0000806 0.0000369 0.0000655 0.0001210 -0.0000966 -0.0001192 0.0000316 0.0001942 -0.0000724 -0.0000554 -0.0000548 0.0000885 0.0000166 0.0000757 -0.0001104 0.0002624 -0.0000128 0.0001135 -0.0000523 0.0001935 0.0000621 0.0002651 -0.0000081 0.0002224 0.0000022 0.0003863 -0.0004051 -0.0003800 -0.0000283 0.0004694 -0.0003293 0.0004384 -0.0000177 0.0004280 -0.0000393 0.0001402 0.0039580 -0.0023715 0.0003883 0.0023896 0.0052125 -0.0021656 -0.0001158 0.0003949 0.0058040 0.0017279 0.0000512 0.0000674 0.0000193 0.0000803 0.0000271 0.0000682 0.0000360 0.0001980 -0.0000805 0.0001144 0.0000347 0.0000156 0.0000464 -0.0001688 -0.0000369 -0.0003881 0.0000389 -0.0003297 0.0000471 0.0000451 0.0000297 -0.0002581 0.0000413 -0.0000234 0.0000208 -0.0003043 -0.0000433 -0.0005474 0.0000585 -0.0003432 0.0000322 0.0001998 0.0000496 -0.0002252 0.0000106 -0.0000089 -0.0000111 -0.0001046 0.0000462 -0.0000597 0.0000160 0.0000681 -0.0000120 -0.0000020 -0.0000850 0.0001453 -0.0000021 -0.0000257 0.0001596 -0.0003588 -0.0000140 -0.0002437 0.0000335 0.0002315 -0.0000067 -0.0001821 0.0000499 -0.0002706 0.0000287 -0.0001061 0.0000738 -0.0006271 -0.0000207 -0.0002848 0.0000116 -0.0002639 0.0000380 -0.0001273 0.0000258 -0.0000800 0.0000171 -0.0000468
-0.0000724 0.0000949 -0.0000894 0.0000569 -0.0000775 0.0000836 -0.0000451 0.0002761 -0.0002053 -0.0000162 -0.0000908 -0.0000071 -0.0000871 0.0000325 -0.0002099 -0.0000847 -0.0000494 0.0000131 -0.0001347 -0.0000107 -0.0000467 -0.0000306 -0.0001509 0.0000352 0.0000728 0.0000896 -0.0000981 -0.0002426 0.0000328 0.0001563 -0.0000733 -0.0001854 -0.0000606 0.0000062 0.0000294 -0.0000504 -0.0001045 0.0001529 -0.0000162 0.0000352 -0.0000468 0.0001184 0.0000713 0.0002041 0.0000019 0.0000872 -0.0000449 0.0003104 -0.0004553 -0.0007299 0.0000700 0.0002458 -0.0003413 0.0003220 0.0000580 0.0001810 -0.0000185 0.0000277 0.0069765 -0.0141213 -0.0039397 0.0064039 0.0100490 -0.0087863 -0.0000511 0.0002430 0.0005821 0.0028521 0.0000848 -0.0002211 0.0000285 -0.0000943 0.0000313 -0.0000215 0.0000472 -0.0000219 -0.0000718 0.0000060 0.0000324 -0.0001736 0.0000364 -0.0002504 -0.0000219 -0.0005137 0.0000356 -0.0004239 0.0000530 -0.0000172 0.0000359 -0.0002961 0.0000385 -0.0000476 0.0000242 -0.0002986 -0.0000292 -0.0006233 0.0000752 -0.0004294 0.0000489 0.0002519 0.0000551 -0.0002876 0.0000184 -0.0000579 0.0000118 -0.0001994 0.0000465 -0.0001433 0.0000253 0.0000061 0.0000036 -0.0000327 -0.0000806 -0.0000246 0.0000092 -0.0001262 0.0001728 -0.0004768 -0.0000141 -0.0003190 0.0000641 0.0001068 0.0000072 -0.0002613 0.0000363 -0.0003232 0.0000321 -0.0001966 0.0000744 -0.0007193 -0.0000185 -0.0003581 0.0000204 -0.0003642 0.0000462 -0.0002551 0.0000455 -0.0002215 0.0000317 -0.0002291
-0.0000748 -0.0001338 -0.0000796 -0.0000555 -0.0000664 -0.0001130 -0.0000480 0.0000067 -0.0002111 -0.0002984 -0.0000904 -0.0001929 -0.0000779 -0.0002033 -0.0002444 -0.0003452 -0.0000527 -0.0001823 -0.0001347 -0.0002913 -0.0000578 -0.0002435 -0.0001770 -0.0001532 0.0000861 -0.0000018 -0.0000708 -0.0005654 0.0000294 0.0000565 -0.0000503 -0.0004803 -0.0000409 -0.0002273 0.0000553 -0.0003573 -0.0000664 -0.0000790 -0.0000018 -0.0001806 -0.0000379 -0.0000450 0.0000717 0.0000133 0.0000232 -0.0001791 0.0000495 0.0000136 -0.0005494 -0.0007962 0.0001057 -0.0000521 -0.0001107 -0.0001559 0.0001593 -0.0000748 -0.0000496 -0.0001198 0.0082428 -0.0172719 0.0065977 -0.0220076 0.0056183 -0.0072245 -0.0001244 0.0001897 0.0057603 -0.0035314 0.0000167 -0.0001921 0.0000408 -0.0003484 0.0000438 -0.0001922 0.0000590 -0.0003179 -0.0000585 -0.0002108 0.0000480 -0.0005765 0.0000412 -0.0005165 0.0000020 -0.0007968 0.0000553 -0.0007257 0.0000612 -0.0001820 0.0000415 -0.0004548 0.0000421 -0.0001666 0.0000218 -0.0003899 -0.0000176 -0.0008106 0.0000912 -0.0006510 0.0000486 0.0002143 0.0000695 -0.0005145 0.0000315 -0.0002152 0.0000112 -0.0003383 0.0000481 -0.0003519 0.0000277 -0.0001790 0.0000108 -0.0001623 -0.0000658 -0.0002817 0.0000172 -0.0002815 0.0001811 -0.0006257 -0.0000254 -0.0003956 0.0000576 -0.0000002 -0.0000045 -0.0003005 0.0000361 -0.0003337 0.0000445 -0.0001709 0.0000778 -0.0007323 0.0000201 -0.0003788 0.0000196 -0.0002949 0.0000611 -0.0000808 0.0000525 -0.0001411 0.0000483 -0.0000892
-0.0000681 0.0000197 -0.0000807 -0.0000952 -0.0000679 -0.0001144 -0.0000462 -0.0000158 -0.0002091 -0.0001752 -0.0000837 -0.0002434 -0.0000789 -0.0002798 -0.0002407 -0.0003819 -0.0000199 -0.0002099 -0.0001352 -0.0001958 -0.0000250 -0.0002207 -0.0001450 -0.0000827 0.0000757 -0.0000575 -0.0000786 -0.0006374 0.0000253 0.0000465 -0.0000464 -0.0004301 -0.0000371 -0.0002700 0.0000566 -0.0003683 -0.0000438 -0.0000347 -0.0000034 -0.0002021 -0.0000365 -0.0000278 0.0000609 -0.0000124 0.0000185 -0.0001347 0.0000439 0.0000849 -0.0003351 -0.0005697 0.0000826 0.0000625 -0.0002927 0.0000794 -0.0001418 0.0001980 0.0000103 -0.0001166 0.0016425 -0.0067065 -0.0185675 0.0087582 0.0020267 0.0012685 -0.0001363 0.0002679 0.0091962 -0.0129553 0.0000331 -0.0000230 0.0000257 0.0000404 0.0000582 0.0000213 0.0000605 0.0000640 -0.0000457 -0.0000792 0.0000491 0.0000569 0.0000485 -0.0000739 -0.0000025 -0.0005213 0.0000426 -0.0002596 0.0000582 0.0000990 0.0000340 -0.0001937 0.0000404 0.0000477 0.0000034 -0.0001161 -0.0000152 -0.0006780 0.0000814 -0.0003443 0.0000306 0.0001711 0.0000477 -0.0001428 0.0000222 0.0000529 0.0000017 -0.0001631 0.0000547 -0.0000202 0.0000369 0.0001524 0.0000211 0.0000703 -0.0000612 -0.0001706 0.0000249 -0.0001531 0.0001747 -0.0005435 -0.0000201 -0.0003655 0.0000278 0.0000281 -0.0000176 -0.0002750 0.0000509 -0.0003331 0.0000509 -0.0001952 0.0000771 -0.0007488 0.0000266 -0.0003393 0.0000156 -0.0003340 0.0000636 -0.0001228 0.0000559 -0.0001887 0.0000586 -0.0001733
-0.0000693 0.0002465 -0.0000902 -0.0000384 -0.0000713 -0.0000267 -0.0000319 0.0001155 -0.0002030 -0.0000078 -0.0000878 -0.0001559 -0.0000586 -0.0002174 -0.0002052 -0.0002985 -0.0000060 -0.0001380 -0.0001461 -0.0000051 -0.0000299 -0.0000888 -0.0000567 0.0000125 0.0000665 -0.0000802 -0.0000930 -0.0005830 0.0000219 0.0000416 -0.0000455 -0.0004121 -0.0000497 -0.0002835 0.0000522 -0.0003192 -0.0000417 -0.0000432 -0.0000113 -0.0002249 -0.0000382 -0.0000500 0.0000597 -0.0000528 0.0000254 -0.0001974 -0.0000565 0.0000985 -0.0001317 -0.0008021 0.0000711 -0.0000730 -0.0002176 -0.0000429 -0.0004172 0.0003012 0.0000395 -0.0001925 0.0045775 -0.0018999 -0.0152578 -0.0038979 0.0037245 0.0015120 -0.0000881 0.0000901 0.0061961 -0.0200657 0.0000416 -0.0002079 0.0000235 -0.0000786 0.0000641 -0.0000584 0.0000641 -0.0000918 -0.0000413 -0.0001393 0.0000559 -0.0001126 0.0000574 -0.0001617 0.0000137 -0.0005713 0.0000503 -0.0003480 0.0000680 0.0000403 0.0000362 -0.0002204 0.0000423 0.0000220 0.0000053 -0.0000890 0.0000032 -0.0006750 0.0000973 -0.0004015 0.0000471 0.0002378 0.0000578 -0.0002244 0.0000303 -0.0000135 0.0000257 -0.0002354 0.0000638 -0.0001132 0.0000462 0.0000659 0.0000295 0.0000134 -0.0000532 -0.0002775 0.0000298 -0.0002258 0.0001793 -0.0006259 -0.0000216 -0.0004576 0.0000495 -0.0000932 0.0000111 -0.0003834 0.0000559 -0.0004256 0.0000620 -0.0003342 0.0000933 -0.0008457 0.0000126 -0.0003967 0.0000206 -0.0004613 0.0000794 -0.0002952 0.0000587 -0.0003498 0.0000605 -0.0003685
-0.0000690 0.0000432 -0.0000777 -0.0001302 -0.0000683 -0.0001879 -0.0000249 -0.0000817 -0.0001853 -0.0002359 -0.0000836 -0.0002869 -0.0000173 -0.0004177 -0.0002257 -0.0005129 -0.0000349 -0.0002458 -0.0001313 -0.0002144 -0.0000239 -0.0002283 0.0000354 -0.0002001 0.0000648 -0.0001858 -0.0000752 -0.0007849 0.0000175 -0.0000597 -0.0000381 -0.0006308 -0.0000438 -0.0004700 0.0000697 -0.0005292 -0.0000023 -0.0002434 -0.0000041 -0.0003931 -0.0000326 -0.0001738 0.0000579 -0.0002008 0.0000387 -0.0003926 -0.0000514 -0.0000862 -0.0002849 -0.0008254 0.0000451 -0.0003104 -0.0000339 -0.0004567 -0.0002708 -0.0000340 -0.0000161 -0.0003645 -0.0017388 0.0087651 -0.0084973 -0.0199971 -0.0005567 0.0069422 -0.0001179 -0.0001787 -0.0082907 -0.0091977 0.0000636 -0.0005912 0.0000317 -0.0003546 0.0000714 -0.0002525 0.0000738 -0.0003866 -0.0000396 -0.0003042 0.0000672 -0.0005510 0.0000666 -0.0004717 0.0000368 -0.0008061 0.0000696 -0.0006840 0.0000804 -0.0001475 0.0000442 -0.0004034 0.0000462 -0.0001100 0.0000025 -0.0001949 0.0000164 -0.0007873 0.0001127 -0.0006296 0.0000368 0.0001560 0.0000720 -0.0004707 0.0000428 -0.0001958 0.0000375 -0.0003734 0.0000688 -0.0003643 0.0000475 -0.0001491 0.0000240 -0.0001400 -0.0000396 -0.0003954 0.0000287 -0.0003345 0.0001735 -0.0006861 -0.0000382 -0.0004963 0.0000662 -0.0001460 0.0000029 -0.0003064 0.0000464 -0.0003537 0.0000533 -0.0001644 0.0000991 -0.0007552 0.0000264 -0.0004093 0.0000150 -0.0003361 0.0000605 -0.0000831 0.0000511 -0.0002488 0.0000450 -0.0001624
-0.0000584 -0.0002385 -0.0000628 -0.0002945 -0.0000633 -0.0004201 -0.0000122 -0.0003842 -0.0001584 -0.0004790 -0.0000695 -0.0005109 0.0000064 -0.0007160 -0.0001930 -0.0008420 -0.0000144 -0.0004504 -0.0001079 -0.0004613 -0.0000336 -0.0003900 0.0000595 -0.0003706 0.0000640 -0.0002889 -0.0000586 -0.0010452 0.0000180 -0.0001178 -0.0000200 -0.0007519 -0.0000321 -0.0006394 0.0000810 -0.0006781 0.0000417 -0.0003205 -0.0000034 -0.0005083 -0.0000233 -0.0002181 0.0000664 -0.0002224 0.0000351 -0.0004101 -0.0000271 -0.0001136 -0.0003100 -0.0008142 -0.0000168 -0.0001862 -0.0001430 -0.0003290 0.0000512 -0.0002860 -0.0000184 -0.0003886 0.0015947 0.0122774 0.0043550 -0.0215578 -0.0029026 0.0041129 -0.0001553 -0.0000932 -0.0100632 -0.0010726 0.0001171 -0.0005419 0.0000260 0.0000554 0.0000845 0.0000047 0.0000731 0.0000540 -0.0000290 -0.0000657 0.0000461 0.0001595 0.0000559 0.0000125 0.0000217 -0.0004285 0.0000442 -0.0001512 0.0000762 0.0001491 0.0000397 -0.0001225 0.0000374 0.0001269 -0.0000139 0.0000823 0.0000155 -0.0005668 0.0001021 -0.0002686 0.0000337 0.0001710 0.0000442 -0.0000604 0.0000239 0.0000984 0.0000176 -0.0001405 0.0000654 -0.0000253 0.0000538 0.0001574 0.0000265 0.0000507 -0.0000327 -0.0002632 0.0000386 -0.0002003 0.0001643 -0.0006443 -0.0000513 -0.0004805 0.0000679 -0.0001837 -0.0000123 -0.0002742 0.0000618 -0.0003693 0.0000526 -0.0001885 0.0000873 -0.0007074 0.0000327 -0.0004303 0.0000159 -0.0003477 0.0000570 -0.0001198 0.0000516 -0.0002872 0.0000612 -0.0002213
-0.0000523 -0.0000588 -0.0000635 -0.0002789 -0.0000579 -0.0003493 0.0000030 -0.0003035 -0.0001733 -0.0002562 -0.0000726 -0.0004631 -0.0000340 -0.0006116 -0.0001804 -0.0007644 -0.0000097 -0.0003838 -0.0001073 -0.0002990 -0.0000502 -0.0002690 0.0000115 -0.0001829 0.0000640 -0.0002503 -0.0000605 -0.0009690 0.0000241 -0.0000365 -0.0000179 -0.0005914 -0.0000427 -0.0005938 0.0000715 -0.0005465 0.0000406 -0.0002060 -0.0000073 -0.0004560 -0.0000285 -0.0001378 0.0000727 -0.0001381 0.0000346 -0.0002795 -0.0000037 -0.0000796 -0.0003843 -0.0007807 0.0000196 -0.0001908 -0.0001214 -0.0002871 0.0000434 -0.0003062 -0.0000176 -0.0003380 0.0046304 0.0069302 -0.0015955 0.0018266 0.0012502 -0.0019261 -0.0001381 -0.0002187 -0.0113462 0.0030175 0.0000759 -0.0005935 0.0000232 -0.0000499 0.0000768 -0.0000473 0.0000687 -0.0000269 -0.0000266 -0.0000539 0.0000504 -0.0000170 0.0000635 -0.0001064 0.0000346 -0.0004496 0.0000458 -0.0002451 0.0000806 0.0000816 0.0000479 -0.0001673 0.0000467 0.0000795 -0.0000023 0.0000695 0.0000270 -0.0004928 0.0001164 -0.0002950 0.0000553 0.0002516 0.0000574 -0.0001473 0.0000245 0.0000304 0.0000270 -0.0001644 0.0000571 -0.0001051 0.0000562 0.0000628 0.0000256 -0.0000262 -0.0000227 -0.0002955 0.0000431 -0.0002356 0.0001713 -0.0007240 -0.0000594 -0.0005336 0.0000725 -0.0002946 0.0000176 -0.0003954 0.0000686 -0.0004633 0.0000637 -0.0003306 0.0000815 -0.0007444 0.0000510 -0.0005360 0.0000210 -0.0004562 0.0000733 -0.0002889 0.0000449 -0.0004219 0.0000476 -0.0003767
-0.0000542 -0.0001810 -0.0000663 -0.0003185 -0.0000468 -0.0004457 0.0000082 -0.0003706 -0.0001615 -0.0003766 -0.0000641 -0.0005252 -0.0000355 -0.0006377 -0.0002028 -0.0008410 -0.0000282 -0.0004274 -0.0000845 -0.0004218 -0.0000155 -0.0003590 -0.0000346 -0.0002435 0.0000705 -0.0002761 -0.0000361 -0.0010683 0.0000249 -0.0000630 -0.0000204 -0.0006888 -0.0000504 -0.0006961 0.0000744 -0.0006249 0.0000571 -0.0003265 0.0000043 -0.0005521 -0.0000303 -0.0001928 0.0000810 -0.0001761 0.0000463 -0.0003658 -0.0000180 -0.0001496 -0.0004785 -0.0007783 0.0000123 -0.0003533 0.0000476 -0.0006132 -0.0000536 -0.0003681 -0.0000213 -0.0004456 -0.0030142 0.0058116 -0.0135357 0.0210034 0.0109261 -0.0201854 -0.0001035 -0.0004261 0.0058174 0.0033268 0.0000159 -0.0007702 0.0000243 -0.0003204 0.0000636 -0.0002353 0.0000735 -0.0002751 -0.0000280 -0.0001766 0.0000624 -0.0004735 0.0000765 -0.0004527 0.0000506 -0.0006543 0.0000661 -0.0006078 0.0000847 -0.0001140 0.0000657 -0.0003770 0.0000568 -0.0000790 0.0000125 -0.0000910 0.0000406 -0.0005380 0.0001299 -0.0004978 0.0000635 0.0002591 0.0000763 -0.0003916 0.0000428 -0.0001663 0.0000478 -0.0002846 0.0000592 -0.0003362 0.0000530 -0.0001291 0.0000155 -0.0001577 -0.0000213 -0.0002807 0.0000362 -0.0002618 0.0001621 -0.0006997 -0.0000566 -0.0004928 0.0000557 -0.0002401 0.0000018 -0.0002942 0.0000325 -0.0003178 0.0000673 -0.0001145 0.0000770 -0.0006021 0.0000466 -0.0004634 0.0000135 -0.0003057 0.0000464 -0.0000499 0.0000367 -0.0002853 0.0000378 -0.0001362
-0.0000532 -0.0004136 -0.0000638 -0.0004318 -0.0000363 -0.0006233 0.0000161 -0.0005565 -0.0001277 -0.0006367 -0.0000488 -0.0006855 0.0000026 -0.0008221 -0.0001348 -0.0010882 -0.0000122 -0.0006192 -0.0000855 -0.0006275 0.0000033 -0.0005391 0.0000115 -0.0004460 0.0000724 -0.0003666 -0.0000119 -0.0012763 0.0000207 -0.0001514 0.0000103 -0.0009379 -0.0000227 -0.0009273 0.0000907 -0.0008032 0.0000942 -0.0005059 0.0000050 -0.0007256 -0.0000277 -0.0003061 0.0000857 -0.0002529 0.0000526 -0.0005141 -0.0000466 -0.0002189 -0.0002918 -0.0009143 -0.0000102 -0.0004190 0.0000454 -0.0006777 0.0001883 -0.0005869 0.0000841 -0.0006037 -0.0058530 0.0118469 -0.0013629 0.0059552 0.0119409 -0.0388488 -0.0001159 -0.0003521 0.0063973 0.0011832 0.0000623 -0.0007192 0.0000174 0.0001273 0.0000728 0.0000358 0.0000756 0.0002059 -0.0000181 0.0000998 0.0000407 0.0002827 0.0000619 0.0000573 0.0000348 -0.0002191 0.0000495 -0.0000585 0.0000774 0.0001918 0.0000551 -0.0000783 0.0000411 0.0001691 0.0000097 0.0001593 0.0000458 -0.0002731 0.0001158 -0.0001058 0.0000753 0.0003180 0.0000531 0.0000174 0.0000264 0.0001283 0.0000312 -0.0000258 0.0000580 0.0000224 0.0000576 0.0001700 0.0000202 0.0000402 -0.0000337 -0.0000728 0.0000397 -0.0000972 0.0001500 -0.0006203 -0.0000492 -0.0004478 0.0000556 -0.0002342 -0.0000003 -0.0002853 0.0000281 -0.0002938 0.0000539 -0.0001192 0.0000865 -0.0005615 0.0000349 -0.0003980 0.0000232 -0.0003019 0.0000286 -0.0000778 0.0000434 -0.0002894 0.0000594 -0.0001836
-0.0000505 -0.0002354 -0.0000608 -0.0004197 -0.0000396 -0.0005239 0.0000267 -0.0004382 -0.0001012 -0.0004520 -0.0000417 -0.0006428 0.0000198 -0.0007696 -0.0001501 -0.0009501 -0.0000126 -0.0005527 -0.0001063 -0.0004382 -0.0000065 -0.0004255 0.0000626 -0.0003348 0.0000615 -0.0003422 -0.0000276 -0.0011178 0.0000187 -0.0001021 0.0000280 -0.0008038 -0.0000242 -0.0009019 0.0000934 -0.0006700 0.0001050 -0.0003888 -0.0000042 -0.0006739 -0.0000280 -0.0002354 0.0000829 -0.0001625 0.0000445 -0.0003733 0.0000032 -0.0001497 -0.0003385 -0.0007889 0.0000570 -0.0003226 0.0000857 -0.0004928 0.0002829 -0.0005229 0.0001079 -0.0005071 -0.0056019 0.0059253 -0.0002431 0.0056838 -0.0217811 0.0138745 -0.0001192 -0.0000939 -0.0066466 -0.0091874 0.0000540 -0.0004478 0.0000143 0.0000465 0.0000703 -0.0000051 0.0000713 0.0001592 -0.0000218 0.0001514 0.0000436 0.0001263 0.0000582 -0.0000277 0.0000410 -0.0001787 0.0000577 -0.0001525 0.0000812 0.0001330 0.0000495 -0.0001064 0.0000395 0.0001313 0.0000051 0.0001371 0.0000519 -0.0001337 0.0001298 -0.0001145 0.0000764 0.0003051 0.0000674 -0.0000674 0.0000257 0.0000729 0.0000309 -0.0000040 0.0000544 -0.0000377 0.0000533 0.0000823 0.0000207 -0.0000027 -0.0000247 -0.0000345 0.0000399 -0.0000964 0.0001556 -0.0006560 -0.0000475 -0.0004711 0.0000721 -0.0003271 0.0000133 -0.0003689 0.0000619 -0.0003950 0.0000684 -0.0002589 0.0000877 -0.0005731 0.0000228 -0.0004193 0.0000343 -0.0003836 0.0000529 -0.0002504 0.0000494 -0.0003902 0.0000697 -0.0003426
-0.0000506 -0.0000524 -0.0000644 -0.0003255 -0.0000315 -0.0004098 0.0000324 -0.0002693 -0.0001045 -0.0003710 -0.0000373 -0.0005447 0.0000334 -0.0006033 -0.0001810 -0.0007774 0.0000114 -0.0004795 -0.0000915 -0.0003711 -0.0000156 -0.0003505 0.0000540 -0.0002995 0.0000676 -0.0002779 -0.0000189 -0.0010014 0.0000189 -0.0000641 0.0000233 -0.0007686 -0.0000400 -0.0008652 0.0000837 -0.0005720 0.0000860 -0.0003809 -0.0000050 -0.0006550 -0.0000286 -0.0002342 0.0000832 -0.0001286 0.0000464 -0.0003676 0.0000673 -0.0002147 -0.0006484 -0.0006476 0.0000455 -0.0003796 0.0000662 -0.0004948 0.0002002 -0.0004347 -0.0000694 -0.0003619 0.0045471 -0.0032308 -0.0007366 0.0031553 -0.0165012 0.0101227 -0.0000373 -0.0002054 0.0008243 0.0013661 0.0000333 -0.0004911 0.0000197 -0.0002119 0.0000675 -0.0001788 0.0000690 -0.0000639 -0.0000279 0.0000768 0.0000508 -0.0003261 0.0000680 -0.0003576 0.0000518 -0.0003331 0.0000785 -0.0005173 0.0000835 -0.0000586 0.0000570 -0.0002972 0.0000433 -0.0000283 0.0000056 -0.0000237 0.0000578 -0.0001057 0.0001442 -0.0003059 0.0000689 0.0002768 0.0000883 -0.0003147 0.0000351 -0.0001086 0.0000280 -0.0000670 0.0000557 -0.0002387 0.0000448 -0.0000966 0.0000095 -0.0001061 -0.0000146 0.0000475 0.0000307 -0.0000938 0.0001621 -0.0005955 -0.0000505 -0.0003830 0.0000538 -0.0002220 0.0000062 -0.0002393 0.0000536 -0.0002515 0.0000849 -0.0000279 0.0000735 -0.0003637 0.0000306 -0.0003185 0.0000158 -0.0001940 0.0000385 -0.0000039 0.0000372 -0.0002084 0.0000605 -0.0000831
-0.0000470 -0.0001854 -0.0000660 -0.0003540 -0.0000192 -0.0004678 0.0000376 -0.0003058 -0.0000810 -0.0005231 -0.0000478 -0.0005665 0.0000400 -0.0005866 -0.0001540 -0.0008421 0.0000299 -0.0005673 -0.0000683 -0.0005028 -0.0000140 -0.0004323 0.0000683 -0.0004326 0.0000787 -0.0002577 0.0000077 -0.0010468 0.0000199 -0.0000827 0.0000360 -0.0008899 -0.0000362 -0.0009373 0.0000848 -0.0006105 0.0000943 -0.0004892 0.0000018 -0.0007260 -0.0000256 -0.0002945 0.0000743 -0.0001591 0.0000566 -0.0004474 0.0000726 -0.0003376 -0.0005982 -0.0008581 -0.0000095 -0.0004709 -0.0001428 -0.0005218 0.0002578 -0.0005198 -0.0001099 -0.0004329 0.0011878 0.0023618 0.0105804 -0.0211275 -0.0063207 -0.0028536 -0.0000467 -0.0003964 -0.0049706 0.0124765 0.0000301 -0.0006737 0.0000163 0.0002494 0.0000747 0.0001188 0.0000653 0.0004379 -0.0000139 0.0003781 0.0000315 0.0004442 0.0000649 0.0001622 0.0000358 0.0001127 0.0000529 0.0000569 0.0000777 0.0002496 0.0000503 0.0000044 0.0000380 0.0002093 -0.0000135 0.0002180 0.0000578 0.0001856 0.0001304 0.0000979 0.0000808 0.0003616 0.0000641 0.0001094 0.0000261 0.0001874 0.0000096 0.0002061 0.0000480 0.0001567 0.0000485 0.0002515 0.0000123 0.0001240 -0.0000138 0.0003091 0.0000354 0.0000905 0.0001506 -0.0004520 -0.0000739 -0.0002664 0.0000334 -0.0001361 0.0000127 -0.0001924 0.0000353 -0.0001745 0.0000793 -0.0000042 0.0000605 -0.0002700 0.0000420 -0.0002631 -0.0000058 -0.0001496 0.0000300 -0.0000169 0.0000389 -0.0001598 0.0000323 -0.0000771
-0.0000424 -0.0002836 -0.0000626 -0.0004293 -0.0000159 -0.0004888 0.0000412 -0.0003047 -0.0000605 -0.0004754 -0.0000588 -0.0005875 0.0000300 -0.0005911 -0.0001533 -0.0008227 0.0000162 -0.0005624 -0.0000854 -0.0004475 0.0000131 -0.0004334 0.0000134 -0.0003495 0.0000770 -0.0002244 0.0000086 -0.0009600 0.0000258 -0.0000368 0.0000494 -0.0007963 -0.0000184 -0.0009288 0.0000911 -0.0005298 0.0001022 -0.0004028 0.0000155 -0.0007016 -0.0000255 -0.0002323 0.0000710 -0.0000597 0.0000557 -0.0003144 0.0000622 -0.0002468 -0.0003212 -0.0010939 -0.0000225 -0.0002366 -0.0002701 -0.0002685 0.0000834 -0.0002783 -0.0000774 -0.0003837 0.0070946 -0.0156488 0.0168408 -0.0264697 -0.0086928 0.0088576 -0.0001118 -0.0001583 -0.0299915 0.0256923 -0.0000644 -0.0004109 0.0000167 0.0001746 0.0000720 0.0001047 0.0000675 0.0003966 -0.0000114 0.0004567 0.0000346 0.0003015 0.0000592 0.0000864 0.0000358 0.0001633 0.0000590 -0.0000283 0.0000781 0.0002081 0.0000533 -0.0000256 0.0000394 0.0001817 -0.0000163 0.0001805 0.0000659 0.0003369 0.0001338 0.0001033 0.0001019 0.0004474 0.0000709 0.0000513 0.0000294 0.0001435 0.0000090 0.0002572 0.0000447 0.0001146 0.0000433 0.0001849 0.0000112 0.0000875 0.0000018 0.0003794 0.0000379 0.0001125 0.0001409 -0.0004077 -0.0000586 -0.0002491 0.0000419 -0.0001832 0.0000164 -0.0002400 0.0000223 -0.0001871 0.0000741 -0.0001075 0.0000624 -0.0002769 0.0000412 -0.0002846 0.0000048 -0.0002154 0.0000427 -0.0001699 0.0000553 -0.0002260 0.0000394 -0.0002234
-0.0000375 -0.0000737 -0.0000586 -0.0003583 -0.0000163 -0.0003253 0.0000475 -0.0000876 -0.0000772 -0.0002419 -0.0000605 -0.0004517 0.0000249 -0.0003943 -0.0001596 -0.0005938 0.0000338 -0.0004315 -0.0000957 -0.0002185 0.0000300 -0.0002999 -0.0000472 -0.0001413 0.0000773 -0.0001490 0.0000167 -0.0007637 0.0000316 0.0000374 0.0000433 -0.0006650 -0.0000038 -0.0008466 0.0000853 -0.0003693 0.0000784 -0.0003085 0.0000186 -0.0006384 -0.0000231 -0.0001929 0.0000722 0.0000061 0.0000637 -0.0002679 0.0000333 -0.0001959 -0.0004839 -0.0010088 0.0000264 -0.0003276 -0.0001140 -0.0003695 0.0000641 -0.0003159 -0.0000353 -0.0004177 0.0100625 -0.0210677 0.0129764 -0.0150961 -0.0127799 0.0092858 -0.0000537 -0.0002370 -0.0028757 0.0029831 -0.0000298 -0.0004835 0.0000228 -0.0000585 0.0000684 -0.0000424 0.0000724 0.0001916 -0.0000187 0.0004123 0.0000481 -0.0001499 0.0000633 -0.0002417 0.0000436 0.0000287 0.0000730 -0.0003841 0.0000839 0.0000306 0.0000640 -0.0002118 0.0000501 0.0000228 0.0000066 -0.0000043 0.0000734 0.0003866 0.0001413 -0.0000838 0.0001053 0.0004662 0.0000890 -0.0001919 0.0000320 -0.0000257 0.0000122 0.0001981 0.0000436 -0.0000887 0.0000344 -0.0000200 0.0000012 -0.0000414 0.0000033 0.0004656 0.0000299 0.0001107 0.0001544 -0.0003271 -0.0000388 -0.0001626 0.0000337 -0.0000801 0.0000310 -0.0001113 0.0000199 -0.0000227 0.0000664 0.0001387 0.0000634 -0.0000764 0.0000538 -0.0002006 0.0000041 -0.0000248 0.0000138 0.0000857 0.0000607 -0.0000450 0.0000307 0.0000452
-0.0000374 -0.0001566 -0.0000558 -0.0003657 -0.0000122 -0.0003429 0.0000526 -0.0000744 -0.0000573 -0.0003284 -0.0000495 -0.0004532 0.0000286 -0.0003405 -0.0001464 -0.0005824 0.0000265 -0.0004390 -0.0000993 -0.0002507 0.0000370 -0.0003380 0.0000074 -0.0002259 0.0000882 -0.0001061 0.0000244 -0.0007175 0.0000322 0.0000556 0.0000515 -0.0006919 -0.0000007 -0.0008530 0.0000837 -0.0003563 0.0000804 -0.0003409 0.0000149 -0.0006385 -0.0000176 -0.0002155 0.0000618 -0.0000076 0.0000719 -0.0003064 0.0000317 -0.0002493 -0.0005252 -0.0010386 0.0000824 -0.0005330 0.0001750 -0.0007545 0.0001800 -0.0005168 0.0000570 -0.0005555 0.0104541 -0.0115934 -0.0076103 0.0065442 -0.0200397 0.0123113 -0.0000196 -0.0004162 0.0012765 -0.0013819 0.0000167 -0.0006659 0.0000163 0.0004234 0.0000693 0.0002698 0.0000703 0.0006931 -0.0000103 0.0007118 0.0000273 0.0006218 0.0000587 0.0002732 0.0000257 0.0004684 0.0000522 0.0001802 0.0000748 0.0003376 0.0000560 0.0000832 0.0000428 0.0002487 -0.0000114 0.0002256 0.0000674 0.0006693 0.0001299 0.0003026 0.0001165 0.0005731 0.0000643 0.0002113 0.0000107 0.0002726 -0.0000065 0.0004354 0.0000343 0.0002702 0.0000423 0.0002821 0.0000082 0.0001481 -0.0000165 0.0006944 0.0000345 0.0002579 0.0001485 -0.0001848 -0.0000490 -0.0000463 0.0000269 -0.0000091 0.0000215 -0.0000407 0.0000443 0.0000233 0.0000777 0.0001378 0.0000513 0.0000261 0.0000447 -0.0001418 -0.0000047 0.0000296 0.0000341 0.0000529 0.0000613 0.0000080 0.0000169 0.0000694
-0.0000334 -0.0003213 -0.0000469 -0.0004362 0.0000021 -0.0004297 0.0000610 -0.0001573 -0.0000558 -0.0004269 -0.0000386 -0.0005288 0.0000458 -0.0003943 -0.0001057 -0.0006722 0.0000139 -0.0005188 -0.0000925 -0.0003658 0.0000364 -0.0004281 0.0001234 -0.0004033 0.0000927 -0.0000920 0.0000239 -0.0007190 0.0000364 0.0000721 0.0000602 -0.0006643 -0.0000015 -0.0008485 0.0000695 -0.0003302 0.0000941 -0.0003170 0.0000236 -0.0006113 -0.0000186 -0.0001670 0.0000662 0.0000895 0.0000602 -0.0001903 0.0000817 -0.0002094 -0.0005423 -0.0009451 0.0000370 -0.0002595 0.0001413 -0.0005925 0.0003481 -0.0005024 0.0000131 -0.0004342 0.0114651 -0.0061319 -0.0064891 0.0107802 0.0023533 -0.0004245 -0.0000092 -0.0002467 -0.0073959 0.0038632 -0.0000155 -0.0003985 0.0000169 0.0003714 0.0000638 0.0002721 0.0000745 0.0006559 -0.0000092 0.0007799 0.0000220 0.0005243 0.0000616 0.0002116 0.0000281 0.0005095 0.0000605 0.0001053 0.0000710 0.0003165 0.0000566 0.0000627 0.0000401 0.0002364 -0.0000180 0.0002030 0.0000695 0.0007999 0.0001348 0.0003098 0.0001347 0.0006714 0.0000731 0.0001663 0.0000118 0.0002490 -0.0000044 0.0004777 0.0000376 0.0002323 0.0000417 0.0002406 0.0000086 0.0001277 -0.0000138 0.0007520 0.0000347 0.0002791 0.0001374 -0.0001189 -0.0000484 0.0000131 0.0000397 -0.0000324 -0.0000100 -0.0000167 0.0000631 -0.0000038 0.0001045 0.0000221 0.0000409 0.0000546 0.0000479 -0.0001434 -0.0000008 -0.0000109 0.0000416 -0.0000539 0.0000412 0.0000027 0.0000392 -0.0000417
-0.0000248 -0.0001016 -0.0000411 -0.0003653 0.0000064 -0.0002625 0.0000733 0.0000432 -0.0000431 -0.0002120 -0.0000541 -0.0003846 0.0000425 -0.0002151 -0.0001029 -0.0004594 0.0000153 -0.0003878 -0.0000759 -0.0001658 0.0000203 -0.0002619 0.0001509 -0.0002456 0.0000838 -0.0000225 0.0000135 -0.0005013 0.0000391 0.0001455 0.0000600 -0.0005216 -0.0000158 -0.0007069 0.0000563 -0.0001545 0.0000962 -0.0002262 0.0000240 -0.0005239 -0.0000212 -0.0001121 0.0000727 0.0001586 0.0000638 -0.0001327 0.0000486 -0.0001682 -0.0005782 -0.0008321 0.0000388 -0.0002736 0.0000854 -0.0005304 0.0003574 -0.0005114 -0.0001077 -0.0003531 0.0070287 0.0015544 -0.0044473 0.0124289 0.0004089 0.0087232 -0.0000374 -0.0003009 -0.0055811 -0.0066046 0.0000081 -0.0004533 0.0000284 0.0001583 0.0000619 0.0001507 0.0000862 0.0004434 -0.0000112 0.0007300 0.0000350 0.0001009 0.0000632 -0.0000700 0.0000396 0.0003645 0.0000703 -0.0002202 0.0000785 0.0001590 0.0000611 -0.0000998 0.0000433 0.0001098 0.0000068 0.0000183 0.0000686 0.0008280 0.0001401 0.0001304 0.0001400 0.0007072 0.0000924 -0.0000517 0.0000228 0.0000915 -0.0000066 0.0004310 0.0000425 0.0000632 0.0000330 0.0001049 -0.0000029 0.0000557 -0.0000122 0.0008134 0.0000238 0.0002861 0.0001356 0.0000070 -0.0000342 0.0001223 0.0000523 0.0000711 -0.0000272 0.0001763 0.0000516 0.0001813 0.0000874 0.0002916 0.0000448 0.0002653 0.0000654 -0.0000315 -0.0000130 0.0001853 0.0000297 0.0002099 0.0000264 0.0002271 0.0000315 0.0002290
-0.0000248 -0.0002224 -0.0000421 -0.0003784 0.0000116 -0.0002989 0.0000811 0.0000231 -0.0000165 -0.0003575 -0.0000516 -0.0003962 0.0000591 -0.0002123 -0.0001118 -0.0004768 0.0000115 -0.0004143 -0.0000784 -0.0002510 0.0000087 -0.0002998 0.0000554 -0.0002883 0.0000834 -0.0000144 0.0000273 -0.0005049 0.0000353 0.0001263 0.0000707 -0.0005829 0.0000079 -0.0007474 0.0000693 -0.0001856 0.0000888 -0.0002666 0.0000284 -0.0005534 -0.0000183 -0.0001405 0.0000724 0.0001321 0.0000722 -0.0001990 -0.0000091 -0.0001811 -0.0002918 -0.0010895 0.0001035 -0.0005270 0.0000577 -0.0007188 0.0001723 -0.0004232 -0.0000332 -0.0005033 0.0053696 -0.0013568 -0.0110898 0.0163213 -0.0119007 0.0125705 -0.0000692 -0.0004525 -0.0035982 -0.0173607 -0.0000603 -0.0006106 0.0000277 0.0006167 0.0000723 0.0004506 0.0000846 0.0008943 -0.0000016 0.0009973 0.0000240 0.0007851 0.0000552 0.0004241 0.0000246 0.0007469 0.0000504 0.0003185 0.0000704 0.0004410 0.0000508 0.0001795 0.0000331 0.0003270 0.0000050 0.0002294 0.0000613 0.0010372 0.0001296 0.0004535 0.0001770 0.0009130 0.0000785 0.0001900 0.0000056 0.0002791 -0.0000194 0.0005883 0.0000258 0.0002521 0.0000373 0.0002075 0.0000011 0.0001137 -0.0000226 0.0008380 0.0000314 0.0003253 0.0001274 0.0000844 -0.0000259 0.0001818 0.0000356 0.0000975 -0.0000434 0.0001811 0.0000518 0.0002005 0.0000632 0.0002509 0.0000466 0.0003127 0.0000529 0.0000284 -0.0000244 0.0001928 0.0000569 0.0001177 0.0000385 0.0002235 0.0000409 0.0001636
-0.0000222 -0.0004443 -0.0000404 -0.0004556 0.0000241 -0.0004199 0.0000983 -0.0001145 -0.0000066 -0.0005222 -0.0000441 -0.0004913 0.0000733 -0.0003047 -0.0000893 -0.0006174 0.0000380 -0.0005670 -0.0000715 -0.0004427 0.0000195 -0.0004604 0.0000229 -0.0004488 0.0000852 -0.0000499 0.0000650 -0.0006410 0.0000328 0.0000741 0.0000888 -0.0006612 0.0000292 -0.0008334 0.0000757 -0.0002713 0.0000954 -0.0003143 0.0000386 -0.0005918 -0.0000148 -0.0001433 0.0000752 0.0001701 0.0000625 -0.0001588 -0.0000301 -0.0001218 -0.0002438 -0.0011504 0.0000814 -0.0003826 0.0000135 -0.0006360 0.0002463 -0.0004536 0.0000526 -0.0005163 0.0011933 0.0035622 -0.0025871 0.0042996 -0.0132646 0.0042500 -0.0001126 -0.0002638 -0.0046428 0.0040295 -0.0001303 -0.0003943 0.0000324 0.0004956 0.0000732 0.0003835 0.0000834 0.0007620 -0.0000037 0.0009682 0.0000345 0.0005558 0.0000609 0.0002690 0.0000190 0.0006872 0.0000619 0.0001455 0.0000732 0.0003482 0.0000506 0.0000960 0.0000363 0.0002487 0.0000092 0.0001412 0.0000641 0.0010416 0.0001324 0.0003653 0.0001858 0.0009574 0.0000821 0.0000643 0.0000114 0.0001907 -0.0000246 0.0005585 0.0000233 0.0001398 0.0000419 0.0000825 0.0000073 0.0000351 -0.0000201 0.0007223 0.0000391 0.0002933 0.0001385 0.0000529 -0.0000341 0.0001812 0.0000205 0.0000665 -0.0000198 0.0000640 0.0000832 0.0000844 0.0000642 0.0000675 0.0000415 0.0002663 0.0000340 0.0000062 -0.0000093 0.0000757 0.0000815 -0.0000806 0.0000511 0.0001232 0.0000589 -0.0000394
-0.0000187 -0.0002166 -0.0000405 -0.0003889 0.0000256 -0.0002605 0.0001022 0.0000694 0.0000025 -0.0002933 -0.0000497 -0.0003759 0.0000423 -0.0001282 -0.0000927 -0.0004138 0.0000624 -0.0004722 -0.0000703 -0.0002311 0.0000208 -0.0003207 0.0000492 -0.0002645 0.0000780 0.0000108 0.0000464 -0.0004488 0.0000340 0.0001466 0.0000805 -0.0004554 0.0000213 -0.0006870 0.0000504 -0.0000882 0.0000983 -0.0001759 0.0000339 -0.0004564 -0.0000228 -0.0000345 0.0000727 0.0002829 0.0000580 0.0000307 -0.0000689 0.0000502 -0.0003375 -0.0009961 0.0000848 -0.0001900 0.0000545 -0.0004374 0.0002115 -0.0003482 0.0000378 -0.0003757 0.0010763 0.0046909 0.0009306 -0.0021662 0.0114496 -0.0156195 -0.0000621 -0.0002751 -0.0040066 0.0033032 -0.0000853 -0.0004111 0.0000424 0.0001884 0.0000732 0.0001714 0.0000892 0.0004374 -0.0000079 0.0007922 0.0000515 0.0000284 0.0000705 -0.0000996 0.0000232 0.0004407 0.0000828 -0.0002861 0.0000889 0.0001218 0.0000627 -0.0001338 0.0000403 0.0000628 0.0000079 -0.0000933 0.0000570 0.0009381 0.0001297 0.0001164 0.0001323 0.0007447 0.0000857 -0.0001006 0.0000266 0.0000552 -0.0000356 0.0004762 0.0000331 0.0000375 0.0000420 0.0000548 0.0000068 0.0000338 -0.0000200 0.0007180 0.0000402 0.0003508 0.0001523 0.0001422 -0.0000161 0.0002302 0.0000461 0.0001979 -0.0000083 0.0001807 0.0000726 0.0002158 0.0000553 0.0002869 0.0000240 0.0003930 0.0000390 0.0000855 -0.0000151 0.0002252 0.0000711 0.0001453 0.0000431 0.0002930 0.0000570 0.0001921
-0.0000247 -0.0003264 -0.0000468 -0.0003654 0.0000284 -0.0002703 0.0000979 0.0000876 -0.0000106 -0.0004156 -0.0000476 -0.0003559 0.0000398 -0.0000838 -0.0001099 -0.0004009 0.0000559 -0.0004687 -0.0000494 -0.0003162 0.0000376 -0.0003547 0.0001619 -0.0003993 0.0000830 0.0000278 0.0000447 -0.0004507 0.0000348 0.0001331 0.0000792 -0.0005082 0.0000373 -0.0006959 0.0000584 -0.0001037 0.0001098 -0.0002386 0.0000483 -0.0004681 -0.0000170 -0.0000565 0.0000718 0.0002593 0.0000671 -0.0000260 -0.0000255 -0.0000365 -0.0003055 -0.0010233 0.0001060 -0.0003091 0.0000487 -0.0006097 0.0000897 -0.0002112 0.0000126 -0.0004445 0.0042173 -0.0033356 -0.0064093 0.0106842 0.0096368 -0.0086863 -0.0000052 -0.0004659 -0.0006471 -0.0093154 -0.0000376 -0.0006111 0.0000452 0.0005151 0.0000902 0.0003956 0.0001016 0.0006339 -0.0000063 0.0008790 0.0000400 0.0001826 0.0000612 0.0001133 0.0000234 0.0005743 0.0000630 -0.0000470 0.0000912 0.0001856 0.0000632 -0.0000686 0.0000420 0.0001134 -0.0000083 -0.0000097 0.0000459 0.0009224 0.0001339 0.0001321 0.0001216 0.0007223 0.0000893 -0.0001652 0.0000245 0.0000118 -0.0000364 0.0004473 0.0000229 -0.0000285 0.0000449 -0.0000538 0.0000097 -0.0000488 -0.0000132 0.0005378 0.0000526 0.0003072 0.0001536 0.0001131 -0.0000145 0.0002026 0.0000516 0.0001518 -0.0000099 0.0000777 0.0000520 0.0001624 0.0000627 0.0001744 0.0000261 0.0003178 0.0000887 0.0000337 -0.0000115 0.0001510 0.0000741 0.0000454 0.0000468 0.0002190 0.0000815 0.0000728
-0.0000182 -0.0005696 -0.0000419 -0.0004278 0.0000317 -0.0003848 0.0001101 -0.0000490 -0.0000231 -0.0006068 -0.0000370 -0.0004342 0.0000763 -0.0001885 -0.0000930 -0.0005398 0.0000559 -0.0005909 -0.0000130 -0.0005596 0.0000553 -0.0005086 0.0002028 -0.0006287 0.0000878 -0.0000216 0.0000759 -0.0006098 0.0000289 0.0000502 0.0001089 -0.0006969 0.0000535 -0.0008059 0.0000963 -0.0002662 0.0001386 -0.0003786 0.0000665 -0.0005858 -0.0000013 -0.0001484 0.0000692 0.0001760 0.0000714 -0.0001638 0.0000537 -0.0002211 -0.0004339 -0.0009712 0.0000763 -0.0004020 0.0000334 -0.0008021 0.0003384 -0.0005683 0.0000345 -0.0005816 0.0053419 -0.0091408 -0.0042746 0.0091957 -0.0057649 0.0031422 -0.0000336 -0.0004185 0.0065299 -0.0144876 0.0000211 -0.0005447 0.0000487 0.0003299 0.0001005 0.0002499 0.0000996 0.0004220 -0.0000114 0.0007159 0.0000579 -0.0001195 0.0000659 -0.0000842 0.0000238 0.0003893 0.0000711 -0.0002623 0.0000962 0.0000488 0.0000686 -0.0002211 0.0000493 -0.0000140 0.0000068 -0.0001726 0.0000449 0.0007334 0.0001368 -0.0000459 0.0001254 0.0007385 0.0001052 -0.0003804 0.0000287 -0.0001347 -0.0000329 0.0002955 0.0000194 -0.0002107 0.0000497 -0.0002522 0.0000101 -0.0002074 -0.0000027 0.0002861 0.0000529 0.0001377 0.0001578 0.0000117 -0.0000299 0.0001316 0.0000429 0.0000154 0.0000070 -0.0001456 0.0000554 -0.0000229 0.0000773 -0.0000701 0.0000328 0.0002180 0.0000984 -0.0000376 0.0000167 -0.0000156 0.0000859 -0.0001570 0.0000583 0.0000649 0.0001178 -0.0001719
-0.0000124 -0.0003616 -0.0000332 -0.0004017 0.0000282 -0.0002692 0.0001186 0.0000600 -0.0000117 -0.0003893 -0.0000467 -0.0003592 0.0000844 -0.0001288 -0.0000633 -0.0004288 0.0000569 -0.0005161 -0.0000158 -0.0004007 0.0000391 -0.0003949 0.0001871 -0.0005049 0.0000803 -0.0000137 0.0000707 -0.0004896 0.0000252 0.0000761 0.0001129 -0.0005333 0.0000453 -0.0006988 0.0000932 -0.0001493 0.0001337 -0.0002457 0.0000595 -0.0005026 -0.0000064 -0.0000685 0.0000663 0.0002546 0.0000646 -0.0000160 0.0000775 -0.0001019 -0.0006762 -0.0006775 0.0000705 -0.0001759 -0.0000335 -0.0005318 0.0004496 -0.0005448 0.0000740 -0.0004931 -0.0097913 0.0173581 -0.0080994 0.0089611 0.0031410 -0.0171847 -0.0000443 -0.0001331 0.0048953 -0.0058997 0.0000859 -0.0002754 0.0000469 0.0000583 0.0001048 0.0000073 0.0000797 0.0002418 -0.0000122 0.0004978 0.0000695 -0.0001465 0.0000861 -0.0002025 0.0000218 0.0001945 0.0000826 -0.0004199 0.0000993 0.0000031 0.0000797 -0.0003059 0.0000529 -0.0000781 0.0000275 -0.0003173 0.0000364 0.0005349 0.0001215 -0.0001037 0.0001035 0.0006421 0.0000955 -0.0002825 0.0000346 -0.0000784 -0.0000392 0.0002372 0.0000351 -0.0001138 0.0000496 -0.0000994 0.0000036 -0.0001189 -0.0000214 0.0003456 0.0000338 0.0001312 0.0001614 0.0001198 -0.0000341 0.0002021 0.0000306 0.0001405 -0.0000124 -0.0000313 0.0000374 0.0001062 0.0000813 0.0001399 0.0000239 0.0004058 0.0001032 0.0000572 0.0000096 0.0001371 0.0000638 0.0000605 0.0000538 0.0001885 0.0000854 0.0000101
-0.0000120 -0.0000601 -0.0000336 -0.0002864 0.0000238 -0.0000617 0.0001243 0.0003164 -0.0000063 -0.0000840 -0.0000667 -0.0001763 0.0000825 0.0000515 -0.0001106 -0.0001260 0.0000572 -0.0003042 -0.0000308 -0.0000897 0.0000176 -0.0001518 0.0001416 -0.0002399 0.0000690 0.0000438 0.0000408 -0.0002257 0.0000268 0.0001569 0.0000879 -0.0002437 0.0000283 -0.0004710 0.0000526 0.0001140 0.0000990 -0.0000206 0.0000514 -0.0003039 -0.0000193 0.0000879 0.0000690 0.0003921 0.0000610 0.0002076 -0.0000318 0.0001505 -0.0003658 -0.0007865 0.0000888 -0.0000704 -0.0000000 -0.0004478 0.0002050 -0.0001764 0.0000783 -0.0003794 -0.0126913 0.0198474 -0.0016096 -0.0043311 -0.0029413 -0.0031884 -0.0000528 -0.0001619 -0.0010100 -0.0058750 0.0000649 -0.0002604 0.0000629 0.0001871 0.0001143 0.0001382 0.0000966 0.0001981 -0.0000112 0.0004290 0.0000609 -0.0002592 0.0000818 -0.0001906 0.0000226 0.0001268 0.0000733 -0.0003936 0.0001057 -0.0000405 0.0000792 -0.0003234 0.0000498 -0.0000901 0.0000377 -0.0003254 0.0000238 0.0003425 0.0001291 -0.0001919 0.0000943 0.0005946 0.0000967 -0.0003663 0.0000404 -0.0001460 -0.0000299 0.0001391 0.0000411 -0.0002106 0.0000513 -0.0002040 0.0000051 -0.0001942 -0.0000309 0.0001811 0.0000305 0.0000232 0.0001724 0.0000713 -0.0000143 0.0001492 0.0000512 0.0000280 -0.0000373 -0.0001135 0.0000588 -0.0000142 0.0001033 -0.0000110 0.0000277 0.0003632 0.0000906 0.0000017 0.0000205 0.0000607 0.0000757 -0.0000610 0.0000497 0.0001075 0.0000663 -0.0000979
-0.0000148 -0.0002178 -0.0000350 -0.0002716 0.0000211 -0.0001022 0.0001194 0.0003098 -0.0000423 -0.0001907 -0.0000567 -0.0001648 0.0000787 0.0000787 -0.0001360 -0.0001356 0.0000597 -0.0003228 -0.0000287 -0.0001929 0.0000262 -0.0001991 0.0000850 -0.0002949 0.0000654 0.0000293 0.0000437 -0.0002631 0.0000198 0.0001153 0.0000917 -0.0003247 0.0000358 -0.0004723 0.0000467 0.0000922 0.0000863 -0.0000732 0.0000666 -0.0003161 -0.0000181 0.0000612 0.0000685 0.0003591 0.0000640 0.0001419 -0.0000415 0.0001347 -0.0003203 -0.0008567 0.0000725 -0.0001504 0.0000413 -0.0005993 -0.0000935 -0.0000039 0.0000138 -0.0003732 -0.0221319 0.0263543 -0.0003068 0.0003584 0.0028040 -0.0022389 0.0000051 -0.0004166 0.0003591 -0.0108667 0.0000170 -0.0003932 0.0000656 -0.0000235 0.0001158 -0.0000095 0.0001031 -0.0000618 -0.0000131 0.0001860 0.0000716 -0.0006067 0.0000991 -0.0004453 0.0000268 -0.0001513 0.0000839 -0.0006375 0.0001183 -0.0002130 0.0000872 -0.0004889 0.0000515 -0.0002194 0.0000469 -0.0004876 0.0000135 0.0000246 0.0001387 -0.0004269 0.0000811 0.0005240 0.0001129 -0.0006135 0.0000522 -0.0003326 -0.0000150 -0.0000707 0.0000439 -0.0004359 0.0000556 -0.0004368 0.0000039 -0.0003801 -0.0000189 -0.0001223 0.0000359 -0.0001601 0.0001830 -0.0000709 0.0000006 0.0000213 0.0000694 -0.0001508 -0.0000278 -0.0003516 0.0000904 -0.0002684 0.0000976 -0.0002794 0.0000374 0.0002251 0.0000363 -0.0000809 0.0000307 -0.0000759 0.0001148 -0.0002673 0.0000565 -0.0000188 0.0000932 -0.0002598
-0.0000197 -0.0004623 -0.0000307 -0.0003260 0.0000277 -0.0002269 0.0001274 0.0001605 -0.0000589 -0.0003962 -0.0000559 -0.0002388 0.0000640 -0.0000032 -0.0001064 -0.0003072 0.0000709 -0.0004577 -0.0000246 -0.0004169 0.0000485 -0.0003735 0.0001479 -0.0005375 0.0000678 -0.0000270 0.0000645 -0.0004400 0.0000099 0.0000311 0.0001144 -0.0005137 0.0000678 -0.0005950 0.0000742 -0.0000579 0.0000977 -0.0002023 0.0000881 -0.0004297 -0.0000066 -0.0000395 0.0000682 0.0002746 0.0000629 0.0000039 0.0000619 0.0000102 -0.0005215 -0.0007399 0.0000337 -0.0001274 0.0000576 -0.0006180 -0.0000157 -0.0000611 0.0000405 -0.0004083 -0.0215880 0.0252071 -0.0196098 0.0171763 -0.0007776 0.0020614 0.0000631 -0.0003259 0.0109559 -0.0212581 0.0000910 -0.0002776 0.0000479 -0.0001030 0.0001077 -0.0001374 0.0000847 -0.0000088 -0.0000057 0.0000148 0.0000783 -0.0003171 0.0001240 -0.0003592 0.0000204 -0.0002435 0.0000857 -0.0005486 0.0001101 -0.0001313 0.0000898 -0.0004561 0.0000575 -0.0001848 0.0000595 -0.0005149 0.0000032 -0.0001959 0.0001239 -0.0004085 0.0000542 0.0004140 0.0001061 -0.0004510 0.0000518 -0.0002266 -0.0000203 -0.0000813 0.0000513 -0.0002882 0.0000526 -0.0002473 -0.0000063 -0.0002820 -0.0000273 -0.0000849 0.0000307 -0.0001089 0.0001730 0.0000404 -0.0000186 0.0001139 0.0000371 0.0000298 0.0000031 -0.0002785 0.0000703 -0.0001413 0.0000684 -0.0000231 0.0000459 0.0003936 0.0000467 -0.0000095 0.0000089 0.0000750 0.0001282 -0.0001033 0.0000725 0.0000538 0.0000837 -0.0001276
-0.0000159 -0.0002258 -0.0000317 -0.0002656 0.0000278 -0.0000827 0.0001260 0.0002928 -0.0000599 -0.0001575 -0.0000602 -0.0001497 0.0000815 0.0000289 -0.0001043 -0.0001239 0.0000599 -0.0003328 -0.0000446 -0.0002025 0.0000481 -0.0002402 0.0002377 -0.0004566 0.0000650 0.0000039 0.0000657 -0.0003246 0.0000126 0.0000924 0.0001069 -0.0003260 0.0000760 -0.0004906 0.0000569 0.0000902 0.0000844 -0.0000426 0.0000795 -0.0003142 -0.0000091 0.0000521 0.0000686 0.0003688 0.0000509 0.0001676 0.0000787 0.0001340 -0.0005555 -0.0006064 0.0000566 0.0000958 -0.0000208 -0.0003507 0.0001360 0.0000210 -0.0000992 -0.0001682 -0.0007846 0.0049936 0.0091368 -0.0307156 -0.0108204 0.0106009 -0.0000465 0.0000464 0.0171777 -0.0375712 0.0000924 0.0000762 0.0000608 -0.0000101 0.0001115 -0.0000359 0.0000951 -0.0000500 -0.0000068 -0.0000403 0.0000725 -0.0004277 0.0001115 -0.0003538 0.0000246 -0.0003145 0.0000797 -0.0005356 0.0001113 -0.0001656 0.0000873 -0.0004644 0.0000626 -0.0001973 0.0000547 -0.0005050 0.0000020 -0.0003973 0.0001326 -0.0004915 0.0000504 0.0003883 0.0001172 -0.0005215 0.0000548 -0.0002743 -0.0000077 -0.0001515 0.0000542 -0.0003576 0.0000508 -0.0003313 -0.0000091 -0.0003478 -0.0000246 -0.0002579 0.0000399 -0.0001802 0.0001738 -0.0000095 -0.0000227 0.0000758 0.0000291 -0.0000242 0.0000272 -0.0003973 0.0000780 -0.0002348 0.0000797 -0.0001519 0.0000416 0.0003542 0.0000303 -0.0000709 0.0000173 0.0000056 0.0001140 -0.0002217 0.0000880 -0.0000491 0.0000668 -0.0002397
-0.0000165 0.0001044 -0.0000387 -0.0001297 0.0000202 0.0001441 0.0001146 0.0005602 -0.0000801 0.0001710 -0.0000667 0.0000380 0.0000617 0.0002098 -0.0001142 0.0001563 0.0000541 -0.0000852 -0.0000665 0.0001311 0.0000572 0.0000077 0.0001709 -0.0001564 0.0000508 0.0000737 0.0000477 -0.0000507 0.0000163 0.0002033 0.0000819 -0.0000427 0.0000589 -0.0002575 0.0000058 0.0003758 0.0000463 0.0001985 0.0000720 -0.0001103 -0.0000227 0.0002089 0.0000615 0.0004740 0.0000507 0.0003590 0.0000265 0.0003174 -0.0005539 -0.0005079 0.0000390 0.0002150 -0.0001446 -0.0002027 0.0000309 0.0002482 -0.0001499 -0.0000608 -0.0008862 0.0048791 0.0200910 -0.0285683 -0.0066678 0.0106833 -0.0001845 0.0001668 0.0036780 -0.0157587 0.0000728 0.0001131 0.0000587 -0.0002119 0.0001184 -0.0001890 0.0000972 -0.0002970 -0.0000081 -0.0002472 0.0000829 -0.0007874 0.0001190 -0.0006177 0.0000427 -0.0006062 0.0000944 -0.0008016 0.0001234 -0.0003444 0.0000966 -0.0006397 0.0000693 -0.0003432 0.0000620 -0.0006529 0.0000035 -0.0007081 0.0001519 -0.0007412 0.0000404 0.0003205 0.0001318 -0.0007723 0.0000680 -0.0004657 0.0000154 -0.0003696 0.0000570 -0.0005822 0.0000537 -0.0005745 -0.0000140 -0.0005390 -0.0000144 -0.0005523 0.0000475 -0.0003359 0.0001747 -0.0001596 -0.0000264 -0.0000399 0.0000383 -0.0001908 0.0000275 -0.0006291 0.0000888 -0.0004367 0.0000960 -0.0004355 0.0000382 0.0002252 0.0000126 -0.0002095 0.0000362 -0.0001219 0.0001059 -0.0003895 0.0000909 -0.0001587 0.0000705 -0.0003744
