-0.0000000 -0.0000000 -0.0000000 -0.0000000 -0.0000000 -0.0000000 -0.0000000 -0.0000000 -0.0000000 -0.0000000 -0.0000000 -0.0000000 -0.0000000 -0.0000000 -0.0000000 -0.0000000 -0.0000000 -0.0000000 -0.0000000 -0.0000000 -0.0000000 -0.0000000 -0.0000000 -0.0000000 -0.0000000 -0.0000000 -0.0000000 -0.0000000 -0.0000000 -0.0000000 -0.0000000 -0.0000000 -0.0000000 -0.0000000 -0.0000000 -0.0000000 -0.0000000 -0.0000000 -0.0000000 -0.0000000 -0.0000000 -0.0000000 -0.0000000 -0.0000000 -0.0000000 -0.0000000 -0.0000000 -0.0000000 -0.0000000 -0.0000000 -0.0000000 -0.0000000 -0.0000000 -0.0000000 -0.0000000 -0.0000000 -0.0000000 -0.0000000 -0.0000000 -0.0000000 -0.0000000 -0.0000000 -0.0000000 -0.0000000 -0.0000000 -0.0000000 -0.0000000 -0.0000000 -0.0000000 -0.0000000 -0.0000000 -0.0000000 -0.0000000 -0.0000000 -0.0000000 -0.0000000 -0.0000000 -0.0000000 -0.0000000 -0.0000000 -0.0000000 -0.0000000 -0.0000000 -0.0000000 -0.0000000 -0.0000000 -0.0000000 -0.0000000 -0.0000000 -0.0000000 -0.0000000 -0.0000000 -0.0000000 -0.0000000 -0.0000000 -0.0000000 -0.0000000 -0.0000000 -0.0000000 -0.0000000 -0.0000000 -0.0000000 -0.0000000 -0.0000000 -0.0000000 -0.0000000 -0.0000000 -0.0000000 -0.0000000 -0.0000000 -0.0000000 -0.0000000 -0.0000000 -0.0000000 -0.0000000 -0.0000000 -0.0000000 -0.0000000 -0.0000000 -0.0000000 -0.0000000 -0.0000000 -0.0000000 -0.0000000 -0.0000000 -0.0000000 -0.0000000 -0.0000000 -0.0000000 -0.0000000 -0.0000000 -0.0000000 -0.0000000 -0.0000000 -0.0000000 -0.0000000 -0.0000000 -0.0000000 -0.0000000 -0.0000000 -0.0000000 -0.0000000 -0.0000000 -0.0000000 -0.0000000 -0.0000000 -0.0000000 -0.0000000 -0.0000000 -0.0000000 -0.0000000 -0.0000000 -0.0000000 -0.0000000 -0.0000000 -0.0000000 -0.0000000 -0.0000000 -0.0000000 -0.0000000 -0.0000000 -0.0000000 -0.0000000 -0.0000000 -0.0000000 -0.0000000 -0.0000000 -0.0000000 -0.0000000 -0.0000000 -0.0000000 -0.0000000 -0.0000000 -0.0000000 -0.0000000 -0.0000000 -0.0000000 -0.0000000 -0.0000000 -0.0000000 -0.0000000 -0.0000000 -0.0000000 -0.0000000 -0.0000000 -0.0000000 -0.0000000 -0.0000000 -0.0000000 -0.0000000 -0.0000000 -0.0000000 -0.0000000 -0.0000000 -0.0000000 -0.0000000 -0.0000000 -0.0000000 -0.0000000 -0.0000000 -0.0000000 -0.0000000 -0.0000000 -0.0000000 -0.0000000 -0.0000000 -0.0000000 -0.0000000 -0.0000000 -0.0000000 -0.0000000 -0.0000000 -0.0000000 -0.0000000 -0.0000000 -0.0000000
-0.0000000 -0.0000000 -0.0000000 -0.0000000 -0.0000000 -0.0000000 -0.0000000 -0.0000000 -0.0000000 -0.0000000 -0.0000000 -0.0000000 -0.0000000 -0.0000000 -0.0000000 -0.0000000 -0.0000000 -0.0000000 -0.0000000 -0.0000000 -0.0000000 -0.0000000 -0.0000000 -0.0000000 -0.0000000 -0.0000000 -0.0000000 -0.0000000 -0.0000000 -0.0000000 -0.0000000 -0.0000000 -0.0000000 -0.0000000 -0.0000000 -0.0000000 -0.0000000 -0.0000000 -0.0000000 -0.0000000 -0.0000000 -0.0000000 -0.0000000 -0.0000000 -0.0000000 -0.0000000 -0.0000000 -0.0000000 -0.0000000 -0.0000000 -0.0000000 -0.0000000 -0.0000000 -0.0000000 -0.0000000 -0.0000000 -0.0000000 -0.0000000 -0.0000000 -0.0000000 -0.0000000 -0.0000000 -0.0000000 -0.0000000 -0.0000000 -0.0000000 -0.0000000 -0.0000000 -0.0000000 -0.0000000 -0.0000000 -0.0000000 -0.0000000 -0.0000000 -0.0000000 -0.0000000 -0.0000000 -0.0000000 -0.0000000 -0.0000000 -0.0000000 -0.0000000 -0.0000000 -0.0000000 -0.0000000 -0.0000000 -0.0000000 -0.0000000 -0.0000000 -0.0000000 -0.0000000 -0.0000000 -0.0000000 -0.0000000 -0.0000000 -0.0000000 -0.0000000 -0.0000000 -0.0000000 -0.0000000 -0.0000000 -0.0000000 -0.0000000 -0.0000000 -0.0000000 -0.0000000 -0.0000000 -0.0000000 -0.0000000 -0.0000000 -0.0000000 -0.0000000 -0.0000000 -0.0000000 -0.0000000 -0.0000000 -0.0000000 -0.0000000 -0.0000000 -0.0000000 -0.0000000 -0.0000000 -0.0000000 -0.0000000 -0.0000000 -0.0000000 -0.0000000 -0.0000000 -0.0000000 -0.0000000 -0.0000000 -0.0000000 -0.0000000 -0.0000000 -0.0000000 -0.0000000 -0.0000000 -0.0000000 -0.0000000 -0.0000000 -0.0000000 -0.0000000 -0.0000000 -0.0000000 -0.0000000 -0.0000000 -0.0000000 -0.0000000 -0.0000000 -0.0000000 -0.0000000 -0.0000000 -0.0000000 -0.0000000 -0.0000000 -0.0000000 -0.0000000 -0.0000000 -0.0000000 -0.0000000 -0.0000000 -0.0000000 -0.0000000 -0.0000000 -0.0000000 -0.0000000 -0.0000000 -0.0000000 -0.0000000 -0.0000000 -0.0000000 -0.0000000 -0.0000000 -0.0000000 -0.0000000 -0.0000000 -0.0000000 -0.0000000 -0.0000000 -0.0000000 -0.0000000 -0.0000000 -0.0000000 -0.0000000 -0.0000000 -0.0000000 -0.0000000 -0.0000000 -0.0000000 -0.0000000 -0.0000000 -0.0000000 -0.0000000 -0.0000000 -0.0000000 -0.0000000 -0.0000000 -0.0000000 -0.0000000 -0.0000000 -0.0000000 -0.0000000 -0.0000000 -0.0000000 -0.0000000 -0.0000000 -0.0000000 -0.0000000 -0.0000000 -0.0000000 -0.0000000 -0.0000000 -0.0000000 -0.0000000 -0.0000000 -0.0000000
-0.0000020 -0.0000745 0.0000131 -0.0000654 0.0000037 -0.0000521 0.0000082 0.0000164 -0.0000101 -0.0000036 -0.0000489 0.0001292 -0.0000010 0.0000649 -0.0000162 -0.0000020 0.0000011 0.0000767 -0.0000384 0.0000341 -0.0000549 0.0000235 -0.0000006 0.0000207 -0.0000543 0.0000178 0.0000114 0.0001217 -0.0000060 0.0000731 0.0000094 0.0001268 0.0000479 0.0000018 0.0000432 0.0000928 -0.0000085 0.0000454 -0.0002243 0.0003228 0.0000055 0.0001256 -0.0000510 0.0001437 -0.0001784 0.0002506 -0.0000057 0.0001058 0.0001499 0.0000627 -0.0000467 0.0001349 0.0000054 0.0000695 -0.0000053 0.0000986 -0.0000174 0.0001202 -0.0000097 0.0001673 0.0000061 0.0001820 0.0002882 -0.0000890 0.0000365 0.0001626 -0.0001465 0.0003303 -0.0001474 0.0003740 -0.0004156 0.0006049 0.0036119 -0.0019966 0.0014817 0.0021445 0.0000267 0.0002569 -0.0001550 0.0003318 -0.0018436 0.0005277 -0.0017267 0.0023560 -0.0000056 0.0001884 -0.0001696 0.0005895 -0.0000718 0.0002508 -0.0000981 0.0002759 0.0035554 -0.0045751 -0.0002403 0.0009629 0.0000244 0.0001769 -0.0006200 0.0010462 0.0005054 -0.0002683 0.0001480 -0.0000582 0.0000316 0.0000775 0.0070847 -0.0189612 -0.0029591 -0.0019975 -0.0003298 0.0004570 0.0000579 0.0000414 -0.0003693 -0.0000774 -0.0000007 0.0000867 -0.0000740 0.0001720 -0.0000457 0.0000793 -0.0006365 0.0001769 -0.0000787 0.0010408 -0.0016169 0.0014818 -0.0000066 -0.0000051 -0.0001322 0.0001861 0.0055890 -0.0104321 0.0000789 -0.0000359 -0.0009457 0.0014091 -0.0000559 0.0000363 0.0000276 0.0000432 -0.0001303 0.0000178 0.0001367 0.0000117 -0.0000906 0.0001775 0.0006053 -0.0000429 0.0004445 -0.0002447 -0.0001425 0.0001870 -0.0069156 -0.0012537 0.0000261 -0.0000186 0.0001056 -0.0001454 0.0000099 0.0000101 -0.0004063 0.0003262 -0.0000274 0.0001148 -0.0000270 0.0000884 -0.0001829 0.0001785 -0.0000086 0.0001073 0.0019851 -0.0016142 0.0000876 0.0001318 0.0008109 -0.0004443 0.0000096 0.0000125 0.0000906 0.0001864 0.0010099 -0.0005219 0.0040257 -0.0069694 -0.0003296 0.0002301 0.0000119 0.0000272 -0.0000676 0.0000954 -0.0008978 0.0039071 0.0000527 0.0001144 0.0000492 -0.0000359 -0.0000254 0.0004387 0.0065939 -0.0086673 0.0000230 0.0000316 0.0001456 0.0001835 -0.0000259 0.0000170 0.0000580 -0.0000717 0.0000353 -0.0000391 -0.0000187 -0.0000011 0.0000506 -0.0001718
0.0000129 -0.0001107 -0.0000036 -0.0000203 0.0000113 -0.0000388 0.0000030 0.0000482 -0.0000160 -0.0000077 -0.0000254 0.0001946 -0.0000109 0.0001608 -0.0000424 -0.0000423 0.0000216 0.0001163 0.0000264 -0.0000092 0.0000094 -0.0000079 0.0000175 -0.0000159 -0.0000156 0.0000083 0.0000343 0.0001821 0.0000034 0.0000580 0.0000243 0.0002081 0.0000622 -0.0000347 0.0000421 0.0000407 -0.0000367 -0.0000522 0.0000592 0.0000241 0.0000106 0.0000307 -0.0000404 0.0000274 -0.0002411 0.0002624 -0.0000060 0.0001232 -0.0001855 0.0001257 -0.0000334 0.0001461 0.0000056 0.0001045 -0.0000191 0.0000590 -0.0000273 0.0001398 -0.0000167 0.0001948 -0.0000093 0.0002648 0.0000937 0.0000246 0.0000741 0.0001504 -0.0001024 0.0002810 0.0000632 -0.0002431 0.0001657 0.0001387 0.0021157 -0.0010881 0.0068537 -0.0071771 -0.0000321 0.0006097 0.0000914 0.0002645 -0.0021676 0.0025218 0.0001349 0.0018026 0.0000075 0.0003768 -0.0019391 0.0026641 -0.0002968 0.0008444 -0.0001159 0.0005073 0.0058293 -0.0064378 0.0050094 -0.0065017 -0.0000943 0.0004047 -0.0008766 0.0010124 0.0001939 -0.0001407 -0.0000222 0.0001434 0.0000597 0.0002002 0.0022076 -0.0040114 0.0072076 -0.0157526 -0.0001044 0.0005248 0.0000181 0.0000532 -0.0002253 0.0000804 -0.0000043 0.0002574 0.0000019 0.0002366 -0.0000764 0.0003105 -0.0017867 0.0015682 -0.0014081 0.0046543 -0.0006686 0.0009165 0.0001025 0.0000358 -0.0000565 0.0000492 0.0088161 -0.0130586 -0.0000049 0.0003098 -0.0022110 0.0025218 -0.0001258 0.0005372 -0.0000005 0.0002269 0.0000761 0.0000778 0.0001058 0.0001416 -0.0000801 0.0002897 0.0001740 0.0003510 0.0003592 0.0002211 -0.0000587 0.0001401 -0.0015801 -0.0008909 0.0000431 0.0000391 0.0000243 0.0000827 0.0000025 0.0001556 -0.0001401 -0.0000110 0.0000013 0.0000893 -0.0000968 0.0003147 -0.0001509 0.0003603 -0.0000109 0.0002040 -0.0048070 0.0062908 0.0003236 0.0000354 0.0000815 0.0000155 0.0000416 0.0001124 0.0017496 -0.0024097 -0.0021204 0.0015347 -0.0025476 0.0002557 -0.0001804 0.0003894 0.0000070 0.0000465 -0.0002074 0.0002879 0.0071631 -0.0078388 0.0000162 0.0000213 0.0000006 0.0000284 -0.0001689 -0.0000161 -0.0013324 0.0093711 0.0000571 -0.0000370 0.0008023 -0.0008572 -0.0000204 -0.0000043 -0.0000392 -0.0000294 -0.0000581 0.0000012 -0.0000213 -0.0000604 0.0001614 -0.0002888
-0.0000062 -0.0001169 -0.0000269 -0.0000198 -0.0000062 -0.0000463 -0.0000224 0.0000691 -0.0000179 -0.0000000 0.0000080 0.0001453 -0.0000097 0.0001634 -0.0000549 -0.0000716 0.0000235 0.0001249 0.0000344 -0.0000431 0.0000748 -0.0000824 0.0000219 -0.0000690 0.0000455 0.0000011 0.0000442 0.0001787 0.0000131 0.0000339 0.0000281 0.0002079 0.0001043 -0.0001153 -0.0000572 0.0000426 -0.0000395 -0.0001555 -0.0001102 0.0001500 -0.0000065 -0.0000063 -0.0000400 -0.0000443 -0.0001152 0.0000800 0.0000011 0.0000855 -0.0002226 0.0000886 -0.0000273 0.0001405 0.0000102 0.0001314 -0.0000407 0.0000128 -0.0000465 0.0001032 -0.0000312 0.0001503 -0.0000282 0.0002239 0.0001288 -0.0002452 0.0000668 0.0000974 -0.0000988 0.0001818 -0.0000464 -0.0003351 0.0003464 0.0001376 -0.0009543 0.0021112 -0.0006592 -0.0120336 0.0001445 0.0003590 0.0000420 0.0002126 -0.0054934 0.0045185 -0.0002423 0.0006523 -0.0000746 0.0002775 0.0018415 -0.0020600 0.0002477 0.0002722 -0.0001473 0.0005329 0.0004990 -0.0002223 0.0030857 -0.0053691 -0.0000283 0.0001573 -0.0011601 0.0013063 0.0005151 -0.0003957 -0.0001570 0.0002014 -0.0000530 0.0001980 -0.0047826 0.0087085 0.0125298 -0.0272757 0.0002074 0.0001277 -0.0000989 0.0001996 0.0000272 0.0004030 -0.0000274 0.0002718 0.0002665 -0.0000535 0.0000136 0.0002814 -0.0016936 0.0018068 0.0010305 0.0015490 0.0009360 -0.0004628 0.0000790 0.0001785 0.0000257 -0.0000401 0.0015715 0.0045336 -0.0000885 0.0003802 -0.0014891 0.0001048 0.0002760 0.0001160 0.0000182 0.0002839 -0.0002486 0.0004778 0.0000287 0.0003224 -0.0001575 0.0004749 -0.0004965 0.0007187 -0.0001000 0.0006420 0.0000616 0.0001268 -0.0029832 -0.0000292 -0.0000138 0.0001222 -0.0001165 0.0002980 -0.0000646 0.0002823 -0.0011102 0.0012097 0.0000915 0.0001676 -0.0000130 0.0003680 0.0001464 0.0003277 -0.0000054 0.0003248 -0.0045988 0.0055210 -0.0002764 0.0006061 -0.0005108 0.0007393 0.0000217 0.0002492 0.0008823 -0.0009551 -0.0036597 0.0043388 -0.0024493 0.0022657 -0.0007293 0.0010417 -0.0000181 0.0001195 -0.0001621 0.0003636 0.0037609 -0.0000691 0.0000454 0.0001285 -0.0000687 0.0002340 0.0002250 -0.0004311 -0.0041747 0.0152530 0.0000233 0.0000783 -0.0007184 0.0005787 -0.0000437 0.0000875 -0.0000147 0.0000858 -0.0000853 0.0002737 -0.0000584 0.0002216 -0.0000306 0.0002891
-0.0000315 0.0001338 -0.0000115 0.0001764 -0.0000259 0.0001810 -0.0000349 0.0001163 -0.0000268 0.0000662 -0.0000205 0.0001656 -0.0000266 0.0001996 -0.0000537 -0.0000330 -0.0000005 0.0001571 -0.0000087 0.0000454 0.0000055 0.0000445 0.0000292 0.0000153 0.0000740 0.0001108 0.0000444 0.0001648 0.0000076 0.0000495 0.0000253 0.0002000 0.0000349 -0.0000480 -0.0000220 -0.0000745 -0.0000463 -0.0001845 -0.0003491 0.0001828 -0.0000056 -0.0000113 -0.0000592 -0.0000683 0.0002121 -0.0002447 0.0000306 0.0000286 -0.0000899 0.0000220 -0.0000080 0.0001096 0.0000165 0.0001463 -0.0000426 0.0000019 -0.0000705 0.0001072 -0.0000442 0.0001250 -0.0000494 0.0002224 -0.0000060 0.0001158 -0.0000708 0.0002402 -0.0000220 0.0001426 -0.0007204 0.0007222 -0.0006316 0.0010830 -0.0104577 0.0099281 -0.0049871 0.0050080 0.0003218 -0.0001918 0.0000228 0.0001278 -0.0060740 0.0054736 -0.0007771 0.0017416 -0.0000552 0.0001330 0.0030773 -0.0024904 0.0011258 -0.0007363 -0.0000486 0.0002585 -0.0067777 0.0062825 -0.0029590 0.0026886 -0.0000677 0.0002291 0.0001454 0.0007515 0.0004597 -0.0002394 -0.0001154 0.0002069 -0.0001134 0.0002053 -0.0117947 0.0114821 -0.0028711 -0.0051080 -0.0000315 0.0001033 -0.0008273 0.0007771 0.0001725 -0.0002301 -0.0000542 0.0002032 0.0000604 -0.0000349 -0.0000772 0.0003093 -0.0012495 0.0013550 0.0010091 -0.0009253 0.0004616 -0.0004339 0.0000442 0.0001326 -0.0000341 -0.0000275 0.0005756 0.0040697 -0.0001989 0.0003111 -0.0015524 0.0003775 0.0003147 -0.0004160 0.0000132 0.0000743 -0.0001604 0.0001551 -0.0000621 0.0002363 -0.0002241 0.0003951 -0.0000984 0.0006922 -0.0000910 0.0003604 0.0001973 0.0000422 -0.0110848 0.0053995 0.0000117 -0.0000527 -0.0000609 0.0000215 -0.0000769 0.0000583 -0.0009908 0.0011941 0.0001108 0.0000728 0.0000842 0.0001398 0.0000028 0.0006039 0.0000251 0.0002887 -0.0007059 0.0012073 -0.0009360 0.0012644 -0.0000782 0.0004517 -0.0000075 0.0001776 -0.0013958 0.0020519 -0.0005029 0.0020895 -0.0040866 0.0054628 -0.0010486 0.0010095 -0.0000431 0.0001090 -0.0002247 0.0004852 0.0032165 -0.0000457 0.0000286 0.0001704 -0.0000911 0.0002700 -0.0005705 0.0010742 -0.0152840 0.0244667 -0.0000039 0.0001062 -0.0009540 0.0005890 -0.0000237 0.0000849 0.0000292 0.0001459 -0.0000270 0.0004205 -0.0000394 0.0004401 0.0000335 0.0004699
-0.0000349 0.0003102 -0.0000341 0.0004041 -0.0000218 0.0003453 -0.0000026 0.0001117 -0.0000227 0.0001668 -0.0000997 0.0002180 -0.0000375 0.0001963 -0.0000515 0.0000411 -0.0000230 0.0001338 -0.0000306 0.0001950 -0.0000168 0.0001768 0.0000259 0.0001895 -0.0000399 0.0003462 0.0000224 0.0001709 -0.0000219 0.0001247 0.0000329 0.0001960 -0.0000030 0.0000264 0.0001167 -0.0001555 -0.0000434 -0.0000839 0.0002731 -0.0002867 -0.0000065 0.0001314 -0.0000175 -0.0000076 -0.0000009 0.0002379 0.0000349 0.0000296 0.0000687 0.0000431 -0.0000173 0.0001050 0.0000111 0.0001705 -0.0000326 0.0000371 -0.0000908 0.0001790 -0.0000415 0.0001676 -0.0000821 0.0002869 0.0003438 -0.0000413 -0.0001019 0.0003660 0.0000433 0.0001567 -0.0014538 0.0021575 -0.0005088 0.0010609 -0.0023514 -0.0001151 0.0007248 0.0019161 0.0002390 -0.0002684 -0.0001902 0.0002568 -0.0070773 0.0080971 -0.0009956 0.0016419 -0.0000049 0.0000186 0.0013858 -0.0000138 0.0010492 -0.0008287 -0.0001118 0.0001430 0.0000725 0.0003106 -0.0086419 0.0090960 -0.0001486 0.0003328 0.0015314 -0.0006002 0.0002838 -0.0001775 0.0000395 0.0000421 -0.0000184 0.0001177 0.0037542 -0.0072113 -0.0036672 0.0049080 -0.0000933 0.0001167 -0.0002440 0.0004612 -0.0004179 0.0000778 -0.0000748 0.0001701 -0.0001442 0.0001592 0.0000432 0.0000184 -0.0005101 0.0002642 0.0002211 0.0002017 0.0001041 -0.0003631 -0.0000030 0.0000399 -0.0000546 -0.0001951 -0.0029953 0.0037869 -0.0003304 0.0004182 -0.0019954 0.0032044 -0.0000896 -0.0001086 0.0000198 0.0000050 0.0000150 -0.0000299 -0.0001283 0.0002415 -0.0000022 0.0000889 -0.0002394 0.0006996 -0.0002612 0.0004147 0.0002591 -0.0001079 -0.0061868 0.0076791 0.0000084 -0.0001426 0.0000899 -0.0002352 -0.0000415 -0.0001175 -0.0004859 0.0003965 0.0000096 0.0001284 0.0001100 0.0000459 -0.0000789 0.0005525 -0.0000243 0.0003792 -0.0029875 0.0026263 -0.0007713 0.0010153 -0.0002902 0.0003560 0.0000444 0.0000166 -0.0000712 0.0012653 0.0019557 -0.0029418 0.0021452 -0.0002469 -0.0011898 0.0009104 -0.0000644 0.0000038 -0.0001717 0.0002248 0.0031789 -0.0053086 -0.0001838 0.0002358 -0.0001085 0.0001195 0.0003094 -0.0003135 -0.0252521 0.0279650 0.0000382 -0.0001521 -0.0002778 0.0015546 -0.0000170 -0.0000861 -0.0000406 0.0000640 -0.0000447 0.0000776 0.0000094 -0.0000293 -0.0000127 -0.0001372
-0.0000329 0.0000755 -0.0000095 0.0001254 -0.0000086 0.0000871 -0.0000308 0.0000622 -0.0000199 0.0001080 -0.0001063 0.0000438 -0.0000481 0.0000532 -0.0000423 -0.0000700 -0.0000326 -0.0000499 -0.0000364 0.0001833 -0.0000416 0.0001025 -0.0000180 0.0002091 0.0000023 0.0002486 0.0000095 0.0000982 -0.0000496 0.0000857 0.0000406 0.0001367 0.0000321 -0.0001018 0.0001045 -0.0001939 -0.0000397 -0.0000929 0.0006179 -0.0007154 -0.0000229 0.0002113 -0.0000177 0.0000383 -0.0003973 0.0006648 0.0000280 0.0000374 0.0001071 -0.0000089 -0.0000215 0.0001391 0.0000008 0.0002138 -0.0000491 0.0002086 -0.0001207 0.0003444 -0.0000494 0.0002782 -0.0000972 0.0004578 -0.0000129 0.0001306 -0.0000176 0.0004408 -0.0000615 0.0003546 -0.0010930 0.0028307 -0.0001224 0.0008868 0.0102677 -0.0138283 0.0061045 -0.0071606 -0.0003950 0.0005246 -0.0001790 0.0004120 -0.0035382 0.0032393 -0.0002774 0.0004328 -0.0000040 0.0001696 0.0000756 0.0003456 -0.0001794 -0.0001271 -0.0002728 0.0004739 0.0048892 -0.0027887 -0.0119406 0.0146427 0.0000793 0.0004058 0.0013818 -0.0004009 -0.0001316 0.0000722 -0.0000135 -0.0000093 -0.0000658 0.0001345 0.0034870 -0.0016203 -0.0075094 0.0124460 -0.0000444 -0.0000337 0.0004811 -0.0001870 -0.0002689 0.0005818 -0.0000632 0.0001987 -0.0000208 -0.0000319 -0.0000333 0.0000850 -0.0001713 -0.0006079 0.0005367 0.0010620 -0.0012995 0.0010135 -0.0000145 0.0000265 0.0000124 -0.0002697 0.0055901 -0.0049555 -0.0001769 0.0001849 -0.0001157 0.0011270 0.0000570 -0.0001225 0.0000015 -0.0000049 -0.0001333 0.0000342 -0.0001866 0.0001747 0.0000452 -0.0001713 -0.0004724 0.0006019 -0.0006413 0.0006870 0.0002246 -0.0000314 -0.0071552 0.0044131 -0.0000082 -0.0002141 0.0000915 -0.0003377 0.0000094 -0.0002070 -0.0012441 0.0013826 -0.0000508 0.0000745 0.0000437 0.0000445 -0.0000369 0.0003914 -0.0000857 0.0003688 0.0009574 -0.0004523 -0.0005340 0.0004724 0.0002682 -0.0001271 0.0000377 -0.0000131 0.0022309 -0.0023969 0.0021419 -0.0040736 0.0062640 -0.0038700 -0.0007322 0.0004824 -0.0000193 -0.0001502 0.0003113 -0.0001828 -0.0037237 0.0002224 -0.0002015 0.0001012 -0.0000466 -0.0000098 -0.0006273 0.0000065 -0.0004988 -0.0075244 -0.0000330 -0.0002035 -0.0011554 0.0022826 -0.0000296 -0.0001610 0.0000262 -0.0001049 -0.0000148 -0.0000992 0.0000166 -0.0002570 -0.0000546 -0.0004351
-0.0000252 -0.0000536 0.0000047 -0.0000582 -0.0000346 -0.0000214 -0.0000283 -0.0000050 -0.0000203 0.0000071 -0.0000869 -0.0001658 -0.0000673 -0.0000718 -0.0000258 -0.0002186 -0.0000529 -0.0002375 0.0000090 0.0000722 -0.0000531 -0.0000028 -0.0000491 0.0001047 0.0000077 0.0001610 0.0000052 -0.0000690 -0.0000298 -0.0000816 0.0000409 0.0000280 -0.0000476 -0.0002395 0.0000937 -0.0003691 -0.0000367 -0.0002928 0.0001301 -0.0004733 -0.0000223 0.0000353 0.0000309 -0.0001798 0.0001543 0.0000241 0.0000193 -0.0000456 -0.0000173 0.0000511 -0.0000489 0.0001516 -0.0000063 0.0002137 -0.0000516 0.0002259 -0.0001150 0.0003857 -0.0000380 0.0002332 -0.0000965 0.0004965 -0.0007261 0.0008218 0.0000182 0.0003470 -0.0002402 0.0004925 0.0000236 0.0010630 0.0002575 0.0007131 0.0112496 -0.0133178 -0.0017634 0.0047351 -0.0002296 0.0003651 0.0000060 0.0003567 0.0019750 -0.0024494 0.0014447 -0.0001688 -0.0000093 0.0002783 0.0025524 -0.0012749 0.0001437 -0.0002599 -0.0000079 0.0003848 0.0045736 -0.0037354 -0.0025843 0.0075199 0.0000909 0.0005151 0.0010742 -0.0007605 -0.0002752 0.0001468 -0.0002637 0.0000640 -0.0000115 0.0000990 -0.0098109 0.0168183 0.0029319 -0.0044642 -0.0000808 0.0000704 -0.0001375 0.0002594 0.0005573 0.0002809 -0.0000396 0.0003114 -0.0001518 0.0002202 -0.0001171 0.0003016 -0.0009145 0.0002330 0.0001950 0.0013008 -0.0008933 0.0010105 -0.0000220 0.0002029 -0.0000758 -0.0000180 0.0122171 -0.0164585 0.0000246 0.0001535 0.0006895 -0.0011672 -0.0002710 0.0005441 -0.0000172 0.0001413 -0.0001057 -0.0000147 0.0000094 0.0000869 -0.0000650 -0.0000240 0.0006460 0.0002229 -0.0003601 0.0008573 0.0003803 -0.0000328 -0.0312141 0.0226697 -0.0000281 -0.0001906 0.0003079 -0.0005252 0.0000454 -0.0002282 -0.0023218 0.0022761 0.0000128 -0.0000855 0.0000040 0.0001216 0.0001404 0.0003830 -0.0001565 0.0004351 0.0013748 -0.0008754 -0.0003553 0.0000674 0.0003359 -0.0003526 -0.0000053 -0.0000705 0.0007101 -0.0019204 0.0022513 -0.0020173 0.0036238 -0.0036543 0.0004148 -0.0005365 -0.0000048 -0.0002499 0.0002614 -0.0003182 0.0002096 -0.0004233 -0.0000391 -0.0000014 0.0000493 -0.0001821 -0.0022242 0.0010167 -0.0065288 0.0136961 0.0000368 -0.0004070 -0.0003718 0.0003232 -0.0000531 -0.0001897 -0.0000976 -0.0001519 -0.0000040 -0.0002783 0.0000535 -0.0005120 0.0000746 -0.0007660
-0.0000532 -0.0001828 -0.0000180 -0.0001985 -0.0000389 -0.0001649 -0.0000373 -0.0000532 -0.0000321 -0.0000572 -0.0000534 -0.0003857 -0.0000615 -0.0002512 -0.0000136 -0.0003221 -0.0000298 -0.0004712 0.0000823 -0.0000935 -0.0000528 -0.0000698 -0.0000238 -0.0000615 -0.0000191 0.0000456 -0.0000034 -0.0002178 -0.0000100 -0.0002367 0.0000361 -0.0000656 -0.0000431 -0.0003328 0.0001314 -0.0004924 -0.0000323 -0.0004691 -0.0003303 -0.0001534 -0.0000156 -0.0000944 0.0000590 -0.0003279 0.0001256 -0.0001730 0.0000157 -0.0001666 0.0001696 -0.0000583 -0.0000373 0.0001439 -0.0000166 0.0002025 -0.0000676 0.0001501 -0.0000993 0.0003189 -0.0000288 0.0000935 -0.0000916 0.0003549 -0.0003006 0.0005761 -0.0000194 0.0002458 -0.0000621 0.0001379 0.0002399 0.0002588 0.0007954 0.0003527 0.0003653 -0.0056666 -0.0064348 0.0085665 0.0002022 -0.0001650 0.0000609 0.0001595 0.0034914 -0.0036776 0.0026753 -0.0011212 -0.0000056 0.0000191 0.0024594 -0.0013367 -0.0003509 0.0004267 0.0000905 -0.0000126 0.0075218 -0.0076503 0.0019521 0.0019851 0.0002461 0.0001921 -0.0003738 0.0003631 -0.0005212 0.0002387 -0.0002837 0.0000172 -0.0000042 -0.0000776 -0.0020295 0.0050394 0.0132184 -0.0244117 -0.0000083 0.0001514 -0.0005087 0.0006381 0.0004937 0.0000780 -0.0000610 0.0003239 -0.0000626 0.0002637 -0.0000769 0.0002686 -0.0017641 0.0017367 -0.0014292 0.0005329 0.0001355 0.0000863 -0.0000311 0.0002135 -0.0000343 -0.0001368 0.0076486 -0.0096745 0.0000873 0.0001938 -0.0010540 0.0003685 -0.0007903 0.0013854 0.0001065 0.0000508 0.0003101 -0.0002085 0.0000210 0.0001491 -0.0002542 0.0001519 0.0007460 0.0006675 -0.0000874 0.0008847 0.0000188 0.0003818 0.0005069 0.0056228 -0.0000117 -0.0001968 0.0000543 -0.0004448 0.0001013 -0.0001835 -0.0013043 0.0013154 -0.0001420 0.0000453 0.0000635 0.0001821 -0.0000385 0.0005981 -0.0000821 0.0004440 -0.0036535 0.0031436 -0.0003716 0.0002094 -0.0002878 -0.0001211 -0.0001451 0.0001622 -0.0000989 -0.0013861 0.0018549 -0.0005449 0.0052490 -0.0088414 0.0007357 -0.0008099 -0.0000174 -0.0001840 0.0000482 -0.0001597 -0.0007656 -0.0025790 0.0003088 -0.0003173 0.0000197 -0.0000963 -0.0015796 0.0003818 0.0017388 0.0009287 0.0001168 -0.0004398 0.0016731 -0.0022036 -0.0000395 -0.0001958 -0.0001635 -0.0000179 0.0000252 -0.0002863 0.0000447 -0.0004503 0.0000047 -0.0005866
-0.0000630 -0.0001675 -0.0000189 -0.0001853 -0.0000113 -0.0001617 -0.0000355 -0.0000825 -0.0000375 -0.0000821 -0.0000407 -0.0004924 -0.0000564 -0.0003606 -0.0000007 -0.0003974 -0.0000410 -0.0005969 0.0000891 -0.0001869 -0.0000090 -0.0001597 -0.0000375 -0.0001136 0.0000193 -0.0001091 -0.0000075 -0.0003278 -0.0000360 -0.0003174 0.0000331 -0.0001266 -0.0000728 -0.0003941 0.0000337 -0.0004477 -0.0000265 -0.0005946 -0.0002860 -0.0002355 0.0000131 -0.0002098 0.0000235 -0.0003440 -0.0001323 -0.0002099 0.0000217 -0.0002620 0.0003317 -0.0003269 0.0000029 0.0000807 -0.0000233 0.0001855 -0.0000964 0.0001353 -0.0001224 0.0003281 -0.0000175 -0.0000274 -0.0001163 0.0002803 -0.0000639 0.0001579 -0.0000751 0.0002003 0.0001363 0.0000107 0.0016042 -0.0010322 0.0008824 0.0004464 -0.0160039 0.0077699 -0.0105733 0.0032798 0.0003611 -0.0002624 0.0000147 -0.0000153 -0.0002441 -0.0023052 0.0020636 -0.0015588 0.0000309 -0.0002256 0.0013858 -0.0012457 0.0000799 0.0004556 -0.0000319 -0.0001533 0.0079308 -0.0065357 -0.0002269 0.0027280 0.0003784 -0.0000405 -0.0014609 0.0017546 -0.0001123 0.0001999 -0.0001314 -0.0001402 -0.0001088 -0.0002294 -0.0028380 0.0052278 0.0187331 -0.0346615 -0.0002760 0.0002625 0.0000439 0.0001492 -0.0001326 0.0006223 -0.0000860 0.0001996 -0.0000132 0.0000661 -0.0001504 0.0002390 -0.0011051 0.0006324 -0.0025008 0.0005290 -0.0003809 0.0002159 -0.0000108 -0.0001464 -0.0000694 -0.0002301 -0.0024026 0.0089748 0.0001586 -0.0001480 -0.0033290 0.0036484 -0.0005339 0.0008666 0.0001852 -0.0003054 0.0001188 -0.0002889 -0.0000436 -0.0000700 -0.0001911 -0.0000596 -0.0003290 0.0012697 -0.0000605 0.0005124 -0.0000837 0.0003999 0.0135241 -0.0133907 -0.0000005 -0.0003473 -0.0003710 -0.0001807 0.0000813 -0.0003184 -0.0000177 0.0001587 -0.0002215 0.0001908 0.0001577 -0.0000542 0.0002456 0.0002049 -0.0001680 0.0004771 -0.0027927 0.0022714 -0.0005318 0.0003177 -0.0003852 0.0000303 -0.0000090 0.0000428 0.0009995 -0.0011850 0.0006234 0.0012194 0.0052656 -0.0058978 0.0002160 -0.0001175 0.0000005 -0.0002454 0.0000940 -0.0000987 -0.0261403 0.0127898 0.0006009 -0.0008853 0.0000457 -0.0001070 0.0005009 -0.0001787 0.0073694 -0.0127605 0.0000068 -0.0002751 0.0005352 -0.0005642 0.0000499 -0.0003019 -0.0000011 -0.0001023 0.0000501 -0.0001258 0.0000126 -0.0002159 -0.0001980 -0.0000959
-0.0000309 -0.0000728 -0.0000368 -0.0000041 -0.0000002 -0.0000280 -0.0000347 -0.0000774 -0.0000318 -0.0000752 -0.0000870 -0.0004761 -0.0000298 -0.0003919 -0.0000024 -0.0004092 -0.0000522 -0.0006278 -0.0000099 -0.0000072 0.0001426 -0.0002410 -0.0000126 0.0000250 0.0000030 0.0000699 -0.0000120 -0.0003352 -0.0000640 -0.0003122 0.0000276 -0.0001197 -0.0001165 -0.0003172 -0.0000083 -0.0003544 -0.0000233 -0.0006215 -0.0003326 -0.0003019 0.0000155 -0.0001124 0.0000051 -0.0002422 -0.0002226 0.0000549 0.0000217 -0.0002631 0.0001296 -0.0002664 -0.0000247 0.0000456 -0.0000357 0.0001694 -0.0001031 0.0001471 -0.0001231 0.0003593 0.0000077 -0.0000871 -0.0001663 0.0002782 -0.0000509 0.0001673 -0.0000099 0.0000588 0.0001910 -0.0000468 0.0001462 0.0005998 0.0001262 0.0009873 -0.0078358 0.0057373 -0.0066633 -0.0006517 0.0002077 -0.0002050 0.0000417 -0.0001438 -0.0012390 0.0003816 0.0006869 -0.0011222 -0.0000173 -0.0003130 0.0009439 -0.0009466 0.0004613 -0.0004534 0.0000197 -0.0003856 0.0023445 0.0001325 0.0036989 -0.0014690 -0.0000227 0.0002422 -0.0010787 0.0012988 0.0001573 -0.0000912 -0.0002778 -0.0000920 -0.0001666 -0.0003980 -0.0025161 0.0014239 0.0124982 -0.0160230 -0.0001602 -0.0000154 -0.0000442 0.0001943 -0.0009855 0.0017866 -0.0000780 0.0001130 0.0000359 -0.0001554 -0.0000164 0.0000458 0.0004529 -0.0015704 -0.0005647 -0.0006771 -0.0000301 -0.0001504 -0.0000283 -0.0002762 -0.0002223 -0.0001334 -0.0045471 0.0078538 0.0000578 -0.0002511 0.0004567 0.0003302 -0.0003907 0.0005533 0.0001073 -0.0003877 -0.0003280 -0.0000201 0.0000769 -0.0003441 -0.0000387 -0.0002334 -0.0001048 0.0014159 0.0001041 -0.0000566 -0.0000053 0.0002946 0.0047278 -0.0141744 -0.0000015 -0.0004738 -0.0000842 -0.0005045 0.0000505 -0.0005165 0.0003089 -0.0005796 -0.0001124 -0.0000425 0.0000398 -0.0001439 0.0004874 -0.0001077 -0.0002261 0.0004091 -0.0015897 0.0000392 -0.0002400 -0.0001872 0.0000434 -0.0002838 0.0000079 -0.0001996 0.0016480 -0.0010852 0.0006922 -0.0002662 -0.0032859 0.0043673 -0.0001559 0.0000479 -0.0000228 -0.0004430 -0.0001514 -0.0001714 -0.0058611 0.0004036 0.0002796 -0.0007187 0.0001078 -0.0004043 0.0012524 -0.0010759 -0.0166582 0.0160113 0.0000919 -0.0006584 -0.0003580 -0.0002757 0.0000653 -0.0005030 0.0001101 -0.0003845 0.0000131 -0.0003317 0.0000239 -0.0004228 -0.0002520 -0.0001365
-0.0000190 -0.0002054 -0.0000250 -0.0001611 0.0000062 -0.0001802 -0.0000418 -0.0001283 -0.0000261 -0.0001142 -0.0000465 -0.0007253 -0.0000288 -0.0004788 0.0000016 -0.0004890 -0.0000196 -0.0007844 -0.0000605 0.0000690 0.0000177 -0.0001022 0.0000203 0.0000324 -0.0000352 0.0001520 -0.0000368 -0.0004611 -0.0000662 -0.0003486 0.0000176 -0.0002419 -0.0000870 -0.0003758 0.0000437 -0.0004250 0.0000078 -0.0005451 -0.0006047 -0.0000041 -0.0000053 -0.0000206 -0.0000609 -0.0001527 -0.0002714 0.0004688 0.0000152 -0.0003632 0.0000605 -0.0002923 -0.0000857 0.0000862 -0.0000601 0.0001668 -0.0001222 0.0003240 -0.0001238 0.0004914 -0.0000008 0.0000241 -0.0001867 0.0004263 0.0000826 -0.0000646 -0.0000127 0.0001387 0.0001806 -0.0001083 -0.0027689 0.0029557 0.0005612 0.0003087 -0.0053522 0.0038974 -0.0022168 0.0048438 -0.0001331 -0.0000820 -0.0000639 0.0001281 -0.0000483 0.0032696 -0.0001982 -0.0005604 -0.0000723 -0.0002562 -0.0003852 -0.0004373 -0.0001424 -0.0006666 0.0000882 -0.0004444 -0.0027659 0.0036416 0.0011083 -0.0045098 -0.0002739 0.0005365 -0.0011514 0.0017847 0.0001186 -0.0004629 -0.0000170 -0.0003352 -0.0001778 -0.0004056 0.0081126 -0.0131201 0.0049614 -0.0152925 0.0001781 -0.0002629 0.0001815 0.0000935 -0.0004805 0.0009077 -0.0000767 0.0000792 0.0000816 -0.0004071 0.0000797 -0.0000674 0.0008311 -0.0023208 0.0039334 -0.0069538 -0.0002418 -0.0000901 -0.0000554 -0.0000862 -0.0001109 -0.0001898 0.0080049 -0.0024996 -0.0000048 -0.0003418 0.0017014 -0.0027848 0.0002410 -0.0003606 0.0001215 -0.0004721 -0.0001784 -0.0002614 0.0001183 -0.0004750 0.0000427 -0.0004121 -0.0000002 0.0012057 -0.0000343 0.0000088 0.0000708 0.0001011 -0.0012639 0.0020483 0.0000029 -0.0006043 -0.0000550 -0.0004994 0.0001031 -0.0007225 0.0017710 -0.0023676 -0.0000029 -0.0003536 -0.0000910 -0.0001197 0.0005859 -0.0000416 -0.0001103 0.0001641 -0.0010898 -0.0019281 -0.0001029 -0.0004808 0.0000227 -0.0005865 -0.0000412 -0.0003159 -0.0004666 0.0001986 -0.0015491 0.0013199 -0.0131779 0.0147844 -0.0006792 0.0001233 0.0000073 -0.0006176 -0.0001020 -0.0006282 0.0001217 0.0028336 0.0001388 -0.0005673 0.0000903 -0.0005599 0.0008002 -0.0014715 -0.0111902 0.0010079 0.0001040 -0.0007607 0.0002235 -0.0021207 0.0000839 -0.0006534 0.0001377 -0.0005392 0.0000635 -0.0006087 0.0000943 -0.0007766 -0.0001249 -0.0005205
-0.0000403 -0.0003782 -0.0000173 -0.0004163 0.0000207 -0.0004440 -0.0000328 -0.0002441 -0.0000300 -0.0001971 -0.0000180 -0.0009950 -0.0000495 -0.0006478 0.0000476 -0.0005824 -0.0000102 -0.0009844 0.0000343 -0.0001864 -0.0001518 -0.0001147 0.0000099 -0.0001761 0.0000293 -0.0001021 -0.0000904 -0.0007590 -0.0000324 -0.0004822 0.0000170 -0.0006207 -0.0001525 -0.0005402 -0.0000685 -0.0005821 0.0000625 -0.0005673 -0.0002672 -0.0002435 0.0000020 -0.0002137 -0.0000514 -0.0003130 -0.0000864 0.0000069 0.0000195 -0.0005852 0.0001617 -0.0003571 -0.0001187 0.0000485 -0.0000806 0.0001245 -0.0001225 0.0004548 -0.0001519 0.0005923 -0.0000038 0.0000393 -0.0001762 0.0004799 0.0001965 -0.0005075 -0.0000477 0.0001311 -0.0000074 -0.0000708 -0.0000826 -0.0000996 0.0009571 0.0001388 -0.0252450 0.0224764 0.0038689 0.0009351 -0.0000482 -0.0001451 -0.0001387 0.0003345 -0.0020254 0.0040888 -0.0005771 -0.0004178 -0.0000573 -0.0002441 -0.0009632 -0.0001183 -0.0003060 -0.0000385 -0.0000536 -0.0003065 -0.0023415 -0.0000390 -0.0041007 -0.0015399 0.0000764 0.0002711 -0.0024910 0.0028607 -0.0000061 -0.0006878 0.0002310 -0.0006572 -0.0000462 -0.0004637 0.0085002 -0.0117242 0.0094179 -0.0195105 0.0000133 -0.0000561 -0.0000791 0.0004138 -0.0001175 -0.0004316 -0.0000979 0.0002438 0.0001539 -0.0003140 0.0000341 0.0000517 0.0011954 -0.0010258 0.0039925 -0.0050387 0.0001814 -0.0003268 -0.0001001 0.0000957 -0.0000329 -0.0001865 0.0027763 0.0083061 0.0001234 -0.0002564 -0.0037844 0.0023574 0.0001708 -0.0001781 0.0001734 -0.0004119 0.0000042 -0.0003947 0.0001868 -0.0003073 -0.0000391 -0.0004364 -0.0009947 0.0018061 -0.0000790 0.0005703 -0.0000075 0.0000982 0.0022147 -0.0024826 0.0000461 -0.0006515 -0.0003728 -0.0002476 0.0001349 -0.0006382 0.0004733 -0.0014252 -0.0000283 -0.0004265 0.0000774 -0.0001895 0.0000633 0.0003097 -0.0000426 0.0001056 -0.0010444 -0.0014341 -0.0005825 0.0000441 -0.0007731 0.0002275 0.0000772 -0.0004907 0.0003802 -0.0014514 -0.0016778 0.0013219 -0.0029960 0.0079075 -0.0008629 -0.0000898 0.0000656 -0.0007382 0.0001152 -0.0009820 -0.0066967 0.0055049 -0.0001521 -0.0005231 0.0000538 -0.0006577 -0.0001050 -0.0009558 -0.0035065 -0.0000141 0.0000804 -0.0007971 0.0009584 -0.0022249 0.0000823 -0.0007032 0.0001032 -0.0006310 0.0001241 -0.0008684 0.0001278 -0.0009637 -0.0001226 -0.0007235
-0.0000164 -0.0005162 -0.0000390 -0.0005628 0.0000295 -0.0005947 -0.0000491 -0.0003290 -0.0000368 -0.0002928 -0.0000753 -0.0010938 -0.0000427 -0.0007748 0.0000871 -0.0005610 -0.0000110 -0.0011257 0.0000864 -0.0003578 -0.0000140 -0.0003965 0.0000373 -0.0003638 0.0001317 -0.0003380 -0.0001307 -0.0009542 0.0000044 -0.0005654 0.0000244 -0.0009406 0.0000218 -0.0008066 -0.0000572 -0.0007737 0.0000726 -0.0006779 0.0002595 -0.0006729 0.0000231 -0.0003724 -0.0000066 -0.0004329 -0.0001543 -0.0003160 0.0000173 -0.0006367 -0.0000169 -0.0002262 -0.0000816 -0.0000714 -0.0000956 0.0000620 -0.0001144 0.0003771 -0.0001548 0.0005248 0.0000088 -0.0001202 -0.0001716 0.0003533 -0.0001056 -0.0002763 -0.0000228 -0.0001021 -0.0000403 -0.0001775 0.0019145 -0.0014759 0.0002751 0.0006114 -0.0222351 0.0245701 0.0021247 0.0079434 -0.0002923 0.0000555 0.0000327 -0.0000909 -0.0023847 0.0008189 -0.0002952 -0.0012761 -0.0000646 -0.0003960 -0.0010096 0.0012571 -0.0006228 0.0002271 0.0000312 -0.0006428 -0.0020801 -0.0001831 -0.0101564 0.0095147 -0.0000014 0.0001889 -0.0015590 0.0014026 -0.0005327 -0.0001942 0.0000327 -0.0007103 -0.0000530 -0.0005615 0.0037224 -0.0066772 0.0070587 -0.0116608 -0.0002792 -0.0000190 -0.0004738 0.0007441 -0.0010068 0.0008393 -0.0000735 0.0002568 0.0001508 -0.0002365 0.0000044 0.0001062 0.0001635 0.0006484 -0.0030282 0.0043203 0.0001960 0.0002864 -0.0000777 -0.0000058 -0.0001088 -0.0001327 -0.0037343 0.0114218 0.0001311 -0.0001572 -0.0006410 0.0000331 0.0000101 0.0001494 0.0001563 -0.0003166 0.0000673 -0.0002957 0.0003607 -0.0003883 -0.0001229 -0.0003203 -0.0007402 0.0009363 0.0002590 0.0003028 -0.0000707 0.0002030 -0.0080407 0.0004433 0.0000654 -0.0006008 -0.0001351 -0.0004942 0.0001282 -0.0004874 -0.0002890 -0.0008534 0.0000646 -0.0004645 0.0000480 -0.0001153 -0.0005086 0.0004826 -0.0000629 0.0002837 0.0004747 -0.0022947 -0.0009474 0.0006297 -0.0003895 0.0001223 0.0000629 -0.0003584 0.0015746 -0.0016727 0.0000562 0.0004614 0.0051857 -0.0053281 -0.0001041 -0.0006512 0.0000377 -0.0006053 0.0000445 -0.0006347 0.0007790 -0.0078376 -0.0003303 -0.0004488 0.0000704 -0.0005242 -0.0010147 -0.0001832 -0.0023020 0.0041468 0.0000913 -0.0007461 0.0013894 -0.0025683 0.0000463 -0.0005250 0.0000779 -0.0005301 0.0000882 -0.0005823 0.0001252 -0.0005968 0.0001044 -0.0006122
0.0000082 -0.0002764 -0.0000270 -0.0003709 0.0000388 -0.0003563 -0.0000852 -0.0003169 -0.0000652 -0.0003263 -0.0001478 -0.0011350 -0.0000528 -0.0007599 0.0001181 -0.0003543 -0.0000219 -0.0011713 0.0000487 -0.0002997 -0.0000037 -0.0003906 0.0000404 -0.0003390 0.0001101 -0.0002977 -0.0001591 -0.0010564 0.0000047 -0.0005268 0.0000352 -0.0009468 0.0002060 -0.0009337 0.0000003 -0.0007929 0.0000587 -0.0007803 0.0006227 -0.0016417 0.0000280 -0.0004333 0.0000155 -0.0004810 0.0002216 -0.0008662 -0.0000261 -0.0006325 -0.0000724 -0.0002778 -0.0000756 -0.0001446 -0.0001017 0.0000301 -0.0000903 0.0003874 -0.0001592 0.0004753 -0.0000122 -0.0001817 -0.0001926 0.0003304 -0.0000173 -0.0004990 -0.0000498 -0.0002029 0.0002740 -0.0003954 0.0005885 -0.0009505 -0.0005594 0.0010700 -0.0030254 0.0079175 -0.0053639 0.0103278 -0.0006153 -0.0000769 0.0000032 -0.0001910 0.0008495 -0.0013556 -0.0004504 -0.0010157 -0.0000245 -0.0005671 0.0005202 0.0001525 -0.0001391 -0.0007050 0.0001341 -0.0009956 0.0026618 -0.0022963 -0.0045323 0.0038779 -0.0003720 0.0003294 -0.0012671 0.0006032 -0.0001482 -0.0004194 0.0000948 -0.0008001 0.0000032 -0.0007329 -0.0068574 -0.0015526 -0.0040618 -0.0103454 0.0000347 -0.0003881 -0.0005581 0.0006991 0.0000119 0.0004000 -0.0000522 0.0001185 0.0001287 -0.0004153 0.0000086 -0.0000517 -0.0022312 0.0016958 -0.0055355 0.0062178 -0.0010758 0.0009489 -0.0000159 -0.0002434 -0.0002034 -0.0001346 -0.0022517 0.0037575 -0.0000988 -0.0001957 -0.0030757 0.0026664 0.0001375 -0.0001822 0.0001664 -0.0005081 0.0000281 -0.0004519 0.0001404 -0.0006463 0.0000027 -0.0006106 -0.0006894 0.0001764 0.0001472 -0.0000347 -0.0000389 -0.0000462 0.0097426 -0.0293939 0.0000337 -0.0006367 -0.0003466 -0.0004140 0.0000128 -0.0005100 0.0011997 -0.0015027 0.0002425 -0.0008938 -0.0001272 -0.0001533 -0.0002640 -0.0000077 -0.0000938 0.0002129 -0.0001122 0.0005179 -0.0010032 0.0006747 -0.0004880 0.0000646 0.0000522 -0.0003531 -0.0018775 0.0016530 0.0016432 -0.0012326 0.0063819 -0.0116628 0.0003199 -0.0009343 0.0000360 -0.0005150 -0.0000563 -0.0003863 0.0063939 -0.0136901 -0.0001636 -0.0003893 0.0001164 -0.0004793 -0.0002670 -0.0000983 0.0005392 -0.0070677 0.0000213 -0.0005528 0.0008471 -0.0015772 0.0001034 -0.0004656 0.0001140 -0.0003727 0.0000847 -0.0003317 0.0001459 -0.0003297 0.0001953 -0.0003642
-0.0000053 -0.0000515 -0.0000210 -0.0001838 0.0000239 -0.0001512 -0.0000725 -0.0002643 -0.0000863 -0.0002748 -0.0001520 -0.0011046 -0.0000557 -0.0007201 0.0001414 -0.0001466 -0.0000294 -0.0011045 0.0000597 -0.0001812 -0.0001020 -0.0002496 0.0000213 -0.0001306 -0.0000042 -0.0000305 -0.0002339 -0.0010780 -0.0000210 -0.0003997 -0.0000028 -0.0009426 0.0000925 -0.0006784 -0.0000341 -0.0005502 0.0000720 -0.0006211 0.0003310 -0.0015287 0.0000158 -0.0002462 -0.0000039 -0.0002973 0.0004374 -0.0008031 -0.0000327 -0.0005944 0.0001446 -0.0002986 -0.0000818 -0.0000865 -0.0001112 0.0000529 -0.0000616 0.0006137 -0.0001944 0.0006480 -0.0000501 0.0000244 -0.0002125 0.0005566 0.0004185 -0.0008361 0.0000329 -0.0001110 0.0002152 -0.0002282 0.0009255 -0.0023998 -0.0004196 0.0011034 0.0039924 -0.0017312 -0.0161475 0.0175454 -0.0000523 -0.0002259 -0.0001324 0.0000740 -0.0002419 -0.0001341 -0.0008724 0.0002210 -0.0000406 -0.0004561 -0.0006594 0.0003842 0.0001799 -0.0008200 0.0001374 -0.0008716 0.0055342 -0.0068759 0.0025195 -0.0067858 -0.0001048 0.0002185 -0.0003961 -0.0000712 -0.0000198 -0.0002249 0.0001040 -0.0005929 0.0000779 -0.0006729 0.0043041 -0.0153531 0.0020724 0.0001745 0.0002457 -0.0004177 -0.0006522 0.0008659 0.0006505 -0.0005644 -0.0000861 0.0001479 0.0000058 -0.0002916 0.0000014 -0.0001732 -0.0015060 0.0010365 -0.0035652 0.0024012 -0.0010857 0.0004094 -0.0000330 -0.0002348 -0.0001678 -0.0001338 -0.0065438 0.0066572 0.0000070 -0.0002954 -0.0057002 0.0046644 0.0000109 0.0000259 0.0001021 -0.0005657 -0.0001498 -0.0003130 -0.0000840 -0.0005427 0.0001287 -0.0007770 -0.0010767 0.0007866 0.0002934 -0.0003363 -0.0002590 0.0000253 0.0097755 -0.0359723 0.0000171 -0.0006478 -0.0003661 -0.0004313 -0.0000351 -0.0005570 0.0009879 -0.0010442 0.0003246 -0.0009509 0.0000133 -0.0003690 0.0000115 0.0001206 -0.0000532 0.0000298 -0.0014357 0.0013635 -0.0007659 0.0005432 -0.0007612 0.0000280 0.0000434 -0.0004732 -0.0010894 -0.0004453 0.0023108 -0.0024463 0.0057332 -0.0055556 0.0003154 -0.0011250 0.0000598 -0.0005057 0.0000809 -0.0005421 -0.0044370 0.0026249 0.0000067 -0.0004431 0.0001223 -0.0006339 0.0000049 0.0000625 0.0004589 -0.0026412 0.0000360 -0.0006534 0.0000515 -0.0005533 0.0001320 -0.0005083 0.0001170 -0.0003887 0.0001052 -0.0006312 0.0001083 -0.0005767 0.0000816 -0.0004050
-0.0000362 -0.0002045 -0.0000091 -0.0004045 0.0000074 -0.0003371 -0.0000269 -0.0002460 -0.0000584 -0.0002652 -0.0000666 -0.0010563 -0.0000574 -0.0007086 0.0001447 -0.0001122 -0.0000203 -0.0010218 0.0000376 -0.0001818 0.0000729 -0.0004244 0.0000231 -0.0001343 0.0000256 -0.0001166 -0.0003072 -0.0011303 -0.0000556 -0.0004019 -0.0000895 -0.0012373 -0.0000059 -0.0006024 0.0000171 -0.0005237 0.0001262 -0.0003507 -0.0001403 -0.0006882 0.0000249 -0.0001744 0.0000236 -0.0001888 -0.0000602 -0.0002570 -0.0000004 -0.0005467 0.0000356 -0.0000139 -0.0000964 0.0000095 -0.0001175 0.0000674 -0.0000696 0.0007107 -0.0002146 0.0007888 -0.0000518 0.0001634 -0.0002137 0.0006801 0.0006700 -0.0006932 0.0000367 -0.0000209 0.0000081 0.0000242 0.0007429 -0.0020656 0.0002467 0.0004474 0.0110794 -0.0072766 -0.0014511 0.0114349 0.0003822 -0.0001517 -0.0002057 0.0003354 -0.0028582 0.0014300 0.0004403 0.0000492 -0.0000777 -0.0001960 -0.0022533 0.0011902 -0.0001524 -0.0002640 0.0000803 -0.0004861 0.0015592 -0.0037016 -0.0011515 -0.0004351 -0.0002065 0.0005098 0.0003830 -0.0002438 -0.0003535 0.0005561 0.0002462 -0.0006234 0.0001669 -0.0006540 0.0040031 -0.0022758 0.0010259 0.0127678 0.0000180 0.0000279 -0.0001824 0.0005320 0.0004182 -0.0003070 -0.0001222 0.0003380 -0.0003626 0.0001295 0.0000217 -0.0000693 -0.0012424 0.0006441 0.0005824 -0.0024416 -0.0014170 0.0013185 -0.0002896 0.0002087 -0.0000429 -0.0000616 0.0056551 -0.0001317 0.0001725 -0.0001467 -0.0041871 0.0031756 0.0003163 -0.0003415 0.0000555 -0.0002672 0.0000029 -0.0003069 -0.0001149 -0.0003338 0.0001134 -0.0005582 0.0002541 -0.0003151 0.0005423 -0.0002589 -0.0003647 0.0004220 0.0062962 -0.0087098 -0.0000209 -0.0004964 0.0001166 -0.0005576 0.0000671 -0.0004616 0.0009076 -0.0013038 0.0002312 -0.0005220 0.0002067 -0.0004262 0.0001846 0.0003288 -0.0000078 0.0001241 0.0009047 -0.0012246 0.0002905 -0.0007905 -0.0001166 -0.0005658 0.0000616 -0.0004792 -0.0001004 -0.0012837 0.0013700 -0.0012736 0.0039375 -0.0021705 0.0000466 -0.0008896 0.0000693 -0.0004018 0.0003970 -0.0008724 0.0033851 -0.0009523 0.0002662 -0.0006492 0.0001254 -0.0006427 -0.0000461 -0.0001402 0.0087860 -0.0035373 0.0000697 -0.0006074 0.0005160 -0.0006511 0.0001280 -0.0003865 0.0001230 -0.0003724 0.0001719 -0.0007902 0.0001267 -0.0007245 0.0001106 -0.0004126
-0.0000378 -0.0002801 0.0000025 -0.0005092 0.0000043 -0.0004150 -0.0000635 -0.0001249 -0.0000543 -0.0002526 -0.0000446 -0.0009721 -0.0000465 -0.0006671 0.0001427 -0.0000503 -0.0000290 -0.0009258 0.0000340 -0.0002868 0.0001043 -0.0004910 -0.0000110 -0.0002442 0.0000842 -0.0002860 -0.0003354 -0.0011784 -0.0000764 -0.0004481 -0.0001455 -0.0014579 0.0000109 -0.0006194 -0.0000103 -0.0005339 0.0001550 -0.0002597 0.0000520 -0.0006757 0.0000167 -0.0002949 0.0000240 -0.0002856 0.0001248 -0.0004229 0.0000021 -0.0005280 0.0001971 -0.0000954 -0.0001173 0.0000465 -0.0001107 0.0000446 -0.0001420 0.0006471 -0.0002215 0.0007228 -0.0000733 0.0000956 -0.0002470 0.0005910 0.0004749 -0.0005718 -0.0001088 0.0000058 -0.0000372 -0.0001254 -0.0008378 0.0001623 0.0002609 0.0003643 0.0088205 -0.0045326 0.0030619 -0.0035026 -0.0000238 -0.0001055 -0.0001477 0.0002031 -0.0044030 0.0036207 0.0010248 -0.0000617 -0.0001071 -0.0001245 0.0017525 -0.0008121 0.0007062 -0.0008799 0.0000779 -0.0004527 -0.0083242 0.0060070 0.0054050 -0.0034175 -0.0003784 0.0005981 -0.0007446 0.0004004 -0.0003641 0.0002500 0.0001864 -0.0004694 0.0000707 -0.0005070 -0.0044737 0.0061562 -0.0068839 0.0162739 0.0002534 -0.0001377 -0.0003528 0.0006641 0.0000650 0.0003268 -0.0001882 0.0004959 -0.0004227 0.0003889 0.0000271 0.0000555 -0.0005052 0.0004957 0.0027547 -0.0032835 -0.0017932 0.0016714 -0.0002890 0.0003335 -0.0000841 0.0000462 0.0074639 -0.0045136 0.0002200 -0.0000100 -0.0034624 0.0035651 0.0002957 -0.0003343 0.0000505 -0.0000787 -0.0001465 -0.0001512 0.0000438 -0.0003815 -0.0001475 -0.0003259 0.0002096 0.0002081 -0.0000463 0.0006622 -0.0002460 0.0005504 0.0122366 -0.0094089 -0.0000171 -0.0003490 -0.0000692 -0.0001613 0.0001057 -0.0002311 0.0002051 -0.0007073 -0.0000891 -0.0000316 0.0001209 -0.0001422 -0.0000668 0.0005998 -0.0000249 0.0002522 0.0039478 -0.0029958 0.0007776 -0.0012188 -0.0000240 -0.0002721 0.0001466 -0.0004435 -0.0035677 0.0041749 0.0017412 -0.0019501 0.0009149 0.0017205 -0.0000156 -0.0003669 0.0000645 -0.0001468 0.0005177 -0.0008014 0.0058692 -0.0063476 0.0002249 -0.0005842 0.0000642 -0.0003666 -0.0004231 -0.0000673 0.0036791 0.0022008 0.0000674 -0.0002998 0.0006449 -0.0001080 0.0000962 -0.0001338 0.0001527 -0.0001051 0.0001333 -0.0003697 0.0001025 -0.0001948 0.0000720 0.0002323
-0.0000121 0.0000142 -0.0000039 -0.0001552 -0.0000000 -0.0000562 -0.0000864 0.0000832 -0.0000752 -0.0001190 -0.0000717 -0.0006701 -0.0000569 -0.0004649 0.0001235 0.0001684 -0.0000230 -0.0006753 0.0000033 -0.0001485 0.0000502 -0.0002617 -0.0000235 -0.0001341 -0.0000567 -0.0000086 -0.0003397 -0.0010879 -0.0000966 -0.0003656 -0.0001633 -0.0014029 -0.0000072 -0.0004011 -0.0000978 -0.0004276 0.0001378 -0.0001597 -0.0007312 0.0002215 0.0000147 -0.0003012 -0.0000441 -0.0001987 0.0000843 -0.0002717 0.0000124 -0.0004436 0.0002950 -0.0001698 -0.0001000 0.0000869 -0.0001021 0.0000676 -0.0001601 0.0005827 -0.0002446 0.0007059 -0.0001205 0.0000925 -0.0002858 0.0005578 0.0003850 -0.0006300 -0.0001442 0.0000023 -0.0000505 -0.0001106 0.0002712 -0.0000229 -0.0005702 0.0011005 -0.0211532 0.0215884 -0.0014766 -0.0051315 -0.0000468 -0.0003392 -0.0000548 0.0000103 -0.0059341 0.0049165 0.0012920 -0.0005590 -0.0001185 -0.0001762 0.0040989 -0.0032023 0.0002456 -0.0003837 0.0002809 -0.0007911 0.0006987 0.0000729 0.0035123 -0.0069480 -0.0002268 0.0003787 -0.0010569 -0.0002172 -0.0002047 -0.0003253 0.0000562 -0.0003234 0.0000614 -0.0003595 -0.0016346 -0.0026886 -0.0122400 0.0118383 0.0000299 -0.0000414 -0.0007147 0.0009934 -0.0007379 0.0008975 -0.0002413 0.0004489 -0.0003247 0.0002065 -0.0000926 0.0000991 -0.0002248 0.0011514 0.0005929 -0.0016270 -0.0002207 0.0003531 -0.0001283 0.0000803 -0.0000046 -0.0001582 0.0017657 -0.0035205 0.0002616 -0.0002279 -0.0008263 0.0008159 0.0002986 -0.0004988 0.0000362 -0.0002137 -0.0000604 -0.0003584 0.0002209 -0.0005642 -0.0000827 -0.0004041 -0.0017407 0.0022957 -0.0004325 0.0007221 -0.0001968 0.0003869 0.0094887 -0.0014429 -0.0000396 -0.0003182 -0.0000673 -0.0000279 0.0001083 -0.0002449 -0.0004158 0.0001431 -0.0000480 -0.0001196 0.0000430 -0.0001184 -0.0001300 0.0006503 0.0000488 0.0001505 0.0064851 -0.0069874 0.0000730 -0.0000446 0.0000802 -0.0004956 0.0000873 -0.0003409 -0.0012019 0.0024830 0.0015531 -0.0028262 -0.0064392 0.0066573 -0.0000024 -0.0002071 0.0000793 -0.0000001 0.0000547 -0.0003017 -0.0026457 0.0042168 0.0001119 -0.0004482 0.0000317 -0.0002192 -0.0007306 0.0004926 0.0041120 -0.0009941 -0.0000413 0.0000991 -0.0003019 -0.0002210 0.0000378 0.0000402 0.0000829 0.0001500 -0.0000729 0.0000772 0.0000710 0.0001052 0.0000039 0.0006097
-0.0000167 0.0002563 -0.0000168 0.0000874 0.0000023 0.0001648 -0.0000463 0.0001900 -0.0000887 -0.0000628 -0.0000956 -0.0003343 -0.0000929 -0.0002797 0.0000911 0.0003125 -0.0000423 -0.0003820 0.0000024 -0.0000035 -0.0000335 0.0000202 -0.0000080 0.0000333 -0.0000725 0.0002026 -0.0002856 -0.0008207 -0.0000955 -0.0002454 -0.0001051 -0.0009638 -0.0000005 -0.0002414 -0.0001282 -0.0001806 0.0000365 -0.0002433 -0.0015264 0.0012548 0.0000170 -0.0001275 0.0000035 -0.0000323 0.0001139 -0.0003816 0.0000014 -0.0002768 0.0002911 -0.0000114 -0.0001478 0.0002348 -0.0000901 0.0001396 -0.0001480 0.0006680 -0.0002667 0.0008428 -0.0001656 0.0003162 -0.0003006 0.0007230 0.0004617 -0.0007768 -0.0000656 0.0000581 0.0000890 0.0000015 -0.0001161 0.0007689 -0.0009203 0.0015628 -0.0388461 0.0329370 0.0088379 -0.0131843 0.0001085 -0.0003451 -0.0001087 0.0002672 0.0006467 0.0014513 0.0005303 -0.0002951 -0.0001048 -0.0000572 0.0004812 0.0002667 -0.0003682 0.0004495 0.0002225 -0.0006756 0.0033575 -0.0016001 -0.0033780 -0.0075664 -0.0000900 0.0004791 -0.0010996 0.0007403 -0.0001157 -0.0000645 0.0000657 -0.0003113 0.0000830 -0.0002215 -0.0056123 -0.0027628 -0.0066277 0.0067096 -0.0008822 0.0005757 -0.0012227 0.0013525 -0.0013569 0.0003915 -0.0002354 0.0003935 -0.0003384 0.0000507 -0.0001457 0.0000510 -0.0011722 0.0012511 0.0006148 -0.0018890 -0.0001590 0.0007210 -0.0001733 0.0001189 -0.0000963 -0.0001978 0.0048105 -0.0138104 0.0000960 -0.0002622 0.0002317 0.0009157 0.0002024 -0.0006404 0.0000085 -0.0002473 -0.0002622 -0.0002637 -0.0000457 -0.0002823 0.0000712 -0.0004518 -0.0029394 0.0027265 -0.0003822 0.0004923 -0.0001453 0.0002271 0.0038178 0.0074555 -0.0000204 -0.0004103 0.0002413 -0.0002309 0.0001279 -0.0003293 0.0012715 -0.0009185 0.0001452 -0.0003351 0.0000068 -0.0002067 0.0000638 0.0004188 0.0000090 0.0000303 0.0023449 -0.0045414 -0.0002608 0.0004391 -0.0000215 -0.0007784 0.0000009 -0.0003110 0.0010019 -0.0020404 0.0014732 -0.0012491 0.0024667 -0.0048657 0.0001461 -0.0003259 0.0001170 -0.0000264 0.0000480 -0.0006786 -0.0056961 0.0027769 -0.0004145 0.0000579 0.0000622 -0.0002806 0.0000381 0.0003875 0.0039620 0.0069649 0.0000406 0.0000292 -0.0003436 -0.0008598 0.0000672 0.0000364 -0.0000443 0.0001601 -0.0000878 -0.0000923 0.0000995 -0.0002540 0.0001092 0.0000369
-0.0000210 0.0000323 -0.0000540 -0.0001619 0.0000199 -0.0000903 -0.0000359 0.0001521 -0.0000909 -0.0001738 -0.0001312 -0.0003008 -0.0000903 -0.0003705 0.0000860 0.0002593 -0.0000542 -0.0004001 0.0000854 -0.0001428 -0.0000123 -0.0000725 -0.0000104 -0.0000322 0.0000293 0.0000063 -0.0002576 -0.0007942 -0.0000923 -0.0002289 -0.0000873 -0.0008517 0.0000194 -0.0001343 -0.0001071 -0.0000144 0.0000271 -0.0002025 -0.0002274 0.0002347 -0.0000130 -0.0000045 0.0000773 -0.0000352 0.0004304 -0.0005626 0.0000736 -0.0001789 0.0001946 0.0001622 -0.0001737 0.0003061 -0.0000809 0.0001744 -0.0001943 0.0007555 -0.0002714 0.0008812 -0.0001794 0.0004340 -0.0003368 0.0008664 0.0002884 -0.0005730 -0.0000553 0.0001569 -0.0000046 0.0000577 -0.0001297 0.0013596 -0.0007181 0.0013867 -0.0099249 0.0122013 0.0041401 -0.0092193 -0.0002668 0.0002549 0.0000994 0.0001461 0.0022702 0.0016249 -0.0019003 0.0017392 -0.0000552 0.0001263 -0.0005647 0.0014519 0.0005777 -0.0004391 0.0000818 -0.0002351 -0.0036375 0.0039175 -0.0017236 -0.0028593 0.0000600 0.0004334 -0.0011191 0.0019997 -0.0004707 0.0004900 -0.0001423 0.0001654 0.0000075 -0.0000933 0.0065971 -0.0085030 0.0001864 -0.0008017 -0.0008535 0.0004900 -0.0015182 0.0016090 -0.0014873 0.0012454 -0.0002604 0.0005498 -0.0002262 0.0001498 0.0000295 0.0000503 -0.0007914 0.0004663 0.0007535 -0.0002683 -0.0011015 0.0014318 -0.0003086 0.0004441 -0.0001496 -0.0000001 -0.0022712 -0.0004364 0.0000168 0.0000640 0.0008404 0.0013523 0.0000314 -0.0000487 0.0000237 -0.0000233 -0.0005122 0.0003362 -0.0001746 0.0001361 0.0001407 -0.0003355 -0.0019510 0.0020991 -0.0002266 0.0009256 0.0001319 0.0001741 -0.0039000 0.0019437 0.0000356 -0.0002732 0.0004655 -0.0001999 0.0001266 -0.0000858 0.0023182 -0.0015673 0.0000068 0.0000901 0.0000683 -0.0000096 0.0001956 0.0002285 -0.0000836 0.0002457 -0.0024576 0.0006781 0.0001771 0.0001527 -0.0004559 0.0000958 -0.0000862 -0.0001286 -0.0008397 -0.0004928 0.0013023 0.0003521 0.0068556 -0.0081238 0.0004743 0.0000582 0.0001337 0.0000650 0.0003303 -0.0008089 -0.0075121 0.0006915 -0.0001733 0.0001933 0.0000692 -0.0002036 0.0004991 -0.0000241 0.0024923 0.0053375 0.0001766 -0.0001264 0.0000098 0.0003692 0.0000863 0.0001144 0.0000130 0.0002229 -0.0000230 -0.0002172 0.0000287 -0.0002814 0.0002596 -0.0004288
-0.0000534 -0.0000222 -0.0000538 -0.0002827 -0.0000028 -0.0001530 -0.0000783 0.0001547 -0.0001287 -0.0003132 -0.0001752 -0.0002300 -0.0000991 -0.0003816 0.0000680 0.0001792 -0.0000041 -0.0004549 0.0000928 -0.0002516 -0.0000342 -0.0001257 0.0000045 -0.0001738 -0.0000156 -0.0001566 -0.0002198 -0.0008757 -0.0000909 -0.0002554 -0.0001127 -0.0010193 0.0000026 -0.0001028 0.0000423 -0.0000964 0.0000832 -0.0000143 0.0003832 -0.0004146 0.0000071 -0.0001369 0.0000188 -0.0000571 0.0002131 -0.0002621 0.0001595 -0.0001667 0.0002476 -0.0000141 -0.0001188 0.0002340 -0.0000675 0.0001458 -0.0002171 0.0006067 -0.0002815 0.0007643 -0.0001551 0.0002714 -0.0003502 0.0007362 0.0006929 -0.0005149 -0.0000660 0.0000946 -0.0001154 0.0000927 0.0003102 0.0002855 -0.0001964 0.0010562 0.0015768 0.0002320 -0.0020373 -0.0084336 -0.0000209 0.0001617 0.0002116 -0.0000583 -0.0013813 0.0036973 -0.0013874 0.0014608 -0.0000331 0.0001253 -0.0036673 0.0014431 -0.0000979 -0.0004846 0.0000570 -0.0000055 -0.0017707 0.0014196 -0.0014674 0.0021368 0.0003754 0.0000284 -0.0011551 0.0010359 -0.0005470 0.0004862 0.0000172 0.0002206 0.0000326 0.0000355 0.0104095 0.0002797 0.0129803 -0.0161658 -0.0000971 -0.0001082 -0.0010424 0.0012795 -0.0000749 0.0011805 -0.0002941 0.0006852 -0.0000060 0.0002051 -0.0000657 0.0002132 0.0001829 0.0008920 -0.0004517 0.0031053 0.0012397 -0.0001877 -0.0002309 0.0004113 0.0000664 -0.0002188 -0.0048604 0.0018357 -0.0000301 0.0003556 -0.0017029 0.0013436 0.0002513 0.0001409 0.0000150 0.0001616 0.0002157 -0.0002916 0.0001559 -0.0001071 0.0001564 -0.0002766 -0.0000796 0.0011278 -0.0002182 0.0011162 -0.0001461 0.0005976 0.0035826 -0.0139282 0.0000077 -0.0000861 0.0003424 0.0000810 0.0001379 0.0000571 -0.0000683 -0.0000859 -0.0001946 0.0004442 0.0000975 0.0001675 -0.0000119 0.0004739 -0.0000621 0.0004710 -0.0000335 0.0017574 -0.0002485 0.0005622 -0.0002209 0.0001992 -0.0001183 0.0001137 0.0002965 0.0002156 -0.0013325 0.0022479 0.0021365 0.0006018 0.0005643 -0.0000754 0.0000708 0.0003199 0.0000503 0.0000862 -0.0042347 0.0035512 0.0003843 -0.0001727 0.0000090 0.0000332 0.0007435 -0.0003881 0.0175450 -0.0321316 0.0000262 0.0001522 0.0001889 0.0010255 0.0000607 0.0003200 0.0000779 0.0004145 -0.0000198 -0.0000020 0.0000323 0.0000554 0.0001947 -0.0000480
-0.0000651 0.0002649 -0.0000404 0.0000515 -0.0000084 0.0001456 -0.0001059 0.0002848 -0.0001358 -0.0002794 -0.0001276 0.0001452 -0.0000722 -0.0000618 -0.0000112 0.0001297 0.0000143 -0.0000971 -0.0000103 -0.0001281 -0.0000639 0.0000256 0.0000379 -0.0001496 -0.0000883 -0.0000412 -0.0000762 -0.0004723 -0.0000368 -0.0001745 -0.0000782 -0.0006618 0.0000096 -0.0000297 0.0001156 -0.0000311 0.0000449 -0.0000275 -0.0003270 0.0002540 0.0000072 -0.0001459 -0.0000655 -0.0000069 0.0001565 -0.0000078 0.0001643 -0.0000562 0.0003236 -0.0001901 -0.0000745 0.0002561 -0.0000576 0.0001580 -0.0002653 0.0004560 -0.0003068 0.0007681 -0.0001670 0.0002651 -0.0003313 0.0006634 0.0001313 -0.0000225 -0.0000417 -0.0000263 -0.0000433 0.0001589 -0.0000186 0.0003622 0.0001576 0.0007665 0.0091260 -0.0059503 0.0005758 -0.0114547 0.0002897 -0.0000989 -0.0000621 0.0001206 0.0023518 -0.0018904 -0.0017987 0.0016935 -0.0000533 0.0001141 -0.0032465 0.0006961 -0.0006205 -0.0002563 0.0000168 0.0001015 0.0009965 -0.0043579 -0.0013105 0.0022500 0.0004128 0.0001658 0.0002952 -0.0010894 -0.0002792 0.0003928 0.0000849 0.0001777 -0.0000398 0.0002174 -0.0013062 0.0114638 0.0136626 -0.0166136 0.0001956 -0.0001999 -0.0002767 0.0006131 0.0001998 -0.0002190 -0.0002752 0.0006029 -0.0000439 0.0002142 -0.0001181 0.0001119 -0.0006193 0.0017721 -0.0010105 0.0036661 0.0014008 -0.0001758 -0.0001749 0.0003047 -0.0000104 -0.0002679 0.0056985 -0.0214786 0.0000119 0.0001594 -0.0004814 0.0015882 0.0002905 -0.0004224 0.0000279 -0.0000414 0.0004866 -0.0007417 0.0001342 -0.0005377 0.0002381 -0.0003851 0.0015131 -0.0008955 -0.0003224 0.0008554 -0.0003458 0.0006503 0.0027140 0.0013402 -0.0000832 -0.0000838 -0.0000953 0.0002807 0.0001331 -0.0000279 -0.0019577 0.0012159 -0.0002722 0.0004944 -0.0000606 0.0003428 0.0003319 0.0000977 -0.0000185 0.0004278 0.0030622 -0.0011556 -0.0004794 0.0009926 0.0001994 -0.0004712 0.0000546 0.0000220 0.0007844 -0.0001252 -0.0015136 0.0020455 0.0042412 0.0011276 -0.0002798 0.0003850 0.0000606 0.0003875 0.0000301 0.0002055 -0.0047654 0.0031069 0.0003195 -0.0002021 -0.0000262 0.0002093 0.0003760 0.0000859 0.0175895 -0.0495285 -0.0000840 0.0003779 0.0008091 0.0002276 0.0000732 0.0003624 -0.0000288 0.0004857 0.0000126 0.0002418 0.0000225 0.0003749 0.0000130 0.0004918
-0.0000941 0.0005188 -0.0000153 0.0003938 0.0000077 0.0004051 -0.0001036 0.0004159 -0.0001032 -0.0001009 -0.0000813 0.0005355 -0.0000204 0.0002363 -0.0000709 0.0001830 0.0000137 0.0002927 -0.0000781 0.0001248 0.0000200 0.0001823 0.0000001 0.0001070 -0.0001131 0.0002166 0.0000164 -0.0000011 -0.0000017 -0.0000280 -0.0000572 -0.0003064 -0.0000329 0.0002253 0.0001026 0.0002010 0.0000245 0.0001463 0.0003115 -0.0004549 -0.0000447 0.0001473 -0.0000239 0.0000808 -0.0001433 0.0002919 0.0001594 0.0000961 0.0001619 -0.0001185 -0.0001180 0.0004309 -0.0000647 0.0001820 -0.0002983 0.0004474 -0.0003234 0.0008585 -0.0001831 0.0004479 -0.0003577 0.0008138 -0.0006767 0.0007500 -0.0000283 0.0000473 -0.0000280 0.0002531 -0.0007995 0.0015338 -0.0000982 0.0008330 0.0056899 0.0039291 -0.0030346 -0.0054991 0.0001714 -0.0001186 -0.0002799 0.0002434 0.0047330 -0.0038394 -0.0023642 0.0012109 -0.0000476 0.0001646 -0.0002942 0.0002380 0.0010532 -0.0011941 0.0001182 -0.0000625 0.0073166 -0.0082483 -0.0057938 0.0022633 0.0001682 0.0003944 -0.0005578 0.0004031 -0.0002679 0.0005687 -0.0001576 0.0003763 -0.0000652 0.0002461 -0.0102202 0.0118087 0.0112222 -0.0196138 -0.0002427 0.0003895 -0.0003668 0.0006694 -0.0003442 0.0001699 -0.0002983 0.0005708 -0.0001418 0.0001125 0.0000549 -0.0000250 -0.0009699 0.0013032 -0.0016164 0.0042100 0.0000009 0.0006125 -0.0002627 0.0003839 -0.0000933 -0.0000202 0.0113148 -0.0186522 0.0001746 -0.0000996 0.0006729 0.0013043 -0.0000849 -0.0000493 -0.0000644 -0.0000259 -0.0001989 0.0000198 -0.0000348 -0.0004336 0.0000956 -0.0002682 0.0019436 -0.0019226 -0.0000272 0.0002436 -0.0001252 0.0004235 -0.0006188 0.0031471 -0.0000391 -0.0001761 -0.0002598 0.0003211 0.0000056 0.0000140 -0.0005125 -0.0004765 -0.0001447 0.0003348 -0.0002108 0.0004067 0.0005290 -0.0001621 -0.0000625 0.0004847 -0.0017280 0.0000095 0.0002681 0.0004357 0.0005546 -0.0007468 0.0001296 -0.0001923 0.0003851 0.0000880 -0.0002735 0.0005002 0.0033421 -0.0007683 0.0002106 -0.0001754 0.0000902 0.0001760 0.0001356 -0.0002554 -0.0003437 -0.0015933 0.0002889 -0.0002908 -0.0000276 0.0000884 -0.0005038 0.0014075 0.0155656 -0.0446382 -0.0000689 0.0002055 0.0001533 0.0009647 0.0000098 0.0002601 0.0000218 0.0002294 -0.0000089 0.0000654 -0.0000107 0.0000739 -0.0001242 0.0001993
-0.0001368 0.0002998 0.0000152 0.0001958 -0.0000084 0.0002242 -0.0000709 0.0004272 -0.0000827 -0.0001372 -0.0001076 0.0005312 -0.0000334 0.0002207 -0.0000812 0.0001222 0.0000567 0.0002928 -0.0000480 0.0001232 -0.0000564 0.0002260 -0.0000548 0.0001971 -0.0001151 0.0002559 0.0000028 0.0000212 -0.0000089 -0.0000373 -0.0000382 -0.0005376 -0.0000084 0.0001693 -0.0000037 0.0003818 0.0000565 0.0003696 0.0009422 -0.0009209 -0.0000330 0.0002420 -0.0000180 0.0000988 -0.0003387 0.0004290 0.0001938 0.0000538 0.0003350 -0.0000118 -0.0001305 0.0004592 -0.0001161 -0.0000988 -0.0002839 0.0005341 -0.0003437 0.0008892 -0.0001772 0.0005564 -0.0003610 0.0009665 0.0002332 0.0002209 0.0000463 0.0000602 -0.0000520 0.0001967 0.0005207 -0.0001689 -0.0000339 0.0002490 0.0004003 0.0053707 0.0030159 -0.0040003 0.0003748 -0.0002345 -0.0003251 0.0004157 0.0026490 -0.0024763 -0.0015013 0.0001748 -0.0000296 0.0003902 -0.0064361 0.0056418 0.0016482 -0.0010559 0.0001869 -0.0000002 0.0051132 -0.0022141 -0.0009148 -0.0066816 0.0000583 0.0004456 -0.0003278 0.0005851 -0.0004620 0.0002303 -0.0003284 0.0005264 -0.0000966 0.0003965 0.0079624 -0.0092444 0.0207463 -0.0487977 -0.0002509 0.0004048 -0.0007369 0.0010206 0.0002242 0.0006759 -0.0003050 0.0006854 -0.0001130 0.0002219 -0.0000444 0.0003744 -0.0005626 0.0007716 -0.0005039 0.0032197 0.0006731 0.0000030 -0.0000770 0.0001727 -0.0000995 -0.0000013 0.0039548 -0.0087326 0.0000067 0.0000731 0.0017290 -0.0009747 -0.0003298 0.0004783 -0.0001057 0.0000482 -0.0003032 -0.0000373 -0.0000440 -0.0002767 -0.0001128 -0.0002231 0.0011315 -0.0008251 0.0001811 -0.0000740 -0.0001840 0.0003716 0.0031318 -0.0090296 -0.0000424 -0.0001562 -0.0000956 0.0001001 0.0000252 -0.0000763 0.0003920 -0.0006242 0.0000930 0.0000817 -0.0001598 0.0001581 -0.0000782 0.0003747 -0.0001808 0.0005156 -0.0054577 0.0040272 0.0001951 0.0005905 0.0002054 -0.0003626 0.0001164 -0.0003379 0.0003306 -0.0004010 0.0007459 -0.0002727 0.0014688 -0.0029866 0.0004947 -0.0007031 0.0000657 0.0000895 0.0002153 -0.0004166 -0.0058078 0.0096436 0.0001149 -0.0002569 -0.0000427 -0.0000301 0.0005213 0.0006812 -0.0066847 0.0018535 0.0000233 -0.0000046 -0.0003431 0.0002560 -0.0000140 0.0001882 0.0001171 0.0000161 0.0000315 -0.0002416 0.0000316 -0.0003242 -0.0001416 -0.0001978
-0.0000782 -0.0000026 -0.0000121 -0.0000694 -0.0000144 -0.0000449 -0.0000682 0.0003507 -0.0000431 -0.0002437 -0.0001653 0.0004003 -0.0000383 0.0000510 -0.0000655 -0.0000035 0.0000604 0.0001527 -0.0000283 -0.0000105 -0.0001490 0.0001684 -0.0000217 -0.0000042 -0.0000044 -0.0000326 -0.0000224 -0.0002066 -0.0000017 -0.0001587 -0.0000276 -0.0009587 0.0000663 -0.0000686 -0.0001146 0.0002038 0.0001139 0.0003708 0.0007620 -0.0008724 0.0000054 -0.0000310 -0.0000146 -0.0001611 -0.0003075 0.0004180 0.0002327 -0.0001932 0.0001710 0.0000464 -0.0001204 0.0003051 -0.0001557 -0.0003932 -0.0002825 0.0004290 -0.0003641 0.0007906 -0.0001795 0.0003934 -0.0003652 0.0008608 0.0003784 -0.0000982 0.0000462 -0.0000905 -0.0000025 -0.0000732 0.0005976 0.0000746 -0.0005727 -0.0002088 0.0092394 -0.0018563 0.0011217 -0.0023689 0.0000663 0.0000754 -0.0000619 0.0000232 0.0020128 -0.0020884 -0.0007684 0.0000093 0.0000100 0.0004165 -0.0022388 0.0014976 0.0001386 -0.0002937 0.0002977 -0.0000334 -0.0011507 0.0018377 -0.0017057 -0.0021050 -0.0000442 0.0005083 -0.0000776 0.0005164 -0.0008328 0.0002114 -0.0000304 0.0002199 -0.0000259 0.0002922 0.0099547 -0.0169834 0.0017690 0.0003666 0.0001315 -0.0000455 -0.0005596 0.0008245 0.0000441 -0.0001733 -0.0003025 0.0006948 -0.0000803 0.0003703 -0.0001780 0.0005874 0.0004895 -0.0001778 -0.0006397 0.0002747 0.0005084 0.0002299 0.0000736 -0.0000182 -0.0000823 -0.0000798 -0.0028379 -0.0075794 -0.0001396 0.0002974 0.0020797 -0.0006788 -0.0006201 0.0006596 -0.0000357 0.0000788 0.0001196 -0.0003291 0.0000156 -0.0000984 -0.0000356 -0.0001089 0.0010184 -0.0002687 -0.0001363 0.0001659 0.0001180 0.0000332 0.0129104 -0.0125526 -0.0000970 -0.0000327 0.0000934 -0.0000806 0.0000669 -0.0000628 0.0003269 -0.0001373 0.0000870 0.0000607 -0.0000552 0.0001164 -0.0003165 0.0005457 -0.0002077 0.0005382 -0.0022380 0.0039018 0.0001215 0.0004165 -0.0004741 0.0001560 0.0001400 -0.0002150 -0.0006876 0.0004346 0.0007349 -0.0016890 0.0021934 -0.0049196 -0.0005226 0.0002735 0.0000157 0.0001983 0.0001524 -0.0001112 -0.0112670 0.0203698 0.0004076 -0.0003918 -0.0000343 -0.0000255 0.0013497 -0.0007148 -0.0160183 0.0267064 0.0001165 -0.0002320 0.0002141 -0.0008659 0.0000181 0.0001069 -0.0000629 0.0001161 0.0000323 -0.0004035 0.0000326 -0.0004838 0.0000569 -0.0005841
-0.0000745 -0.0000911 -0.0000558 -0.0002226 0.0000048 -0.0002576 -0.0001143 0.0002229 -0.0000278 -0.0002745 -0.0001947 0.0002767 -0.0000578 -0.0000948 -0.0000400 -0.0000768 0.0000270 -0.0000055 -0.0000032 -0.0001203 -0.0001889 0.0001688 0.0000096 -0.0001714 0.0000092 -0.0001568 -0.0000427 -0.0004232 -0.0000116 -0.0002173 -0.0000366 -0.0012539 -0.0000593 -0.0000475 -0.0000372 -0.0001448 0.0001554 0.0003505 0.0000543 -0.0005338 0.0000214 -0.0001964 -0.0000811 -0.0002505 -0.0002821 0.0002197 0.0001964 -0.0004089 -0.0000946 -0.0001094 -0.0001660 0.0001998 -0.0001608 -0.0004531 -0.0002570 0.0003364 -0.0003868 0.0007253 -0.0001864 0.0002261 -0.0003812 0.0007402 0.0002254 0.0000112 0.0000180 -0.0001293 0.0000679 -0.0003000 0.0009850 0.0008242 -0.0016200 0.0001203 0.0048752 0.0009995 -0.0040243 0.0070151 -0.0001776 -0.0000620 0.0000576 -0.0004808 -0.0002857 0.0031191 -0.0009123 -0.0002137 -0.0000005 0.0001169 0.0007831 -0.0014753 0.0002979 -0.0014092 0.0003405 -0.0004750 0.0033237 -0.0001516 -0.0010241 0.0000614 -0.0003904 0.0005875 0.0006071 0.0002752 -0.0013019 0.0007014 0.0001560 -0.0000134 0.0000731 -0.0000914 -0.0114983 0.0077002 -0.0051802 0.0179104 -0.0002609 0.0000041 -0.0008003 0.0008496 0.0000083 -0.0007096 -0.0002453 0.0004409 -0.0001860 0.0001396 -0.0001454 0.0002410 0.0023033 -0.0025392 -0.0027663 0.0003351 -0.0015340 0.0020696 -0.0000317 -0.0002597 0.0001234 -0.0004230 -0.0001847 -0.0085421 -0.0001167 0.0001114 0.0010242 -0.0005783 -0.0003820 0.0000865 -0.0000599 0.0000594 -0.0003829 0.0000768 -0.0000256 -0.0002906 0.0000211 -0.0002287 -0.0001259 0.0004824 -0.0002043 -0.0000020 0.0003383 -0.0002813 0.0091298 -0.0107862 -0.0000305 -0.0001517 -0.0002073 -0.0000197 0.0000648 -0.0001539 0.0001057 -0.0005091 0.0000386 -0.0000634 -0.0000489 0.0000196 -0.0004766 0.0003850 -0.0001447 0.0003761 -0.0052811 0.0063315 -0.0000702 0.0001477 -0.0004731 0.0000573 0.0000752 -0.0001072 -0.0026222 0.0014962 -0.0007216 -0.0002720 0.0022776 -0.0030185 -0.0007947 0.0005731 -0.0000082 0.0001616 0.0002529 -0.0000821 -0.0014089 0.0104028 0.0002563 -0.0002458 -0.0000143 -0.0000630 -0.0007645 0.0013371 -0.0027004 0.0154198 0.0000633 -0.0002842 0.0004272 0.0000391 -0.0000277 0.0001203 -0.0002124 0.0002372 -0.0000430 -0.0002324 0.0000103 -0.0002619 0.0000475 -0.0003742
-0.0001499 0.0001556 -0.0000656 -0.0000769 0.0000036 -0.0001464 -0.0001275 0.0002069 -0.0000164 -0.0002486 -0.0001896 0.0002778 -0.0000758 -0.0000695 -0.0000436 -0.0001096 0.0000163 -0.0000804 -0.0000107 -0.0001141 -0.0001742 0.0001255 -0.0000279 -0.0001663 -0.0000605 -0.0000536 -0.0000604 -0.0005585 -0.0000356 -0.0003252 -0.0000144 -0.0015161 -0.0001115 -0.0001229 -0.0000166 -0.0001581 0.0001509 0.0002558 -0.0006342 -0.0003788 0.0000161 -0.0002590 -0.0001567 -0.0003481 0.0002126 -0.0003273 0.0001987 -0.0004736 -0.0000278 -0.0003632 -0.0001883 0.0001169 -0.0001923 -0.0005840 -0.0002922 0.0003094 -0.0003938 0.0006724 -0.0001507 0.0001108 -0.0003371 0.0006119 0.0003643 -0.0005204 0.0000110 -0.0002708 0.0000619 -0.0004626 0.0020397 -0.0011700 -0.0013333 -0.0007074 -0.0139084 0.0084869 0.0003720 0.0050235 -0.0001593 -0.0002704 -0.0000450 -0.0005347 -0.0011422 0.0007852 -0.0006763 -0.0000729 -0.0000268 -0.0001017 0.0030642 -0.0025383 0.0006878 -0.0018492 0.0001746 -0.0006535 -0.0019267 0.0051069 -0.0015592 -0.0065309 -0.0003359 0.0002660 0.0010779 -0.0011308 -0.0009786 0.0001070 0.0000603 0.0000598 -0.0001178 -0.0001108 -0.0062547 0.0069599 -0.0068902 0.0145345 -0.0003475 -0.0002749 -0.0010676 0.0009461 -0.0002149 0.0000342 -0.0002213 0.0003542 -0.0001573 -0.0000477 0.0000027 0.0000922 0.0024783 -0.0017586 -0.0020810 0.0026438 -0.0025891 0.0019557 -0.0002702 -0.0003391 -0.0000016 -0.0004777 -0.0060619 -0.0019433 -0.0001409 -0.0000572 0.0049530 -0.0068639 -0.0002821 -0.0004933 -0.0000273 -0.0002470 -0.0004958 -0.0001900 -0.0000869 -0.0007343 -0.0000593 -0.0004903 -0.0002894 0.0000966 -0.0000352 -0.0001935 0.0002468 -0.0002461 -0.0058403 -0.0041336 -0.0000092 -0.0003460 -0.0003701 0.0000565 0.0000911 -0.0004955 0.0000987 -0.0000172 0.0000086 -0.0002529 -0.0000446 -0.0001703 0.0002272 -0.0002180 -0.0001113 0.0000239 -0.0043735 0.0037764 -0.0004169 -0.0000681 -0.0004597 -0.0000822 -0.0000170 -0.0002801 -0.0027771 0.0017440 0.0014542 -0.0009079 0.0015208 -0.0029721 -0.0006197 0.0002641 0.0000533 -0.0001085 0.0002426 -0.0005715 -0.0021663 -0.0002118 0.0000701 -0.0001606 -0.0000422 -0.0002316 -0.0009214 0.0018826 -0.0022518 0.0112738 0.0000533 -0.0003036 0.0000618 0.0007437 -0.0000410 0.0000112 -0.0000326 0.0000524 -0.0000027 -0.0004255 0.0000232 -0.0002660 -0.0001422 -0.0000658
-0.0001096 0.0002241 -0.0000647 0.0000226 0.0000080 -0.0000754 -0.0000044 0.0004295 -0.0000217 -0.0003935 -0.0001673 0.0003530 -0.0000434 -0.0000005 -0.0000843 -0.0002940 0.0000353 -0.0001122 -0.0000288 -0.0000705 -0.0001673 0.0001520 -0.0000497 -0.0000483 0.0000072 -0.0000403 -0.0000824 -0.0007393 -0.0000568 -0.0006723 0.0000512 -0.0020060 -0.0000794 -0.0004083 -0.0000358 -0.0002260 0.0000590 -0.0001085 -0.0004458 -0.0005008 -0.0000166 -0.0001356 -0.0000817 -0.0003789 -0.0000729 0.0000009 0.0003613 0.0000855 0.0000546 -0.0000330 -0.0000487 0.0003907 -0.0003283 -0.0011146 -0.0002321 0.0004532 -0.0004268 0.0005501 -0.0001038 0.0001692 -0.0003341 0.0005554 0.0002991 -0.0008971 -0.0000098 -0.0004165 0.0001874 -0.0005673 0.0017877 -0.0021948 -0.0019726 -0.0045593 0.0035152 -0.0160744 -0.0009152 0.0074063 -0.0003689 -0.0001020 -0.0001609 -0.0006105 -0.0003310 -0.0054938 -0.0008157 0.0005936 -0.0000877 -0.0003163 0.0031484 -0.0039045 -0.0000649 -0.0008495 0.0002641 -0.0009698 -0.0067653 0.0048820 -0.0079711 0.0019102 0.0003249 -0.0004552 0.0006858 -0.0009728 -0.0011588 -0.0005575 0.0001066 0.0000989 -0.0001114 -0.0003186 -0.0013750 -0.0009976 -0.0103983 0.0111426 -0.0001450 -0.0004813 -0.0012334 0.0008056 -0.0001945 -0.0007353 -0.0002259 0.0003255 -0.0000682 -0.0002914 0.0001284 -0.0000344 0.0013016 -0.0007296 -0.0022883 0.0050167 -0.0020049 0.0012585 -0.0004176 -0.0008052 -0.0003310 -0.0006275 -0.0152827 0.0032868 -0.0000899 -0.0003997 0.0010842 -0.0028144 0.0000657 -0.0012091 0.0000752 -0.0005765 0.0002148 -0.0011203 0.0001375 -0.0011523 -0.0001439 -0.0006029 -0.0000865 -0.0011795 -0.0002573 -0.0000504 -0.0000338 -0.0000576 0.0027931 -0.0216891 -0.0000764 -0.0005151 -0.0000792 -0.0003690 0.0000794 -0.0007311 0.0014264 -0.0021399 0.0000321 -0.0004588 0.0000571 -0.0004555 0.0006063 -0.0003042 -0.0000340 -0.0003142 -0.0018407 0.0019123 0.0005109 -0.0007785 -0.0006454 -0.0001743 -0.0000393 -0.0004553 0.0000586 -0.0003267 0.0015141 -0.0009873 0.0008546 0.0017514 -0.0000423 -0.0005027 0.0000610 -0.0001893 -0.0000040 -0.0008081 -0.0328437 0.0208562 0.0001391 -0.0004437 -0.0000258 -0.0005107 -0.0016790 0.0017361 0.0009356 0.0030751 0.0000635 -0.0004995 -0.0014956 0.0017260 0.0000273 -0.0002375 -0.0000482 0.0000006 0.0001232 -0.0010243 0.0000083 -0.0007028 -0.0002127 -0.0005576
0.0000086 -0.0001353 -0.0000685 -0.0003070 0.0000616 -0.0004791 0.0001418 0.0006085 -0.0000254 -0.0006704 -0.0000609 0.0003077 0.0000225 -0.0001706 -0.0001245 -0.0007451 0.0000536 -0.0003377 0.0000027 -0.0002742 -0.0000724 -0.0001247 0.0000253 -0.0002521 0.0000763 -0.0001976 -0.0001396 -0.0013445 -0.0000876 -0.0012471 0.0000638 -0.0025547 -0.0000744 -0.0007721 -0.0000411 -0.0005160 -0.0000066 -0.0006292 -0.0002712 -0.0004984 -0.0000278 -0.0001713 -0.0000855 -0.0003920 -0.0004560 0.0001495 0.0005472 0.0003177 0.0002029 0.0002487 0.0000812 0.0006116 -0.0004656 -0.0017676 -0.0000942 0.0006223 -0.0004933 0.0004740 -0.0000582 0.0001842 -0.0003473 0.0005933 0.0003721 -0.0008998 -0.0000275 -0.0005383 0.0003490 -0.0006621 0.0022755 -0.0025278 -0.0025506 -0.0095748 0.0054221 -0.0144277 -0.0002765 0.0157693 -0.0004393 -0.0001603 -0.0000653 -0.0006913 -0.0014280 -0.0015912 -0.0007178 0.0007045 -0.0001120 -0.0004307 0.0025540 -0.0044911 0.0000917 -0.0012975 0.0002401 -0.0011058 -0.0019495 -0.0010336 -0.0035260 0.0022428 0.0002697 -0.0002008 0.0006407 -0.0002307 -0.0017689 -0.0008840 0.0000604 0.0002805 -0.0000740 -0.0005590 0.0002573 0.0017868 -0.0202305 0.0187301 -0.0004027 0.0001100 -0.0010995 0.0006089 -0.0004241 -0.0008842 -0.0001336 0.0002888 0.0001533 -0.0005225 0.0001834 -0.0001488 -0.0007572 0.0001811 -0.0019280 0.0034770 -0.0014758 0.0009721 -0.0004016 -0.0013701 -0.0003161 -0.0010706 0.0016450 -0.0234645 0.0000840 -0.0007429 -0.0050559 0.0035197 0.0001511 -0.0008503 0.0000150 -0.0006263 0.0003885 -0.0012713 -0.0001339 -0.0011067 0.0000294 -0.0009604 -0.0010159 -0.0000404 -0.0001460 -0.0002688 -0.0003281 0.0000647 -0.0034664 -0.0008261 -0.0000819 -0.0006659 0.0001234 -0.0008447 0.0001054 -0.0008091 0.0025795 -0.0039279 0.0002008 -0.0007777 0.0001101 -0.0006939 -0.0000372 -0.0000765 0.0000300 -0.0006418 0.0039268 -0.0031140 0.0003621 -0.0004587 -0.0003217 -0.0008749 0.0000480 -0.0007304 0.0034478 -0.0041018 0.0017439 -0.0026196 0.0001407 0.0020401 0.0001053 -0.0007739 0.0000930 -0.0003033 -0.0000712 -0.0008441 -0.0025822 0.0011709 -0.0000188 -0.0007028 0.0000236 -0.0007610 -0.0014340 0.0002816 0.0030723 -0.0070811 -0.0000021 -0.0006729 -0.0011806 -0.0003375 0.0001110 -0.0003965 -0.0000423 -0.0001261 0.0001577 -0.0013195 -0.0000120 -0.0009126 -0.0001993 -0.0010571
0.0000831 -0.0003184 -0.0000477 -0.0005903 0.0000642 -0.0008067 0.0001389 0.0004857 0.0000117 -0.0007153 0.0000755 0.0001634 0.0000675 -0.0004437 -0.0001159 -0.0010112 0.0000675 -0.0006366 -0.0000239 -0.0004023 0.0000582 -0.0004586 0.0000621 -0.0005212 0.0000984 -0.0003542 -0.0002160 -0.0021041 -0.0001155 -0.0016302 -0.0000114 -0.0027302 0.0000275 -0.0010951 -0.0000510 -0.0008016 0.0000469 -0.0008900 -0.0003624 -0.0012569 0.0000118 -0.0004584 -0.0001845 -0.0005641 0.0003115 -0.0008846 0.0005776 -0.0002643 0.0004103 -0.0001208 0.0000432 0.0003474 -0.0005012 -0.0020287 -0.0001038 0.0005588 -0.0005049 0.0004797 0.0000067 -0.0000321 -0.0003309 0.0005549 0.0003864 -0.0011997 0.0000349 -0.0008111 0.0003554 -0.0007764 0.0005976 -0.0010720 -0.0025504 -0.0099609 0.0082806 -0.0149324 0.0019568 0.0040818 0.0000849 -0.0006697 -0.0000341 -0.0006487 0.0000010 -0.0011982 0.0004055 -0.0004202 -0.0000758 -0.0005801 0.0029148 -0.0039280 0.0010194 -0.0028333 -0.0000243 -0.0010236 0.0016408 -0.0025153 -0.0063732 0.0017894 -0.0001718 0.0001312 0.0011767 -0.0015051 -0.0002470 -0.0022354 -0.0000333 0.0003891 -0.0001173 -0.0006160 0.0017602 0.0081233 -0.0174138 0.0230690 -0.0004236 0.0001908 -0.0009346 0.0006964 -0.0002924 -0.0005995 -0.0001166 0.0003053 0.0002722 -0.0005011 0.0001481 -0.0001036 -0.0013250 0.0015096 -0.0009888 0.0026826 -0.0002015 -0.0001627 -0.0003681 -0.0012490 -0.0002175 -0.0011325 0.0017674 -0.0034302 0.0001376 -0.0006518 -0.0006529 -0.0016323 -0.0001825 -0.0004741 -0.0000432 -0.0004926 0.0001026 -0.0007787 -0.0000367 -0.0010076 0.0001698 -0.0010306 -0.0007742 -0.0002145 0.0002292 -0.0005139 -0.0001651 0.0001373 -0.0062100 0.0145939 0.0000102 -0.0006246 0.0002918 -0.0009753 0.0001579 -0.0006503 0.0003532 -0.0007566 0.0000503 -0.0005773 0.0000780 -0.0004832 0.0002308 -0.0003779 -0.0000668 -0.0004009 0.0029537 -0.0032425 -0.0000079 -0.0001871 0.0007588 -0.0016909 0.0001417 -0.0007386 0.0012855 -0.0021051 -0.0001784 0.0003482 0.0018314 -0.0035851 0.0003787 -0.0004679 0.0001531 -0.0002954 0.0001037 -0.0008174 0.0020099 0.0021145 -0.0003153 -0.0002930 0.0000532 -0.0007426 0.0006113 -0.0022731 -0.0026166 -0.0078853 0.0001514 -0.0008049 -0.0001554 -0.0016802 0.0001227 -0.0003884 0.0000757 -0.0001888 0.0000908 -0.0012704 0.0000177 -0.0010131 -0.0000789 -0.0012813
0.0000831 -0.0003407 -0.0000631 -0.0006881 0.0000479 -0.0009194 0.0001082 0.0002059 0.0000296 -0.0006799 0.0001486 -0.0000728 0.0000555 -0.0005682 -0.0000865 -0.0010681 0.0000553 -0.0007711 -0.0000167 -0.0004562 0.0000958 -0.0005081 0.0000142 -0.0005690 0.0001115 -0.0004764 -0.0002443 -0.0024130 -0.0001123 -0.0017676 -0.0000411 -0.0027674 -0.0000399 -0.0011485 -0.0001373 -0.0009006 0.0000792 -0.0009975 -0.0006839 -0.0012039 0.0000426 -0.0006333 -0.0002403 -0.0006136 0.0003456 -0.0011919 0.0005614 -0.0005244 0.0002723 -0.0003343 -0.0000447 0.0001188 -0.0005193 -0.0021255 -0.0001251 0.0004857 -0.0004786 0.0005171 0.0000243 -0.0001704 -0.0003181 0.0004991 0.0003954 -0.0014904 0.0000986 -0.0009920 0.0003281 -0.0009360 -0.0001952 -0.0006176 -0.0034196 -0.0090081 0.0167875 -0.0276728 -0.0065394 0.0083901 0.0002815 -0.0010783 -0.0002638 -0.0004615 0.0054835 -0.0077766 0.0007817 -0.0012756 -0.0001482 -0.0007202 0.0026206 -0.0037764 0.0004700 -0.0023804 -0.0002248 -0.0010896 0.0028747 -0.0019406 -0.0101394 0.0029325 -0.0001948 -0.0000819 0.0023598 -0.0025923 0.0002821 -0.0026643 0.0000089 0.0002431 -0.0000068 -0.0008716 -0.0003823 0.0090725 -0.0002628 0.0083373 -0.0001440 -0.0002488 -0.0003834 0.0002047 0.0006713 -0.0010470 -0.0001302 0.0002238 -0.0000848 -0.0003111 0.0001982 -0.0002388 -0.0008980 0.0011573 -0.0027367 0.0047242 0.0010032 -0.0004494 -0.0003679 -0.0012608 -0.0002310 -0.0010593 -0.0108754 0.0149684 0.0000190 -0.0005033 -0.0002981 -0.0004865 0.0001293 -0.0014068 -0.0000176 -0.0005016 0.0003705 -0.0010577 0.0001609 -0.0010327 0.0002297 -0.0011333 0.0005478 -0.0012778 0.0003705 -0.0010043 -0.0000300 0.0000003 0.0020863 0.0031359 0.0000043 -0.0005063 0.0001863 -0.0009741 0.0001922 -0.0006227 -0.0008674 0.0007181 0.0001005 -0.0009077 0.0000461 -0.0004485 0.0004719 -0.0004053 -0.0001795 -0.0001509 -0.0052529 0.0033026 -0.0000001 0.0000199 0.0008393 -0.0013038 0.0000924 -0.0005476 -0.0014251 -0.0001331 -0.0023039 0.0021329 -0.0103616 0.0109849 -0.0003436 0.0001808 0.0001039 -0.0001484 0.0004206 -0.0011372 -0.0160074 0.0194127 -0.0003014 -0.0000695 0.0000819 -0.0006530 0.0012322 -0.0022789 0.0011294 -0.0076088 0.0001023 -0.0004843 0.0003341 -0.0008532 0.0000664 -0.0002541 0.0002576 -0.0001893 -0.0000177 -0.0008246 -0.0000029 -0.0007110 0.0000709 -0.0008670
0.0000806 -0.0001247 -0.0000570 -0.0004653 0.0000796 -0.0007531 0.0000876 0.0000750 0.0000424 -0.0006044 0.0001449 0.0000109 0.0000474 -0.0004442 -0.0000828 -0.0010054 0.0000268 -0.0006359 -0.0000081 -0.0003621 0.0000054 -0.0003317 0.0000075 -0.0004340 0.0001035 -0.0003882 -0.0002093 -0.0023073 -0.0001034 -0.0017368 -0.0000210 -0.0025706 -0.0000683 -0.0011223 0.0000051 -0.0010555 0.0000586 -0.0011485 -0.0005460 -0.0009007 0.0000506 -0.0006483 -0.0001663 -0.0006648 -0.0002577 -0.0008097 0.0005550 -0.0004455 0.0002504 -0.0004737 -0.0001582 0.0000891 -0.0005208 -0.0020879 -0.0001350 0.0004712 -0.0004692 0.0006068 0.0000284 -0.0002141 -0.0003422 0.0005180 0.0008510 -0.0016984 0.0001103 -0.0010180 0.0002512 -0.0010275 0.0001637 -0.0007651 -0.0036921 -0.0082726 0.0124262 -0.0174000 -0.0158404 0.0204110 0.0002810 -0.0013087 -0.0001844 -0.0004229 0.0050200 -0.0055251 -0.0008642 -0.0001138 -0.0001682 -0.0008260 0.0009951 -0.0023701 -0.0003408 -0.0013951 -0.0002303 -0.0011903 -0.0015814 0.0016638 -0.0010408 -0.0032124 -0.0003324 -0.0000529 0.0020879 -0.0021173 -0.0006792 -0.0017016 0.0000971 0.0000819 0.0000205 -0.0009489 -0.0096196 0.0143765 0.0098250 -0.0061278 -0.0001265 -0.0003819 -0.0002017 0.0000505 -0.0002967 -0.0005600 -0.0001036 0.0001553 0.0001719 -0.0007354 0.0003194 -0.0003351 0.0000421 0.0002104 -0.0007186 0.0008774 0.0011560 -0.0009160 -0.0004832 -0.0012411 -0.0001725 -0.0010851 -0.0268329 0.0202996 0.0000427 -0.0006458 0.0014022 -0.0018468 0.0002417 -0.0014744 0.0001204 -0.0006875 0.0004791 -0.0013512 -0.0001420 -0.0008291 0.0003049 -0.0014250 -0.0003784 0.0000203 0.0001731 -0.0011487 -0.0000260 -0.0003241 -0.0026945 0.0004785 -0.0001114 -0.0005053 0.0001674 -0.0010870 0.0001696 -0.0007668 -0.0003267 -0.0000576 0.0002325 -0.0011994 0.0000958 -0.0006831 0.0004331 -0.0002988 -0.0001805 -0.0003393 -0.0039987 -0.0008884 0.0003059 -0.0004085 -0.0001782 -0.0006246 -0.0000802 -0.0004423 -0.0009376 -0.0007156 -0.0014281 -0.0015220 -0.0115092 0.0076643 -0.0005190 -0.0000572 0.0001159 -0.0002514 0.0004223 -0.0011401 -0.0037908 0.0060837 -0.0003461 -0.0000781 0.0000292 -0.0005902 0.0007802 -0.0008871 -0.0028486 0.0068487 -0.0000220 -0.0002547 0.0023208 -0.0020002 0.0000866 -0.0001995 0.0004199 -0.0003070 0.0000676 -0.0006937 0.0000545 -0.0005243 -0.0000265 -0.0004094
0.0002099 0.0004337 -0.0000034 -0.0002992 0.0000614 -0.0007177 0.0017346 0.0041806 0.0007954 0.0021737 0.0004420 0.0007244 0.0000501 -0.0003428 -0.0001706 -0.0011304 0.0001252 -0.0003325 -0.0000024 -0.0002175 -0.0000986 -0.0001772 0.0000094 -0.0002106 0.0000453 -0.0002194 0.0002422 -0.0014175 -0.0000986 -0.0018490 -0.0005849 -0.0009634 0.0002486 -0.0011837 0.0003119 -0.0006513 0.0002495 -0.0001241 -0.0003335 -0.0011020 0.0000208 -0.0005294 0.0001152 -0.0004628 -0.0000698 -0.0010451 -0.0005412 -0.0010710 0.0004326 0.0043564 0.0012418 0.0021471 -0.0005339 -0.0020988 0.0013017 0.0031232 -0.0004512 0.0008840 0.0000355 0.0000288 -0.0003683 0.0007253 0.0011493 -0.0017184 0.0000318 -0.0006953 0.0002236 -0.0008373 0.0005118 -0.0013355 -0.0035347 -0.0077084 0.0161009 -0.0180186 -0.0154956 -0.0017608 0.0005167 -0.0015002 -0.0000137 -0.0001472 0.0026569 -0.0001867 -0.0022044 0.0010652 -0.0001323 -0.0007600 -0.0043594 0.0029828 -0.0000581 -0.0017035 0.0000064 -0.0011695 -0.0010274 0.0038889 -0.0053145 0.0061622 -0.0002012 0.0000686 -0.0001597 -0.0001566 -0.0000889 -0.0017092 0.0000914 0.0002189 -0.0000026 -0.0007539 -0.0024706 0.0103722 0.0136503 -0.0170879 -0.0015444 -0.0020412 -0.0009132 0.0003450 -0.0001821 -0.0007045 -0.0001989 -0.0000879 0.0000493 -0.0009899 0.0004072 -0.0002016 -0.0009302 0.0002621 0.0008993 -0.0012858 0.0000408 -0.0007582 -0.0003808 -0.0010534 -0.0002507 -0.0008661 -0.0072359 0.0054195 -0.0000652 -0.0006139 0.0012321 -0.0031198 0.0005873 -0.0020758 0.0001626 -0.0007881 0.0002458 -0.0009530 -0.0002380 -0.0006330 0.0003605 -0.0012802 -0.0004340 0.0000821 0.0002174 -0.0007305 0.0001179 -0.0003877 -0.0069451 -0.0001495 -0.0000386 -0.0005154 0.0002074 -0.0008674 0.0001670 -0.0006494 -0.0005378 -0.0002703 0.0001849 -0.0006706 0.0002970 -0.0005542 0.0003683 -0.0003228 -0.0000879 -0.0001630 -0.0026762 -0.0024107 0.0012961 -0.0011383 -0.0002974 -0.0009362 -0.0000659 -0.0001751 -0.0018116 0.0015528 -0.0023169 0.0009137 0.0005474 -0.0034737 0.0004382 -0.0005783 0.0002689 -0.0000245 0.0001815 -0.0006009 0.0057967 -0.0042466 -0.0004338 0.0003753 0.0000675 -0.0003340 0.0007033 -0.0012711 0.0013022 -0.0053955 0.0001531 -0.0000785 0.0020585 -0.0017056 0.0001844 0.0000213 0.0004818 -0.0000270 0.0002960 -0.0007837 0.0001392 -0.0005148 -0.0001528 -0.0006105
0.0067206 0.0106782 -0.0000116 -0.0005658 -0.0001878 -0.0014562 0.0113186 0.0239830 0.0028096 0.0099901 0.0054658 0.0086330 -0.0002939 -0.0010314 -0.0004089 -0.0005527 -0.0002889 -0.0010463 0.0000841 -0.0001978 -0.0002281 -0.0012036 0.0000085 -0.0002516 0.0000154 -0.0008666 0.0008204 -0.0007623 -0.0003325 -0.0029111 -0.0010597 -0.0011831 -0.0004606 -0.0039165 -0.0003259 -0.0021291 -0.0000020 0.0001156 -0.0023583 -0.0046544 -0.0000952 -0.0008332 -0.0000329 -0.0016426 -0.0001999 -0.0014987 -0.0017463 -0.0013347 -0.0006767 0.0066877 0.0063807 0.0100437 -0.0008691 -0.0029865 0.0069539 0.0134078 -0.0004049 0.0011700 0.0000151 0.0001981 -0.0003918 0.0007311 0.0008274 -0.0013907 0.0000640 -0.0005375 0.0002709 -0.0006658 0.0018437 -0.0034357 -0.0029494 -0.0074903 0.0129398 -0.0223727 0.0040042 -0.0186137 0.0003780 -0.0012770 -0.0001554 0.0006355 -0.0009780 0.0030797 -0.0014780 0.0013326 -0.0001874 -0.0003492 -0.0022824 0.0012413 0.0008206 -0.0020269 0.0002142 -0.0009083 0.0004005 0.0038670 -0.0047663 0.0082127 -0.0000363 0.0003666 -0.0014137 0.0012037 0.0006412 -0.0018389 0.0002821 0.0003989 0.0000412 -0.0004370 0.0066295 -0.0130279 0.0184289 -0.0433509 -0.0028308 -0.0047555 -0.0013250 0.0003814 -0.0001674 -0.0001036 -0.0002728 -0.0002871 -0.0001431 -0.0008866 0.0004396 0.0000650 -0.0010736 0.0001521 0.0016223 -0.0021251 0.0005263 -0.0009043 -0.0002115 -0.0005827 -0.0002987 -0.0004226 0.0070768 -0.0062626 -0.0001651 -0.0001354 -0.0035937 0.0021823 0.0002437 -0.0018129 0.0000507 -0.0004082 0.0004470 -0.0005289 -0.0000956 -0.0004849 0.0000088 -0.0005191 0.0009165 -0.0009943 0.0000213 -0.0000335 -0.0000020 0.0003006 0.0012432 -0.0165658 0.0000799 -0.0002592 0.0000304 -0.0002620 0.0001610 -0.0001325 0.0004604 -0.0017696 0.0003120 -0.0001358 0.0002042 0.0002299 0.0000146 0.0000123 -0.0000504 0.0004276 -0.0012279 -0.0009104 0.0002302 -0.0000355 0.0001655 -0.0010829 0.0001073 0.0001369 -0.0009630 0.0022292 -0.0029378 0.0026735 0.0013455 0.0009974 0.0000697 -0.0000879 0.0004027 0.0003950 0.0002433 -0.0003316 -0.0004657 0.0007931 0.0001000 0.0002726 0.0002265 -0.0000563 0.0012035 -0.0017797 0.0055074 -0.0248771 0.0003430 0.0000902 0.0008031 -0.0001040 0.0002514 0.0003202 0.0004928 0.0003300 0.0003540 -0.0006021 0.0001691 -0.0003724 0.0002104 -0.0010376
0.0096933 0.0178734 -0.0000142 -0.0008062 -0.0003785 -0.0020322 0.0136151 0.0323813 0.0038822 0.0141512 0.0081184 0.0145669 -0.0006927 -0.0016696 -0.0005857 0.0002709 -0.0008438 -0.0021062 0.0001146 -0.0001568 -0.0003796 -0.0020980 0.0000500 -0.0004294 -0.0000044 -0.0013408 0.0006376 -0.0015934 -0.0006204 -0.0038924 -0.0011962 -0.0042817 -0.0017448 -0.0066530 -0.0012326 -0.0044437 -0.0005074 -0.0003631 -0.0048564 -0.0086873 -0.0001367 -0.0012936 -0.0005102 -0.0028823 -0.0002328 -0.0016484 -0.0008260 -0.0012085 -0.0013013 0.0039063 0.0083632 0.0143081 -0.0012110 -0.0036034 0.0091433 0.0189134 -0.0004333 0.0011615 0.0000131 0.0000636 -0.0003962 0.0006152 0.0002483 -0.0008810 0.0001151 -0.0005470 0.0000648 -0.0004335 0.0018479 -0.0026553 -0.0026414 -0.0071246 0.0019263 -0.0205689 0.0119241 -0.0179351 0.0005887 -0.0016920 -0.0002444 0.0004447 -0.0086094 0.0069737 0.0006195 0.0002198 -0.0001951 -0.0001844 -0.0010286 -0.0007095 0.0008650 -0.0014237 0.0001977 -0.0008255 0.0040732 -0.0042393 0.0046338 -0.0049234 0.0001902 0.0001625 -0.0011756 0.0012755 -0.0000597 -0.0011726 0.0003967 0.0003834 0.0000238 -0.0004341 -0.0018411 0.0025144 0.0110881 -0.0383061 -0.0018995 -0.0034677 -0.0006582 0.0000042 -0.0004647 0.0002760 -0.0001750 -0.0000138 -0.0000176 -0.0006963 0.0004351 -0.0000178 0.0010409 -0.0008751 0.0019255 -0.0033389 0.0008070 -0.0007191 -0.0004077 -0.0001608 -0.0001750 -0.0003493 0.0133674 -0.0137801 0.0000949 -0.0002062 -0.0043264 0.0042457 -0.0003074 -0.0005144 0.0000057 -0.0000626 0.0001603 -0.0003449 -0.0002508 -0.0001469 -0.0001006 -0.0002153 -0.0014636 0.0006809 -0.0001809 0.0001403 0.0000037 0.0004308 0.0014993 -0.0101200 0.0000828 -0.0001291 -0.0000334 -0.0001877 0.0002052 0.0000167 0.0010305 -0.0022731 0.0003345 -0.0002686 -0.0000126 0.0005279 0.0000484 -0.0000294 -0.0000803 0.0004112 0.0003780 -0.0034633 -0.0000853 0.0001572 0.0003512 -0.0009317 0.0001037 0.0000789 0.0003114 0.0006965 -0.0007089 0.0004601 -0.0010298 0.0033786 -0.0001821 0.0001445 0.0003109 0.0003887 0.0003383 -0.0001084 -0.0083634 0.0092349 0.0000448 0.0003704 0.0002825 -0.0001025 0.0007002 -0.0012314 0.0158510 -0.0355190 0.0002434 0.0000365 0.0016710 0.0002845 0.0001614 0.0003872 0.0002921 0.0005303 0.0002472 -0.0002606 0.0001396 -0.0001387 0.0003089 -0.0005845
0.0089010 0.0168100 -0.0000098 -0.0004454 -0.0001839 -0.0011690 0.0120846 0.0295678 0.0039139 0.0117397 0.0076692 0.0143718 -0.0005118 -0.0006273 -0.0003106 0.0012437 -0.0006367 -0.0013723 0.0001198 -0.0000788 -0.0002996 -0.0012276 0.0000228 -0.0002506 0.0000340 -0.0006643 0.0000570 -0.0021399 -0.0004413 -0.0029245 -0.0014760 -0.0054877 -0.0009428 -0.0053510 -0.0005049 -0.0037798 -0.0000455 -0.0004997 -0.0026341 -0.0070530 -0.0000794 -0.0010663 -0.0004388 -0.0014090 -0.0003005 -0.0005949 0.0001326 -0.0022376 -0.0006102 0.0015839 0.0075455 0.0131249 -0.0011462 -0.0030111 0.0083802 0.0176827 -0.0004887 0.0010757 -0.0000130 0.0000770 -0.0003973 0.0007336 0.0002161 -0.0008997 0.0001411 -0.0005263 0.0000889 -0.0004196 0.0008457 -0.0004387 -0.0026708 -0.0066879 0.0036614 -0.0166957 0.0082862 -0.0081247 0.0006264 -0.0016370 -0.0002296 -0.0000760 -0.0051334 0.0031516 0.0016202 -0.0006707 -0.0001350 -0.0002652 -0.0031996 0.0019282 -0.0010351 0.0002012 -0.0000423 -0.0006498 0.0056594 -0.0055227 0.0033682 -0.0051403 0.0002888 -0.0001533 0.0002561 0.0001356 -0.0012064 -0.0003390 0.0002753 0.0002146 0.0001150 -0.0006776 -0.0034240 0.0123186 0.0084193 -0.0096190 -0.0013569 -0.0008550 -0.0005911 0.0001416 0.0003615 -0.0009150 -0.0001575 0.0002528 -0.0002581 -0.0005465 0.0002945 -0.0001816 0.0001738 -0.0005439 -0.0009330 -0.0005061 0.0023295 -0.0019354 -0.0003890 -0.0002600 0.0001295 -0.0006176 0.0073054 -0.0065948 0.0000416 -0.0003613 -0.0016630 0.0009022 -0.0002036 -0.0003594 -0.0000525 -0.0001157 -0.0001746 -0.0002446 -0.0003416 -0.0002810 0.0000674 -0.0004747 -0.0006759 0.0003441 0.0000203 -0.0004564 0.0001879 -0.0001257 -0.0036291 0.0035390 0.0000124 -0.0001360 0.0001063 -0.0002239 0.0001699 -0.0000828 0.0004930 -0.0009379 0.0001871 -0.0005517 -0.0000446 0.0001084 0.0004265 -0.0004018 0.0000381 -0.0001907 -0.0008064 -0.0012213 -0.0001054 -0.0000172 -0.0005987 0.0001092 0.0000983 -0.0001873 0.0029409 -0.0018442 -0.0004422 0.0010399 -0.0008130 0.0052752 0.0004391 -0.0004873 0.0002030 0.0002438 0.0001040 -0.0000244 -0.0067077 0.0086496 -0.0001558 0.0002549 0.0002446 -0.0002457 0.0012547 -0.0018788 0.0110775 -0.0259948 0.0001740 -0.0000175 0.0015357 -0.0009173 0.0000169 0.0004188 0.0000618 0.0005735 0.0001790 -0.0001952 0.0001132 -0.0001438 0.0001053 -0.0001433
0.0076665 0.0147545 -0.0000466 -0.0002346 -0.0000103 -0.0004796 0.0101941 0.0257432 0.0039268 0.0084918 0.0069272 0.0134732 -0.0002688 0.0002070 0.0000031 0.0020048 -0.0004501 -0.0005305 0.0001191 -0.0000984 -0.0001218 -0.0005514 0.0000076 -0.0001673 0.0001485 -0.0003145 -0.0001132 -0.0018144 -0.0002208 -0.0017464 -0.0013806 -0.0049266 -0.0001742 -0.0043589 0.0001697 -0.0030494 0.0004792 -0.0009197 -0.0013292 -0.0045595 -0.0000477 -0.0008030 -0.0002155 -0.0002985 -0.0006348 0.0001219 0.0002772 -0.0030520 -0.0009658 -0.0001339 0.0069487 0.0123139 -0.0010681 -0.0026315 0.0076080 0.0164395 -0.0004978 0.0011228 -0.0000518 0.0002642 -0.0004299 0.0009457 0.0003229 -0.0007384 0.0001146 -0.0003690 0.0002291 -0.0004729 0.0006680 -0.0004294 -0.0035515 -0.0058777 0.0191222 -0.0379022 0.0064481 -0.0039794 0.0002039 -0.0005902 -0.0001910 0.0002586 0.0012453 -0.0014072 0.0011350 0.0002455 -0.0001360 0.0000300 -0.0033564 0.0029877 -0.0016004 0.0004587 -0.0001583 -0.0002802 -0.0039450 0.0038182 -0.0017069 0.0039463 0.0002045 0.0001088 0.0025394 -0.0011641 -0.0008763 -0.0002865 0.0002318 0.0002800 0.0001587 -0.0004938 -0.0017248 0.0014957 -0.0008067 0.0079475 -0.0013053 -0.0002205 -0.0008231 0.0005309 0.0004450 -0.0006330 -0.0001886 0.0003376 -0.0001882 -0.0005969 0.0000458 0.0000335 -0.0005978 0.0005227 0.0011420 -0.0014247 0.0015428 -0.0013072 -0.0002199 -0.0002664 -0.0000201 -0.0002786 0.0067764 -0.0123282 -0.0001911 -0.0001317 0.0011506 -0.0026133 -0.0001452 -0.0004022 -0.0000790 -0.0001258 -0.0001960 -0.0002041 -0.0000362 -0.0007408 0.0001935 -0.0005592 0.0018797 -0.0018228 -0.0001094 -0.0003607 0.0002853 -0.0003896 -0.0083303 0.0091731 -0.0000571 -0.0000017 0.0000813 -0.0001160 0.0001071 -0.0000322 -0.0001493 0.0003447 0.0001866 -0.0006161 -0.0000467 -0.0000734 0.0005373 -0.0004504 0.0000104 -0.0002760 0.0011732 -0.0018115 -0.0011351 0.0005858 -0.0006652 0.0002725 0.0001355 -0.0003086 0.0013311 -0.0000306 0.0006009 -0.0003817 0.0001353 0.0064701 0.0011679 -0.0011742 0.0001854 0.0003478 0.0001045 -0.0002728 -0.0116057 0.0132188 0.0000497 -0.0000733 0.0001987 -0.0001962 0.0002976 -0.0006110 -0.0086703 0.0045546 0.0001329 -0.0000214 0.0015977 -0.0024737 -0.0000064 0.0005050 0.0000154 0.0006059 0.0001035 -0.0003313 0.0001160 -0.0003459 0.0001859 -0.0003209
0.0072052 0.0139071 -0.0000599 -0.0004664 -0.0000125 -0.0005865 0.0094823 0.0240588 0.0037677 0.0074071 0.0065501 0.0128065 -0.0002597 0.0000478 0.0000355 0.0017835 -0.0004193 -0.0005323 0.0000681 -0.0001963 -0.0000975 -0.0006061 0.0000274 -0.0003717 0.0001757 -0.0003732 -0.0000653 -0.0017101 -0.0001926 -0.0014454 -0.0012216 -0.0043044 -0.0001767 -0.0039784 0.0001947 -0.0030192 0.0005063 -0.0008041 -0.0010157 -0.0044949 -0.0000386 -0.0008596 -0.0001977 -0.0002702 -0.0003759 -0.0002139 0.0002933 -0.0032240 -0.0009998 -0.0003546 0.0066329 0.0119360 -0.0010335 -0.0025059 0.0071834 0.0158309 -0.0005090 0.0011541 -0.0000709 0.0003581 -0.0004626 0.0010366 0.0000503 -0.0001143 -0.0000008 -0.0000571 0.0001774 -0.0003764 0.0001035 -0.0001552 -0.0038465 -0.0053069 0.0182004 -0.0290675 -0.0010438 0.0080019 0.0000512 -0.0001629 -0.0002236 0.0004780 0.0011311 -0.0011736 0.0013155 -0.0003899 -0.0001700 0.0003391 -0.0022023 0.0023277 -0.0011909 0.0003365 0.0000907 -0.0002399 -0.0035524 0.0021257 -0.0038715 0.0060646 0.0003800 0.0000687 0.0024719 -0.0014354 -0.0004301 -0.0004885 0.0000627 0.0005408 -0.0000082 -0.0000764 0.0042181 0.0039621 0.0008013 -0.0003212 -0.0013479 -0.0000188 -0.0003758 0.0001941 0.0009282 -0.0003591 -0.0002469 0.0005639 -0.0000778 -0.0001888 0.0000423 0.0001938 -0.0009338 0.0011074 0.0028111 -0.0046087 -0.0008814 0.0008439 -0.0002531 0.0000014 -0.0001001 -0.0000204 0.0104326 -0.0142472 -0.0000219 0.0000629 0.0018819 -0.0013839 -0.0003551 0.0002368 -0.0000503 0.0001219 -0.0001321 -0.0001168 -0.0001106 -0.0001044 0.0004134 -0.0004083 0.0028888 -0.0031145 -0.0002337 0.0001265 0.0003667 -0.0002584 -0.0089849 0.0030095 -0.0000658 0.0001802 0.0000759 -0.0000099 0.0000597 0.0002712 0.0002390 -0.0003750 0.0001861 -0.0002965 -0.0001030 0.0003270 0.0003310 -0.0002650 0.0000009 0.0000224 -0.0000038 0.0000349 -0.0002048 0.0001636 -0.0004509 0.0002043 0.0001728 -0.0002430 -0.0002194 0.0013200 0.0024567 -0.0021471 -0.0031919 0.0082349 0.0010407 -0.0006035 0.0001589 0.0005909 0.0000852 0.0000026 -0.0223609 0.0227983 0.0002770 0.0000115 0.0001892 -0.0000296 -0.0008184 0.0006271 -0.0131747 0.0148939 0.0000453 0.0002041 0.0018961 -0.0020744 0.0000052 0.0005930 0.0002349 0.0005367 0.0001425 -0.0003570 0.0000817 -0.0003376 0.0000744 -0.0001174
0.0068439 0.0133259 -0.0000646 -0.0005651 -0.0000269 -0.0005788 0.0088895 0.0227453 0.0036175 0.0066318 0.0062246 0.0122504 -0.0003020 -0.0000101 0.0000464 0.0016389 -0.0003792 -0.0004978 0.0000212 -0.0002089 -0.0003890 -0.0004499 -0.0000152 -0.0004392 0.0001397 -0.0002679 -0.0000229 -0.0017200 -0.0001881 -0.0011700 -0.0010992 -0.0033893 -0.0002024 -0.0036704 0.0000631 -0.0029052 0.0004850 -0.0009059 -0.0013997 -0.0046832 -0.0000276 -0.0009360 -0.0002406 -0.0002593 0.0000957 -0.0004173 0.0003708 -0.0034839 -0.0007179 -0.0006581 0.0063357 0.0115513 -0.0009939 -0.0023820 0.0068079 0.0151836 -0.0005369 0.0010866 -0.0001071 0.0003054 -0.0004860 0.0009707 0.0003355 -0.0005849 0.0000178 -0.0000953 0.0001978 -0.0005034 0.0011719 -0.0005832 -0.0038536 -0.0048060 0.0043546 -0.0121360 -0.0085922 0.0081619 -0.0000631 -0.0001343 -0.0004360 0.0005433 0.0001298 0.0004977 0.0012450 -0.0011706 -0.0001298 0.0003363 -0.0047444 0.0033886 -0.0004177 0.0001168 0.0001209 -0.0001259 0.0011286 0.0021774 0.0078092 -0.0106656 0.0002401 -0.0000032 0.0024678 -0.0032468 -0.0011392 0.0001427 0.0000023 0.0006326 0.0000971 0.0000260 0.0025029 0.0056017 0.0126273 -0.0151716 -0.0014642 0.0001825 -0.0007528 0.0005305 0.0007476 -0.0003642 -0.0002901 0.0006056 0.0000271 -0.0000579 0.0001785 0.0001549 -0.0010704 0.0002444 -0.0004103 -0.0017348 -0.0007446 0.0012014 -0.0002610 0.0000602 0.0000109 -0.0001070 -0.0025035 0.0052784 0.0000474 0.0001767 0.0027409 -0.0023804 -0.0004099 0.0003381 -0.0001014 0.0003398 0.0000080 0.0001923 -0.0001854 0.0003121 0.0002390 -0.0000972 0.0019636 -0.0024060 -0.0002923 0.0003884 0.0002894 0.0000670 0.0022067 -0.0049347 -0.0000612 0.0002588 0.0003747 -0.0000096 0.0000360 0.0005363 0.0001434 0.0005635 0.0003227 0.0000687 -0.0001796 0.0007282 0.0002885 0.0000044 0.0000266 0.0002642 -0.0044465 0.0054919 0.0005729 0.0002857 -0.0006847 0.0008538 0.0000475 0.0002253 0.0003210 0.0001856 0.0011873 0.0001462 -0.0058368 0.0078144 0.0008419 0.0000105 0.0001688 0.0007997 0.0000769 0.0006312 0.0005854 0.0042614 0.0000119 0.0005687 0.0001938 0.0002203 -0.0004088 0.0004199 -0.0212688 0.0215419 0.0000676 0.0004828 0.0009424 0.0000394 0.0000395 0.0007123 0.0002141 0.0007374 0.0002091 0.0000199 0.0000735 0.0001342 0.0000541 0.0004360
0.0065216 0.0132165 -0.0000811 -0.0001998 -0.0000530 -0.0001690 0.0083768 0.0216342 0.0035039 0.0063249 0.0059536 0.0119791 -0.0003209 0.0001268 0.0000229 0.0016284 -0.0004203 -0.0001797 0.0000093 -0.0000196 -0.0003795 -0.0001574 -0.0000764 -0.0001594 0.0000416 0.0000292 0.0000348 -0.0014964 -0.0001930 -0.0008669 -0.0009509 -0.0025208 -0.0003007 -0.0033233 0.0001306 -0.0027996 0.0005175 -0.0008398 -0.0011199 -0.0042878 -0.0000484 -0.0008563 -0.0002560 -0.0001870 -0.0004293 0.0002772 0.0004447 -0.0036190 -0.0006249 -0.0005668 0.0060736 0.0112343 -0.0009484 -0.0022047 0.0064664 0.0146016 -0.0005557 0.0010354 -0.0001377 0.0002937 -0.0004818 0.0009116 0.0003061 -0.0006669 0.0000026 -0.0000497 0.0003650 -0.0007021 0.0012771 -0.0002522 -0.0030454 -0.0049067 -0.0080166 -0.0030764 -0.0017498 -0.0085236 0.0001477 -0.0002426 -0.0004781 0.0007358 0.0043645 -0.0025724 0.0020519 -0.0013263 -0.0001870 0.0004825 -0.0068996 0.0044947 0.0000891 -0.0000249 0.0000345 0.0001646 -0.0002832 0.0017400 0.0017209 -0.0046865 0.0001756 -0.0001536 0.0022346 -0.0023818 -0.0007409 0.0002291 -0.0000106 0.0008423 0.0002465 0.0000684 -0.0026929 0.0045006 0.0114129 -0.0179915 -0.0011624 -0.0000255 -0.0007258 0.0006327 -0.0010020 0.0004282 -0.0002835 0.0004307 0.0000472 -0.0003833 0.0001130 0.0002069 0.0000579 -0.0002267 -0.0028398 0.0020662 -0.0007099 0.0013147 -0.0002383 0.0000218 -0.0000575 -0.0001778 -0.0142432 0.0204961 -0.0000416 0.0001139 -0.0008409 0.0009752 -0.0001062 0.0000442 -0.0000901 0.0002332 -0.0000147 0.0000877 0.0002904 -0.0003482 -0.0000107 -0.0000903 0.0011559 -0.0011764 -0.0004281 0.0002796 0.0000664 0.0002423 0.0037178 0.0054669 0.0000057 0.0001666 0.0000944 0.0003267 0.0000045 0.0005074 0.0004705 0.0009355 0.0003441 -0.0000053 -0.0002112 0.0007057 0.0003456 -0.0000955 -0.0000999 0.0003052 0.0003107 -0.0000287 0.0000445 0.0012525 0.0003539 -0.0001654 0.0000000 0.0004132 0.0001052 0.0013118 0.0009789 0.0011722 -0.0043927 0.0055926 0.0005414 0.0000590 0.0001882 0.0008462 0.0001415 0.0006323 0.0102685 -0.0122080 -0.0000224 0.0008357 0.0002078 0.0002831 0.0003268 -0.0008755 -0.0265663 0.0251407 0.0000235 0.0006021 0.0007670 -0.0006315 0.0000856 0.0007604 0.0001163 0.0009786 0.0001243 0.0003794 0.0000493 0.0004380 0.0001813 0.0006877
0.0062451 0.0130228 -0.0000688 0.0000345 -0.0000717 0.0000954 0.0079364 0.0206931 0.0033963 0.0059592 0.0057128 0.0117031 -0.0003645 0.0002317 0.0000162 0.0016227 -0.0004487 0.0000596 -0.0000053 0.0001485 -0.0002211 -0.0000604 -0.0000501 0.0000749 0.0000089 0.0001298 0.0000624 -0.0012691 -0.0001812 -0.0006221 -0.0008645 -0.0023127 -0.0001990 -0.0030664 0.0000812 -0.0023476 0.0005464 -0.0005954 -0.0008003 -0.0039373 -0.0000748 -0.0005693 -0.0001642 -0.0000156 -0.0002696 0.0004369 0.0005102 -0.0036061 -0.0006337 -0.0002643 0.0058549 0.0109627 -0.0009196 -0.0019479 0.0061762 0.0142544 -0.0005792 0.0011483 -0.0001769 0.0004946 -0.0005144 0.0010843 0.0004370 -0.0005320 -0.0001141 0.0003904 0.0002057 -0.0001344 -0.0002979 0.0014073 -0.0020769 -0.0051950 -0.0062070 -0.0061277 0.0039570 -0.0033191 0.0002083 0.0001165 -0.0003514 0.0009167 0.0060849 -0.0055220 0.0027564 -0.0010326 -0.0002004 0.0007771 -0.0068490 0.0049504 0.0000899 0.0004181 0.0001152 0.0003851 0.0035842 -0.0058527 -0.0114376 0.0097269 0.0000072 0.0002120 0.0010065 0.0001617 -0.0011129 0.0007285 0.0000278 0.0011126 0.0000790 0.0004134 -0.0164763 0.0154281 0.0234620 -0.0468665 -0.0011639 0.0000404 -0.0007355 0.0007276 -0.0013819 0.0006807 -0.0002858 0.0004088 -0.0000204 -0.0003437 -0.0000016 0.0002596 -0.0006476 0.0020390 -0.0022358 0.0013603 -0.0009512 0.0008290 -0.0002073 0.0001837 0.0001051 -0.0002750 -0.0080135 0.0192249 -0.0000332 0.0000647 -0.0025481 0.0031442 0.0000021 0.0000488 -0.0000387 0.0002540 0.0001831 -0.0002654 0.0004587 -0.0005980 0.0000610 -0.0001149 0.0022309 -0.0023555 -0.0003604 0.0000976 0.0000381 0.0002109 -0.0026154 0.0096579 -0.0000159 0.0002480 -0.0000722 0.0005160 -0.0000045 0.0004329 -0.0009468 0.0021383 0.0001517 0.0003186 0.0000132 0.0005257 0.0004706 -0.0002406 -0.0001007 0.0003357 0.0036020 -0.0049519 -0.0003266 0.0015799 0.0001944 -0.0001659 0.0000802 0.0002894 0.0020876 0.0004129 -0.0001127 0.0014943 0.0029974 -0.0013917 0.0003270 0.0000944 0.0001928 0.0008211 0.0000205 0.0006941 0.0113460 -0.0169934 0.0005159 0.0004915 0.0002210 0.0002475 -0.0001934 -0.0002532 -0.0228151 0.0100434 0.0001064 0.0004838 -0.0014700 0.0016530 0.0000465 0.0007483 0.0002586 0.0008903 0.0000314 0.0002147 0.0000913 0.0000565 0.0000950 0.0004159
0.0060245 0.0123565 -0.0001057 -0.0002068 -0.0000564 -0.0001271 0.0075696 0.0197805 0.0032755 0.0052102 0.0054853 0.0112336 -0.0003706 0.0000908 0.0000169 0.0014355 -0.0003897 -0.0000626 -0.0000277 0.0000531 -0.0002548 -0.0001238 -0.0000050 -0.0001196 -0.0000001 0.0000694 0.0000744 -0.0012683 -0.0001646 -0.0005343 -0.0008619 -0.0023651 -0.0001107 -0.0030312 -0.0000975 -0.0019805 0.0005364 -0.0005548 -0.0013282 -0.0029910 -0.0000692 -0.0005061 -0.0001676 0.0001501 0.0004549 -0.0003526 0.0005527 -0.0035160 -0.0005133 -0.0001752 0.0056303 0.0106874 -0.0009004 -0.0017597 0.0059057 0.0138802 -0.0006117 0.0011900 -0.0002122 0.0005943 -0.0005446 0.0012113 -0.0000128 0.0001579 -0.0000575 0.0004114 -0.0000643 0.0004464 -0.0008410 0.0014270 -0.0022072 -0.0045643 0.0132173 -0.0205124 0.0146498 -0.0278010 0.0001061 0.0005230 -0.0003972 0.0008939 0.0041324 -0.0028085 0.0012826 0.0005086 -0.0000892 0.0009587 -0.0012601 0.0014311 0.0009659 -0.0001285 0.0000566 0.0006540 0.0032172 -0.0031756 -0.0046814 0.0028237 -0.0002469 0.0007599 -0.0000701 0.0014197 -0.0013264 0.0008772 -0.0000092 0.0013097 0.0000976 0.0006802 -0.0099849 0.0055029 0.0123450 -0.0203669 -0.0012066 0.0002225 -0.0012418 0.0010943 0.0001063 -0.0000563 -0.0003072 0.0006005 0.0000835 -0.0001145 -0.0000967 0.0004895 -0.0007216 0.0019117 -0.0021331 0.0023932 -0.0008183 0.0012040 -0.0002222 0.0004129 0.0000674 -0.0000574 -0.0037013 0.0104072 0.0000215 0.0002130 0.0018397 -0.0044048 -0.0000981 0.0003413 -0.0001606 0.0005689 0.0000182 0.0000183 0.0001312 -0.0003349 0.0003191 -0.0002385 0.0012077 -0.0009799 -0.0002656 0.0004081 0.0000195 0.0002904 0.0114543 -0.0175117 0.0000023 0.0002662 -0.0000266 0.0003668 0.0000167 0.0004237 -0.0016555 0.0016332 0.0001973 0.0004408 0.0000461 0.0006230 0.0000589 0.0004172 -0.0001343 0.0004219 0.0011997 -0.0004755 -0.0008544 0.0019768 -0.0005326 0.0007246 -0.0000570 0.0004193 0.0031863 -0.0007109 -0.0004027 0.0009428 0.0030552 0.0003256 0.0001730 0.0004162 0.0001699 0.0008520 0.0000673 0.0005706 0.0094835 -0.0125908 0.0005780 0.0003782 0.0002065 0.0002879 -0.0000262 0.0011126 -0.0012338 -0.0248960 0.0001704 0.0003715 -0.0025588 0.0038072 0.0000493 0.0006973 0.0003606 0.0006630 0.0000291 0.0000532 0.0001136 -0.0000957 0.0000725 0.0000848
0.0057977 0.0118726 -0.0001373 -0.0003451 -0.0000845 -0.0001551 0.0072214 0.0189996 0.0032024 0.0047577 0.0052710 0.0108357 -0.0003605 -0.0000028 0.0000297 0.0014051 -0.0004290 -0.0001223 -0.0000454 -0.0000094 -0.0001168 -0.0003388 -0.0000490 -0.0001845 0.0000151 0.0000200 0.0000656 -0.0013749 -0.0001714 -0.0005130 -0.0008935 -0.0026605 -0.0002028 -0.0029062 0.0000438 -0.0022564 0.0005447 -0.0004483 -0.0006697 -0.0031169 -0.0000540 -0.0006443 -0.0002210 0.0001229 -0.0002138 -0.0001452 0.0006149 -0.0034078 -0.0002886 -0.0003163 0.0053940 0.0103756 -0.0008689 -0.0016527 0.0056650 0.0133169 -0.0006400 0.0010763 -0.0002679 0.0005028 -0.0005509 0.0010438 -0.0003001 0.0002397 0.0000300 0.0001229 -0.0000160 0.0002179 -0.0001289 -0.0001213 -0.0022722 -0.0039486 0.0087663 -0.0071330 -0.0091593 0.0040211 0.0004790 -0.0001816 -0.0004593 0.0007479 0.0065448 -0.0041311 0.0006314 0.0010910 -0.0000658 0.0009555 0.0010139 -0.0007336 0.0008802 -0.0001385 -0.0000288 0.0008736 0.0021669 -0.0023814 -0.0042318 0.0055142 -0.0000119 0.0004960 -0.0000892 0.0015250 -0.0004151 0.0001008 0.0000205 0.0011395 0.0002591 0.0006009 0.0000976 -0.0022600 -0.0001444 -0.0089652 -0.0008187 0.0002234 -0.0012709 0.0010158 -0.0001566 0.0008401 -0.0003307 0.0006758 0.0000003 -0.0000011 -0.0000949 0.0006508 -0.0007497 0.0012936 -0.0043158 0.0045468 0.0000218 0.0008200 -0.0003283 0.0006276 0.0000332 -0.0000764 0.0069882 -0.0057838 -0.0000389 0.0005110 0.0004677 -0.0026181 -0.0001143 0.0007224 -0.0003542 0.0009511 0.0000150 0.0002722 0.0000795 -0.0000453 0.0002787 0.0000219 -0.0005476 0.0009849 -0.0001629 0.0005572 0.0000403 0.0004502 0.0165319 -0.0312904 0.0000232 0.0002986 -0.0001596 0.0006973 -0.0000080 0.0006773 0.0003802 -0.0002078 0.0001107 0.0005460 -0.0000858 0.0009978 -0.0002884 0.0010778 -0.0001929 0.0006180 0.0025128 -0.0028510 -0.0009592 0.0023795 -0.0003762 0.0010939 -0.0000923 0.0005705 0.0018427 0.0001841 0.0008741 0.0012737 0.0015164 0.0049850 -0.0001657 0.0009211 0.0002195 0.0009144 0.0002810 0.0004228 -0.0031320 0.0004396 0.0000708 0.0007756 0.0001792 0.0004178 0.0008212 0.0001578 -0.0068412 0.0002317 0.0001453 0.0004195 0.0006044 -0.0000103 0.0001101 0.0006529 0.0003160 0.0006096 0.0000527 0.0000553 0.0000713 -0.0001362 0.0000802 -0.0001672
0.0055766 0.0114554 -0.0001220 -0.0004531 -0.0000948 -0.0001811 0.0069191 0.0183029 0.0031379 0.0044772 0.0050747 0.0104643 -0.0004064 -0.0000276 0.0000674 0.0014290 -0.0004543 -0.0001498 -0.0000539 -0.0000809 -0.0002628 -0.0003096 -0.0000720 -0.0002266 0.0000677 -0.0001527 0.0000320 -0.0015236 -0.0001759 -0.0005239 -0.0009380 -0.0029475 -0.0003071 -0.0026793 0.0001021 -0.0024182 0.0005690 -0.0002706 -0.0007978 -0.0032851 -0.0000578 -0.0007242 -0.0001943 -0.0000088 -0.0002126 -0.0001124 0.0006443 -0.0032958 -0.0004240 -0.0001723 0.0051995 0.0100936 -0.0008173 -0.0014437 0.0054443 0.0128144 -0.0006503 0.0010077 -0.0003186 0.0004679 -0.0005377 0.0009161 -0.0002238 0.0002136 0.0000314 0.0001693 0.0000333 0.0000955 0.0001047 -0.0007118 -0.0023855 -0.0034602 0.0041625 -0.0054576 -0.0155313 0.0147849 0.0004402 -0.0001586 -0.0002507 0.0005056 0.0048826 -0.0054525 -0.0000701 0.0021476 -0.0000658 0.0008490 -0.0011632 0.0008964 0.0007892 0.0004369 -0.0000664 0.0008999 -0.0007520 -0.0002574 -0.0001879 -0.0001278 -0.0000042 0.0004815 -0.0001010 0.0011064 -0.0000803 0.0000079 0.0002022 0.0009131 0.0001691 0.0005193 -0.0104057 0.0193001 -0.0011958 -0.0102743 -0.0011294 0.0006835 -0.0013744 0.0010996 -0.0016822 0.0023727 -0.0002939 0.0004641 -0.0004245 0.0003062 -0.0000455 0.0005005 -0.0015308 0.0019554 -0.0039472 0.0037869 0.0005615 -0.0003493 -0.0004353 0.0006736 -0.0000646 -0.0000606 0.0049626 -0.0097000 -0.0002460 0.0005032 0.0002701 -0.0003844 0.0004923 -0.0000798 -0.0002374 0.0008293 0.0001293 0.0001888 -0.0001671 0.0002337 0.0000678 0.0002464 -0.0005054 0.0004371 0.0000362 0.0003733 0.0002380 0.0003230 -0.0004241 -0.0000482 -0.0000582 0.0003656 0.0001840 0.0005961 0.0000709 0.0005883 -0.0000292 0.0015295 -0.0002922 0.0009474 -0.0000553 0.0009868 -0.0000252 0.0010138 -0.0001917 0.0007429 0.0037623 -0.0040132 0.0003590 0.0010262 0.0004432 0.0003797 -0.0000136 0.0005688 0.0023513 -0.0007877 -0.0010668 0.0025358 0.0004204 0.0041629 -0.0000905 0.0008240 0.0002824 0.0008721 0.0002690 0.0006149 -0.0085402 0.0025648 0.0001865 0.0006822 0.0001521 0.0004805 0.0001944 0.0004493 0.0042194 0.0078013 -0.0000233 0.0007625 0.0007153 0.0005568 0.0001103 0.0006828 0.0002656 0.0008154 0.0000941 0.0002748 0.0000668 0.0001122 0.0002136 0.0000547
0.0053819 0.0113056 -0.0001388 -0.0002014 -0.0000792 0.0000142 0.0066389 0.0177041 0.0030788 0.0043519 0.0048816 0.0103081 -0.0004475 0.0000551 0.0000728 0.0015222 -0.0004473 -0.0000715 -0.0000665 0.0000813 -0.0005039 0.0000400 -0.0000988 -0.0000447 -0.0000522 0.0001375 0.0000117 -0.0015999 -0.0002083 -0.0004957 -0.0009626 -0.0030301 -0.0002934 -0.0025507 0.0001937 -0.0024586 0.0005562 -0.0001866 -0.0008777 -0.0031974 -0.0000713 -0.0006525 -0.0001797 -0.0000114 0.0004934 -0.0005605 0.0006356 -0.0032483 -0.0005697 -0.0001414 0.0050379 0.0098099 -0.0007873 -0.0012494 0.0052166 0.0123627 -0.0006410 0.0009272 -0.0003177 0.0003666 -0.0005485 0.0008284 0.0001604 0.0000848 0.0000510 0.0002041 0.0001050 0.0000233 -0.0006750 0.0006927 -0.0024079 -0.0035784 0.0069605 -0.0060227 0.0041223 -0.0264123 0.0000519 0.0001384 -0.0002679 0.0004700 0.0003131 -0.0021595 -0.0013518 0.0020224 -0.0000763 0.0006615 -0.0007047 -0.0002626 0.0001934 0.0007354 -0.0001276 0.0007827 -0.0025023 0.0027772 0.0038324 -0.0090598 -0.0001707 0.0005903 -0.0007422 0.0021406 0.0000494 -0.0001955 0.0001885 0.0009544 0.0000396 0.0005152 -0.0155631 0.0251043 0.0024629 -0.0055743 -0.0010685 0.0004693 -0.0014280 0.0011485 -0.0003830 0.0006816 -0.0002744 0.0002660 -0.0004439 0.0001764 -0.0000090 0.0002745 -0.0015137 0.0010762 0.0004679 -0.0005845 0.0008645 -0.0007332 -0.0003230 0.0002591 -0.0001626 -0.0000772 -0.0321694 0.0198935 -0.0002801 0.0002033 0.0043484 -0.0040011 0.0008301 -0.0007627 -0.0001508 0.0005615 -0.0002067 0.0002227 -0.0002038 0.0000646 0.0000379 -0.0000082 0.0000748 0.0003820 0.0000188 0.0003726 0.0000650 0.0004347 0.0032796 0.0047909 0.0000328 0.0001925 0.0004620 0.0001885 0.0000797 0.0003021 -0.0001347 0.0012391 -0.0004823 0.0010667 -0.0001819 0.0008340 -0.0004178 0.0010709 -0.0001837 0.0005889 0.0013206 -0.0001045 0.0001702 0.0008518 0.0006464 0.0000706 -0.0000272 0.0004333 0.0015461 0.0005467 -0.0006069 0.0013345 -0.0025612 -0.0006594 -0.0002597 0.0005084 0.0002240 0.0005924 0.0001039 0.0003414 -0.0149647 0.0080713 0.0006601 -0.0000114 0.0001273 0.0001452 -0.0009794 0.0015487 0.0040500 0.0077715 -0.0001634 0.0006094 -0.0015572 0.0038688 0.0000927 0.0003957 0.0001016 0.0005279 0.0001412 0.0000852 0.0000832 0.0000385 0.0002262 0.0002255
0.0052090 0.0109735 -0.0001380 -0.0002119 -0.0000723 0.0000177 0.0063434 0.0170803 0.0030158 0.0040370 0.0046871 0.0099143 -0.0004526 -0.0000074 0.0001034 0.0015353 -0.0004975 -0.0002357 -0.0000658 0.0001576 -0.0003867 0.0000340 -0.0000769 0.0000440 0.0000075 0.0001767 -0.0000836 -0.0019246 -0.0002530 -0.0005759 -0.0009787 -0.0037503 -0.0003111 -0.0024867 0.0002017 -0.0022831 0.0005196 -0.0001648 -0.0010106 -0.0029980 -0.0000657 -0.0005509 -0.0002050 0.0000012 -0.0000525 -0.0000459 0.0006485 -0.0031887 -0.0004147 -0.0003720 0.0048529 0.0095693 -0.0007778 -0.0011043 0.0049987 0.0121500 -0.0006590 0.0009964 -0.0003083 0.0004364 -0.0005582 0.0009535 0.0002168 -0.0003568 -0.0000549 0.0003902 0.0000105 0.0001434 -0.0010350 0.0023082 -0.0018969 -0.0036545 0.0011795 -0.0021686 -0.0034307 -0.0063271 0.0001458 0.0001663 -0.0004076 0.0006464 0.0036115 -0.0029090 0.0002128 -0.0010746 -0.0000447 0.0006209 -0.0008395 -0.0008291 -0.0001488 0.0003424 -0.0000082 0.0007008 -0.0012777 0.0029718 0.0033184 -0.0045559 -0.0001881 0.0006196 -0.0005695 0.0021494 -0.0001057 -0.0002339 0.0001061 0.0009381 0.0000103 0.0004706 -0.0115954 0.0108188 0.0046660 -0.0098176 -0.0006294 -0.0003103 -0.0009484 0.0008659 -0.0000033 0.0000737 -0.0002422 0.0001372 -0.0001302 -0.0004527 0.0000631 0.0000974 -0.0004269 0.0001729 0.0020624 -0.0037295 0.0008317 -0.0008325 -0.0002154 0.0000831 -0.0000067 -0.0002919 -0.0199145 0.0067004 -0.0002867 0.0000998 0.0015736 -0.0003069 0.0001781 -0.0003243 -0.0001559 0.0004383 -0.0000007 -0.0001126 0.0003060 -0.0007217 -0.0000295 -0.0001133 -0.0001178 0.0003347 0.0002618 -0.0000616 0.0000123 0.0004187 0.0002422 0.0038956 0.0001167 -0.0000324 -0.0000211 0.0002926 -0.0000432 0.0001974 -0.0000011 -0.0000109 -0.0001444 0.0004874 -0.0001741 0.0006577 -0.0007466 0.0012155 0.0000088 0.0002228 -0.0034876 0.0024826 -0.0005127 0.0010958 -0.0003040 0.0006186 -0.0000208 0.0002678 -0.0009179 0.0028342 0.0024561 -0.0007328 0.0033775 -0.0106398 -0.0005586 0.0003141 0.0001922 0.0002922 -0.0001760 0.0004005 -0.0151007 0.0155249 0.0002252 0.0005069 0.0001772 -0.0002468 -0.0016532 0.0017703 -0.0143003 0.0216297 -0.0001029 0.0001320 -0.0014156 0.0021291 0.0000619 0.0000915 -0.0000499 0.0002477 0.0001382 -0.0003208 0.0001020 -0.0004548 0.0002242 -0.0003520
0.0050322 0.0103179 -0.0001455 -0.0006024 -0.0000831 -0.0003264 0.0060873 0.0163375 0.0029648 0.0035406 0.0045313 0.0092360 -0.0004395 -0.0003000 0.0001568 0.0012654 -0.0004829 -0.0007014 -0.0000099 -0.0001375 -0.0003669 -0.0002150 -0.0000610 -0.0002674 0.0001414 -0.0001898 -0.0001851 -0.0024347 -0.0002667 -0.0008988 -0.0009917 -0.0046091 -0.0003266 -0.0027053 0.0001043 -0.0023739 0.0005074 -0.0003704 -0.0011561 -0.0037266 -0.0000671 -0.0007122 -0.0002526 -0.0001251 -0.0005164 0.0000418 0.0006641 -0.0032347 -0.0002791 -0.0004978 0.0046955 0.0092851 -0.0007633 -0.0010455 0.0048279 0.0118449 -0.0006784 0.0010131 -0.0003045 0.0004178 -0.0005150 0.0009347 -0.0003132 0.0000515 -0.0000815 0.0004109 0.0000019 0.0002378 -0.0013239 0.0026239 -0.0020140 -0.0033429 -0.0047173 0.0050831 -0.0079836 0.0070981 0.0005043 -0.0001391 -0.0001903 0.0003183 -0.0015281 0.0028287 0.0009459 -0.0013944 -0.0000753 0.0005949 -0.0026382 0.0014573 0.0013769 -0.0005096 -0.0000598 0.0005969 -0.0041258 0.0025537 -0.0042000 0.0023607 0.0001346 0.0002303 -0.0002883 0.0007716 -0.0007640 0.0003060 -0.0000452 0.0009405 -0.0000689 0.0004871 -0.0028070 0.0016822 0.0021769 -0.0040564 -0.0007488 -0.0002089 -0.0004161 0.0004349 -0.0006487 0.0006730 -0.0002015 0.0001896 -0.0001089 -0.0003241 0.0000075 0.0002169 0.0007150 -0.0002636 0.0003460 -0.0007771 -0.0006602 0.0009780 -0.0002427 0.0003464 0.0001540 -0.0001813 0.0054200 -0.0118232 -0.0002272 0.0002279 -0.0029671 0.0031582 -0.0004931 0.0001798 -0.0000943 0.0003752 0.0002558 -0.0002919 0.0002671 -0.0007453 -0.0003625 0.0001591 -0.0006058 0.0000355 0.0002392 -0.0000395 0.0001504 0.0001376 0.0015541 -0.0076110 0.0001503 -0.0001890 -0.0001891 0.0000848 0.0000148 0.0000174 0.0004913 -0.0007616 0.0001339 -0.0001444 0.0000070 0.0002789 -0.0002331 0.0008259 0.0000329 0.0001185 -0.0059582 0.0042432 -0.0002790 0.0004869 -0.0005812 0.0005225 -0.0000555 0.0000843 0.0010070 0.0008377 0.0028484 -0.0014073 0.0030037 -0.0101064 0.0002544 -0.0005631 0.0002340 0.0000330 -0.0000638 0.0000716 0.0000167 -0.0038095 -0.0000020 0.0005012 0.0002607 -0.0005339 -0.0011058 0.0008824 -0.0231284 0.0352510 0.0000314 -0.0002346 0.0005493 -0.0013335 0.0000626 -0.0000738 -0.0000783 0.0001486 0.0000623 -0.0004875 0.0001506 -0.0008332 0.0001599 -0.0009949
0.0048667 0.0098089 -0.0001686 -0.0008086 -0.0001190 -0.0005480 0.0058632 0.0157214 0.0029261 0.0032736 0.0043939 0.0088611 -0.0004079 -0.0005295 0.0001560 0.0009841 -0.0004751 -0.0008964 0.0000209 -0.0003216 -0.0003835 -0.0004018 -0.0000802 -0.0004384 0.0000457 -0.0002523 -0.0001837 -0.0027009 -0.0002516 -0.0012454 -0.0009935 -0.0046864 -0.0002101 -0.0030579 0.0002040 -0.0027019 0.0004850 -0.0007149 -0.0007825 -0.0039997 -0.0000581 -0.0008981 -0.0002355 -0.0003094 -0.0000530 -0.0006290 0.0007064 -0.0033380 -0.0004844 -0.0005419 0.0045599 0.0089772 -0.0007556 -0.0010804 0.0046861 0.0113413 -0.0006951 0.0009444 -0.0002838 0.0002104 -0.0005243 0.0007747 -0.0001050 -0.0000095 -0.0000297 0.0001434 0.0001320 -0.0001133 0.0003842 -0.0000319 -0.0033552 -0.0025675 0.0025025 -0.0002772 -0.0007607 0.0007255 0.0004195 -0.0006059 -0.0001209 0.0000732 -0.0036784 0.0042491 0.0007819 -0.0012087 -0.0000932 0.0003077 -0.0046971 0.0030863 0.0012657 -0.0005315 -0.0001737 0.0002737 0.0002992 -0.0028000 -0.0047595 -0.0026351 0.0001020 -0.0000060 -0.0019282 0.0014349 -0.0009861 0.0003244 -0.0001755 0.0007770 0.0000798 0.0001428 -0.0006585 -0.0013553 0.0037379 -0.0095286 -0.0006127 -0.0003780 -0.0002139 0.0001358 0.0007597 -0.0002538 -0.0002626 0.0002514 -0.0001227 -0.0001864 0.0000010 0.0001312 0.0008674 0.0000630 0.0001720 -0.0005726 -0.0021128 0.0022454 -0.0002097 0.0003829 0.0000346 -0.0000034 0.0160413 -0.0212198 -0.0000535 0.0002278 0.0000123 -0.0003694 -0.0001095 -0.0003373 -0.0001501 0.0003893 -0.0000070 -0.0001135 0.0001009 -0.0002654 -0.0001915 0.0001461 0.0009101 -0.0013271 0.0000410 0.0001856 0.0000226 0.0002595 0.0115511 -0.0193934 0.0001497 -0.0002318 0.0001232 -0.0002821 0.0001352 -0.0000716 0.0005121 0.0003260 0.0000701 -0.0000887 0.0000968 0.0002714 0.0001725 0.0003901 -0.0002095 0.0004494 -0.0075262 0.0066770 0.0003096 -0.0002057 -0.0005953 0.0008744 -0.0001026 0.0001332 0.0018936 -0.0012154 0.0018078 -0.0002555 -0.0017780 -0.0020671 -0.0000167 -0.0002398 0.0002037 -0.0000018 0.0000756 -0.0002223 0.0053644 -0.0182701 -0.0001385 0.0001813 0.0002266 -0.0004965 -0.0002925 0.0001042 -0.0083761 0.0160186 0.0001260 -0.0003477 0.0009698 -0.0020963 0.0000942 -0.0001796 -0.0000558 -0.0000738 0.0000468 -0.0006145 0.0002235 -0.0010438 0.0001017 -0.0009786
0.0047334 0.0094420 -0.0001565 -0.0008812 -0.0001079 -0.0006450 0.0056501 0.0152183 0.0028830 0.0031865 0.0043012 0.0085755 -0.0003877 -0.0006279 0.0001425 0.0008222 -0.0005052 -0.0009486 -0.0000420 -0.0003313 -0.0002405 -0.0005761 -0.0000643 -0.0005504 0.0001025 -0.0003683 -0.0001726 -0.0028268 -0.0002541 -0.0015048 -0.0009835 -0.0046145 -0.0002250 -0.0031042 0.0002404 -0.0027751 0.0004514 -0.0009688 -0.0004862 -0.0041764 -0.0000431 -0.0010056 -0.0001979 -0.0004646 0.0002359 -0.0007983 0.0007370 -0.0033487 -0.0007390 -0.0006360 0.0044295 0.0087360 -0.0007607 -0.0010996 0.0045403 0.0109466 -0.0007041 0.0009514 -0.0002703 0.0001435 -0.0005473 0.0007263 -0.0002571 -0.0000089 -0.0000812 -0.0000100 0.0000906 -0.0003626 0.0012191 -0.0013135 -0.0027373 -0.0027318 0.0046189 -0.0044264 0.0005769 0.0009316 0.0003487 -0.0006777 -0.0002636 0.0001396 0.0033696 -0.0018245 0.0005368 -0.0003293 -0.0000924 0.0000969 -0.0074505 0.0056287 0.0001919 -0.0002547 -0.0001383 -0.0000139 0.0098464 -0.0105248 -0.0045288 -0.0011652 -0.0000417 0.0000368 -0.0044139 0.0037650 -0.0012464 0.0006539 -0.0000392 0.0004117 0.0002245 -0.0002545 0.0060231 -0.0116983 0.0051266 -0.0262404 -0.0003660 -0.0006714 -0.0008076 0.0006622 0.0006121 -0.0006262 -0.0002871 0.0001378 -0.0002940 -0.0004707 0.0001107 -0.0001219 0.0008053 -0.0002122 0.0020973 -0.0031644 -0.0003847 0.0005112 -0.0003427 0.0003801 -0.0000671 -0.0000690 0.0055818 -0.0048847 0.0001871 -0.0001843 0.0001110 0.0003979 0.0000199 -0.0003308 -0.0002171 0.0002882 -0.0000464 -0.0004042 0.0001419 -0.0005602 0.0000916 -0.0001936 0.0014393 -0.0022479 0.0001593 -0.0002963 0.0000358 0.0001841 -0.0039473 0.0015670 0.0000966 -0.0002422 -0.0001233 -0.0001400 0.0000496 -0.0001456 -0.0006504 0.0013867 -0.0000719 0.0000248 0.0000267 0.0002984 0.0000163 0.0003729 -0.0002904 0.0004413 -0.0031487 0.0022679 0.0015054 -0.0013916 -0.0006253 0.0005177 -0.0000131 0.0000032 -0.0000487 0.0007774 -0.0022326 0.0016637 -0.0092975 0.0088063 -0.0003606 0.0001547 0.0001762 -0.0000867 -0.0000277 -0.0001678 0.0006064 -0.0221805 0.0002015 -0.0000166 0.0002210 -0.0005307 0.0000424 -0.0004247 0.0060964 -0.0044996 0.0002125 -0.0004185 -0.0003358 -0.0006945 0.0001085 -0.0002139 0.0001824 -0.0003620 0.0001388 -0.0005587 0.0002181 -0.0008561 0.0002267 -0.0007342
0.0045890 0.0093547 -0.0001231 -0.0006895 -0.0000894 -0.0004918 0.0054661 0.0148224 0.0028462 0.0032843 0.0042074 0.0084497 -0.0003649 -0.0005596 0.0001322 0.0008403 -0.0004730 -0.0009448 -0.0000872 -0.0001546 -0.0001320 -0.0005592 -0.0000211 -0.0004294 0.0002119 -0.0003687 -0.0001746 -0.0027919 -0.0002532 -0.0016064 -0.0009783 -0.0045069 -0.0003332 -0.0028830 -0.0000584 -0.0023359 0.0004387 -0.0009959 -0.0003332 -0.0045066 -0.0000503 -0.0008235 -0.0001472 -0.0003995 0.0001899 -0.0005797 0.0007253 -0.0032794 -0.0006078 -0.0006564 0.0042802 0.0085694 -0.0007708 -0.0011003 0.0044000 0.0106775 -0.0007078 0.0009942 -0.0002490 0.0001396 -0.0005603 0.0007304 -0.0002189 -0.0002348 -0.0000589 -0.0001031 0.0000361 -0.0003375 0.0009417 -0.0011614 -0.0020662 -0.0031967 0.0022004 -0.0079738 -0.0145241 0.0058941 0.0003538 -0.0007520 -0.0001194 -0.0000427 -0.0001527 -0.0005890 0.0001442 0.0008456 -0.0001317 -0.0000236 -0.0058323 0.0045647 -0.0001823 0.0003381 -0.0002523 -0.0000467 0.0082072 -0.0107078 -0.0108151 0.0065461 0.0001361 -0.0001758 -0.0015664 0.0021442 -0.0006417 0.0003045 0.0002899 0.0001631 0.0001475 -0.0002767 0.0043761 -0.0086538 -0.0011686 -0.0186477 -0.0006918 -0.0002725 -0.0014721 0.0013350 0.0000936 -0.0001207 -0.0002274 0.0000342 -0.0003020 -0.0006595 0.0002036 -0.0003251 -0.0003308 -0.0001620 0.0012317 -0.0018811 -0.0000514 0.0006223 -0.0003873 0.0003953 -0.0000146 -0.0001492 -0.0059467 0.0068395 0.0000897 -0.0003445 -0.0016808 0.0019612 -0.0000462 -0.0004918 -0.0002394 0.0001729 0.0000876 -0.0003938 0.0001888 -0.0008194 0.0001647 -0.0004942 0.0001768 -0.0019230 0.0005029 -0.0007919 0.0000023 0.0000317 -0.0151053 0.0129943 0.0000857 -0.0003285 -0.0002348 -0.0001798 0.0000190 -0.0003584 0.0005312 -0.0003313 0.0000904 -0.0002735 0.0000501 -0.0000348 -0.0001175 0.0001909 -0.0001874 0.0000102 0.0022918 -0.0023484 0.0012620 -0.0014928 0.0002669 -0.0009525 0.0000080 -0.0002386 -0.0027251 0.0037225 -0.0042975 0.0024643 -0.0087903 0.0075299 0.0005369 -0.0006852 0.0001554 -0.0003164 0.0000108 -0.0002769 0.0010313 -0.0179090 0.0008073 -0.0008037 0.0002820 -0.0008584 0.0006497 -0.0013711 -0.0073474 0.0085940 -0.0000370 -0.0003487 -0.0001221 -0.0010898 0.0001302 -0.0003791 0.0003191 -0.0006081 0.0000987 -0.0005748 0.0001921 -0.0008441 0.0000054 -0.0006728
