   2.1663805e-05   9.9344225e-06  -1.8598568e-05  -4.3336848e-05  -8.5337970e-06  -8.2039924e-06  -2.6194708e-05   6.0326806e-06  -3.1766860e-05   1.1794938e-05   2.1610107e-05   9.5755768e-06  -9.2793656e-05  -2.0425005e-05  -3.2930009e-05  -3.5959345e-06   3.3361869e-07  -1.7637341e-06  -7.5932462e-07   4.1630583e-06   6.4250607e-06  -3.5712266e-05   1.8453391e-06   7.5957789e-05  -1.1101924e-03  -5.1612496e-06  -1.0612709e-05  -6.8944100e-05  -2.6198553e-05  -1.2868346e-04   5.2811430e-07  -1.7576167e-04  -8.5660969e-05  -1.7122708e-04  -8.3763771e-05
   4.5673507e-05  -1.4775525e-05   1.5295005e-05  -1.3386583e-04   3.6819150e-05  -2.8331839e-05   2.2626966e-05   2.1356031e-05  -5.2794843e-05   3.7136299e-06   2.5873856e-05  -2.7316913e-04  -4.8537684e-05   3.0139752e-06   4.6595207e-05   2.9102628e-05   2.5073232e-05   7.2014969e-05   4.4173743e-05   9.2741975e-05   3.3864275e-05   3.3306893e-05   1.5860980e-05   1.0106448e-04  -1.5637794e-03  -8.4575986e-05  -5.9998223e-05  -1.9051296e-04  -1.7684775e-04  -3.0068803e-05  -4.4808150e-04  -1.5187114e-04  -8.9137400e-05  -1.2355576e-04  -1.6591733e-04
   6.5559601e-05  -3.6247719e-05   6.1203122e-05  -2.1937232e-04   8.0727339e-05  -3.7925438e-05   5.7272566e-05   2.0390295e-05  -7.2554525e-05  -3.3431897e-06   3.1634143e-05  -4.9352471e-04   2.6660132e-06   1.9016050e-05   1.0218625e-04   4.9825907e-05   4.3888704e-05   1.2791772e-04   8.0486650e-05   1.6051176e-04   5.4060711e-05   8.1419370e-05   2.3815082e-05   1.2553796e-04  -1.9820079e-03  -1.3601923e-04  -1.1133544e-04  -3.0070601e-04  -2.9116991e-04   3.6114103e-05  -7.7583111e-04  -1.3383137e-04  -1.1383388e-04  -1.0208689e-04  -2.3920048e-04
   7.9146754e-05  -5.2585343e-05   1.2330619e-04  -2.9529439e-04   1.2160013e-04  -3.1486597e-05   6.9638132e-05  -3.6502279e-06  -9.0911453e-05  -8.8817742e-06   3.6406793e-05  -6.1794114e-04   5.8062531e-05   2.3575165e-05   1.1934846e-04   5.3078667e-05   5.2121592e-05   1.5443502e-04   1.0227489e-04   1.9413416e-04   6.2470579e-05   9.7142562e-05   2.1009104e-05   1.4609761e-04  -2.2995907e-03  -1.5353457e-04  -1.6775622e-04  -3.9118197e-04  -3.5146900e-04   4.9616254e-05  -9.1705745e-04  -1.2564768e-04  -1.7258982e-04  -1.2341152e-04  -2.9997894e-04
   8.6968706e-05  -6.3834639e-05   1.9403824e-04  -3.5689134e-04   1.5732012e-04  -1.1072395e-05   6.1306731e-05  -4.3563556e-05  -1.0909975e-04  -1.3290747e-05   3.2289397e-05  -6.4571027e-04   1.0257364e-04   1.8007147e-05   9.9175515e-05   4.3047003e-05   4.7650094e-05   1.5082459e-04   1.0823336e-04   1.9309610e-04   5.9002559e-05   8.4451553e-05   5.7191342e-06   1.5489946e-04  -2.4326020e-03  -1.6131083e-04  -2.3356479e-04  -4.5612839e-04  -3.6459835e-04   1.2083974e-05  -8.8900747e-04  -1.2713477e-04  -2.6531279e-04  -1.8692882e-04  -3.5034071e-04
   9.1410773e-05  -7.1649854e-05   2.5617023e-04  -3.9907571e-04   1.8529336e-04   1.4938755e-05   4.2403484e-05  -8.1435050e-05  -1.2860530e-04  -1.7861341e-05   8.7164935e-06  -6.0497579e-04   1.1610580e-04   8.3449504e-06   5.6910736e-05   3.1376938e-05   3.1661657e-05   1.2637145e-04   1.0152333e-04   1.6937259e-04   4.7976606e-05   6.1420920e-05  -1.9334657e-05   1.4087697e-04  -2.2933930e-03  -2.0452305e-04  -3.1257162e-04  -4.9119332e-04  -3.5770918e-04  -5.2837946e-05  -7.8227132e-04  -1.3161138e-04  -3.7627370e-04  -2.7281459e-04  -3.9418845e-04
   9.4791743e-05  -7.8096986e-05   2.9034857e-04  -4.1648312e-04   2.0295223e-04   3.6224847e-05   2.6570846e-05  -9.7681732e-05  -1.4930540e-04  -2.4305125e-05  -4.1750875e-05  -5.3855055e-04   8.7995984e-05   2.7067777e-06   1.4772755e-05   3.0877993e-05   8.6238115e-06   9.5478135e-05   8.7944056e-05   1.4193765e-04   3.6326597e-05   5.2364830e-05  -4.6469904e-05   9.3922114e-05  -1.8053144e-03  -3.2547559e-04  -4.0556508e-04  -4.9221166e-04  -3.6452600e-04  -1.0876223e-04  -7.1454950e-04  -1.2549692e-04  -4.7607708e-04  -3.4689097e-04  -4.3114557e-04
   9.7677359e-05  -8.4142041e-05   2.8483509e-04  -4.0405223e-04   2.0867083e-04   4.5889719e-05   2.4795516e-05  -8.0859281e-05  -1.6801587e-04  -3.3833840e-05  -1.1759663e-04  -4.8535250e-04   3.0278168e-05   8.0273703e-06  -6.7228507e-06   4.8638434e-05  -1.4798086e-05   7.1214861e-05   7.3446005e-05   1.2869784e-04   3.0896335e-05   7.7227276e-05  -6.4367734e-05   1.0204987e-05  -9.3364425e-04  -5.3719903e-04  -5.0853513e-04  -4.5539747e-04  -4.0855131e-04  -1.2108611e-04  -7.7039661e-04  -9.1447531e-05  -5.3016050e-04  -3.7136598e-04  -4.5289169e-04
   9.8492870e-05  -8.8673150e-05   2.4255470e-04  -3.5841053e-04   2.0275026e-04   4.4127490e-05   4.1016428e-05  -3.3420303e-05  -1.7862274e-04  -4.6133155e-05  -2.0608930e-04  -4.6556673e-04  -1.9233674e-05   2.7669777e-05   5.5119035e-06   8.2112172e-05  -3.1713811e-05   6.0506507e-05   6.2165163e-05   1.3935985e-04   3.5926059e-05   1.4291123e-04  -6.1403916e-05  -1.0407629e-04   2.7518068e-04  -8.1087835e-04  -6.1309501e-04  -3.7997201e-04  -4.9172295e-04  -7.0594826e-05  -9.5954433e-04  -1.4916624e-05  -5.1211147e-04  -3.1803839e-04  -4.4537030e-04
   9.4687923e-05  -8.8748195e-05   1.8152456e-04  -2.7998223e-04   1.8801886e-04   3.8181148e-05   7.1271403e-05   2.8973140e-05  -1.7422385e-04  -5.8853278e-05  -2.8645666e-04  -4.7652339e-04  -7.8909388e-06   6.0757811e-05   5.6002482e-05   1.2004771e-04  -3.7303711e-05   6.2808824e-05   5.5723176e-05   1.7207526e-04   5.1670911e-05   2.4001497e-04  -3.0051066e-05  -2.3274905e-04   1.6617321e-03  -1.0858779e-03  -7.0916855e-04  -2.7249067e-04  -5.9472903e-04   3.8955477e-05  -1.2151233e-03   1.0830193e-04  -4.1615503e-04  -1.7964482e-04  -3.9668102e-04
   8.4634943e-05  -8.1282938e-05   1.2809185e-04  -1.7531459e-04   1.6960059e-04   3.8559672e-05   1.0619904e-04   8.4020321e-05  -1.5060147e-04  -6.8223912e-05  -3.3750362e-04  -5.0052709e-04   1.1084079e-04   1.0305861e-04   1.4304159e-04   1.4775457e-04  -3.0583698e-05   7.2330033e-05   5.3729524e-05   2.1514449e-04   7.4593729e-05   3.4627598e-04   2.9380881e-05  -3.5421483e-04   2.9549408e-03  -1.2960330e-03  -7.8903133e-04  -1.5034564e-04  -6.8852707e-04   1.8188267e-04  -1.4276528e-03   2.6721734e-04  -2.6297246e-04   2.4601381e-05  -3.0663382e-04
   6.8918242e-05  -6.5518914e-05   1.0623466e-04  -5.8599329e-05   1.5355962e-04   5.3339692e-05   1.3526769e-04   1.1204698e-04  -1.0948551e-04  -7.0893206e-05  -3.4637976e-04  -5.1889487e-04   3.5521464e-04   1.4855512e-04   2.6146520e-04   1.5403290e-04  -1.4881565e-05   8.1987950e-05   5.4854871e-05   2.5284107e-04   9.8881355e-05   4.3550524e-04   1.0747426e-04  -4.4898764e-04   3.8544300e-03  -1.3972584e-03  -8.5096061e-04  -4.1382129e-05  -7.5019943e-04   3.2030037e-04  -1.4939747e-03   4.3697341e-04  -9.5858144e-05   2.5222049e-04  -1.9219457e-04
   4.9993756e-05  -4.5055946e-05   1.2782193e-04   4.8922462e-05   1.4474531e-04   8.3414532e-05   1.5048194e-04   1.0342766e-04  -5.9863414e-05  -6.6346576e-05  -3.1468770e-04  -5.2366499e-04   7.0087856e-04   1.9075954e-04   4.0330883e-04   1.3606099e-04   3.2801211e-06   8.6821616e-05   5.7628531e-05   2.7271343e-04   1.1860328e-04   4.8840122e-04   1.8796170e-04  -5.0711620e-04   4.2019319e-03  -1.3843033e-03  -9.0039597e-04   2.2448221e-05  -7.7448983e-04   4.1972281e-04  -1.3631243e-03   5.8749039e-04   3.2646567e-05   4.5023556e-04  -8.4431442e-05
   3.0398767e-05  -2.8062870e-05   1.8788943e-04   1.2271765e-04   1.4462121e-04   1.2104934e-04   1.4799734e-04   6.0525468e-05  -1.6198932e-05  -5.8707243e-05  -2.5907467e-04  -5.2097300e-04   1.0813774e-03   2.2328024e-04   5.5592216e-04   9.9613288e-05   1.6535516e-05   8.5078107e-05   6.0487146e-05   2.7087633e-04   1.2959950e-04   5.0025835e-04   2.5312055e-04  -5.3206837e-04   4.0916321e-03  -1.2913992e-03  -9.4715873e-04   1.6378157e-05  -7.7533204e-04   4.6418214e-04  -1.0715175e-03   6.9623091e-04   8.0530248e-05   5.7432853e-04  -1.6481503e-05
   1.0649645e-05  -2.4837036e-05   2.6676554e-04   1.4180286e-04   1.5008275e-04   1.5257193e-04   1.2746928e-04  -6.1244509e-06   6.3434277e-06  -5.6514626e-05  -2.0536824e-04  -5.2540080e-04   1.4075543e-03   2.3998872e-04   6.9981162e-04   5.4735709e-05   1.9368486e-05   7.6826080e-05   6.1190774e-05   2.5271723e-04   1.3039050e-04   4.8166004e-04   2.9028955e-04  -5.3880882e-04   3.7531666e-03  -1.1763533e-03  -9.9926442e-04  -6.5762186e-05  -7.7666907e-04   4.6267494e-04  -7.5643632e-04   7.5785775e-04   3.5243713e-05   6.0628040e-04  -7.5698736e-06
  -1.1525754e-05  -4.3234224e-05   3.3833060e-04   9.6927164e-05   1.5404126e-04   1.6414115e-04   9.0376459e-05  -8.4211555e-05  -2.0458463e-06  -6.9946320e-05  -1.7793552e-04  -5.4930459e-04   1.6028257e-03   2.3548937e-04   8.0977159e-04   9.7019265e-06   9.9654053e-06   6.1530860e-05   5.6310942e-05   2.2885934e-04   1.2195401e-04   4.5178243e-04   2.9651308e-04  -5.4612360e-04   3.3463051e-03  -1.0927675e-03  -1.0560665e-03  -2.0662785e-04  -7.9720421e-04   4.4220049e-04  -6.1591162e-04   7.8366656e-04  -7.8316458e-05   5.5998354e-04  -5.2135725e-05
  -3.9753671e-05  -8.3750179e-05   3.8114662e-04  -3.2510736e-06   1.4782135e-04   1.4802511e-04   3.8936079e-05  -1.6445156e-04  -4.1138919e-05  -1.0609496e-04  -1.8849665e-04  -5.9374352e-04   1.6395985e-03   2.0645543e-04   8.6166331e-04  -3.3181681e-05  -9.5431624e-06   3.6652269e-05   4.1500953e-05   2.0868651e-04   1.0672583e-04   4.2785765e-04   2.7890422e-04  -5.6602975e-04   2.8868902e-03  -1.0624088e-03  -1.1045451e-03  -3.7091452e-04  -8.3732518e-04   4.3047781e-04  -7.9383218e-04   7.8987161e-04  -2.0776711e-04   4.7169111e-04  -1.2159149e-04
  -7.5861579e-05  -1.3683870e-04   3.8744320e-04  -1.3141130e-04   1.2465406e-04   1.0638819e-04  -2.3552277e-05  -2.4139574e-04  -9.9693629e-05  -1.6438100e-04  -2.2982415e-04  -6.4649381e-04   1.5549837e-03   1.5349740e-04   8.4330211e-04  -7.7707082e-05  -3.4471548e-05  -1.3607333e-06   1.2881092e-05   1.9494156e-04   8.7488988e-05   4.1617648e-04   2.5051524e-04  -5.9532956e-04   2.2926403e-03  -1.0637416e-03  -1.1213188e-03  -5.1942893e-04  -8.7612559e-04   4.3784402e-04  -1.2630726e-03   7.8153948e-04  -2.9758742e-04   3.7948342e-04  -1.7896126e-04
  -1.1684954e-04  -1.8441600e-04   3.6554408e-04  -2.4775125e-04   8.2798702e-05   5.0636037e-05  -9.1485206e-05  -3.1098435e-04  -1.5900265e-04  -2.3466254e-04  -2.7792246e-04  -6.8827602e-04   1.4337633e-03   8.2433864e-05   7.6366670e-04  -1.3003546e-04  -5.9834038e-05  -5.4001288e-05  -3.0892359e-05   1.8226549e-04   6.6679706e-05   4.0893245e-04   2.2390578e-04  -6.1432278e-04   1.4729322e-03  -1.0448203e-03  -1.0804010e-03  -6.2504690e-04  -8.8099902e-04   4.4809369e-04  -1.8259608e-03   7.4266456e-04  -3.1525749e-04   3.0304844e-04  -1.9872865e-04
  -1.5413146e-04  -2.0573882e-04   3.3455368e-04  -3.1162775e-04   2.6845039e-05  -3.4513839e-06  -1.5631027e-04  -3.6761974e-04  -1.9966131e-04  -2.9971596e-04  -3.0203725e-04  -7.0335122e-04   1.3674842e-03   3.6952908e-06   6.5355113e-04  -1.9349292e-04  -8.2337516e-05  -1.1747433e-04  -8.6996042e-05   1.6046668e-04   4.6255729e-05   3.8839312e-04   2.0566258e-04  -5.9458957e-04   4.2224932e-04  -9.5333846e-04  -9.6423383e-04  -6.8332662e-04  -8.2490128e-04   4.2389147e-04  -2.2256300e-03   6.4053229e-04  -2.6587668e-04   2.3412314e-04  -1.8155268e-04
  -1.7624318e-04  -1.8573998e-04   3.1433767e-04  -2.9505059e-04  -3.3613353e-05  -4.2421758e-05  -2.0784294e-04  -4.0380761e-04  -2.0886795e-04  -3.4168939e-04  -2.7804243e-04  -6.8833370e-04   1.4109930e-03  -7.0656904e-05   5.5472850e-04  -2.6510283e-04  -1.0129751e-04  -1.8173456e-04  -1.4833135e-04   1.2084167e-04   2.7824657e-05   3.3663760e-04   1.9436152e-04  -5.1314943e-04  -7.3911360e-04  -7.6769461e-04  -7.7427505e-04  -7.1312994e-04  -7.0265366e-04   3.2614052e-04  -2.2636272e-03   4.4549402e-04  -1.8893188e-04   1.4264908e-04  -1.5613339e-04
  -1.7430440e-04  -1.2272982e-04   3.1598975e-04  -1.9397376e-04  -8.7384935e-05  -6.0571696e-05  -2.3760364e-04  -4.1347489e-04  -1.8540170e-04  -3.5004591e-04  -1.9975135e-04  -6.5442070e-04   1.5539874e-03  -1.3142660e-04   5.0139538e-04  -3.3609124e-04  -1.1827584e-04  -2.3316981e-04  -2.0546523e-04   6.1979255e-05   1.2529881e-05   2.4615621e-04   1.8247843e-04  -3.6727634e-04  -1.8176705e-03  -5.1528908e-04  -5.3708913e-04  -7.4643630e-04  -5.3832517e-04   1.3930291e-04  -1.8741852e-03   1.5700127e-04  -1.3856174e-04  -2.9970245e-06  -1.6588905e-04
  -1.4780067e-04  -3.2221451e-05   3.3716741e-04  -3.3890170e-05  -1.2571328e-04  -6.1825194e-05  -2.4287644e-04  -3.9748166e-04  -1.4039167e-04  -3.2774446e-04  -8.3946681e-05  -6.2176847e-04   1.7171258e-03  -1.7641990e-04   5.0199381e-04  -3.9612080e-04  -1.3592815e-04  -2.6026962e-04  -2.5005158e-04  -8.5036972e-06   3.5902178e-07   1.2580554e-04   1.6084939e-04  -1.8382449e-04  -2.6430315e-03  -2.6980773e-04  -3.0237538e-04  -8.1090973e-04  -3.7936546e-04  -1.1132311e-04  -1.1682418e-03  -1.8044503e-04  -1.5531019e-04  -2.1075735e-04  -2.4506336e-04
  -1.0780302e-04   5.5183409e-05   3.6400030e-04   1.3309032e-04  -1.4523508e-04  -5.7509023e-05  -2.2925762e-04  -3.6787082e-04  -9.3517083e-05  -2.9264585e-04   3.2903718e-05  -6.0891540e-04   1.7777887e-03  -2.1207600e-04   5.3018163e-04  -4.3878256e-04  -1.5682573e-04  -2.5978478e-04  -2.7835681e-04  -7.7662844e-05  -1.0984287e-05  -1.2330834e-06   1.2306057e-04  -1.8218283e-05  -3.1166400e-03  -1.2425244e-04  -1.3097269e-04  -9.1311149e-04  -2.7795887e-04  -3.6177822e-04  -4.3838867e-04  -4.8341573e-04  -2.4235899e-04  -4.4835615e-04  -3.9594903e-04
  -7.5398457e-05   1.0218558e-04   3.7831764e-04   2.4137889e-04  -1.4876005e-04  -6.1224040e-05  -2.0981395e-04  -3.4745340e-04  -6.5951892e-05  -2.7287894e-04   1.0583999e-04  -6.2293373e-04   1.6230763e-03  -2.5129699e-04   5.3101045e-04  -4.6521550e-04  -1.8282047e-04  -2.4027860e-04  -2.9332633e-04  -1.3457329e-04  -2.6943582e-05  -1.0643572e-04   6.7516317e-05   5.9332640e-05  -3.1916446e-03  -1.4674997e-04  -7.4843512e-05  -1.0313065e-03  -2.6655258e-04  -5.3055119e-04  -6.2003761e-05  -6.5510330e-04  -3.5933414e-04  -6.4609939e-04  -5.8061548e-04
  -7.5121257e-05   7.7180004e-05   3.6650547e-04   2.3358544e-04  -1.4379535e-04  -8.3116043e-05  -2.0042474e-04  -3.6306286e-04  -7.2750547e-05  -2.9694062e-04   9.7265467e-05  -6.5589824e-04   1.2097268e-03  -3.0772417e-04   4.4344188e-04  -4.8376061e-04  -2.1499117e-04  -2.2074181e-04  -3.0412109e-04  -1.7736357e-04  -5.5850542e-05  -1.6714986e-04  -3.4688064e-06  -1.1864228e-05  -2.8252343e-03  -3.4205781e-04  -1.5653946e-04  -1.1222464e-03  -3.4005917e-04  -5.4733420e-04  -2.9044901e-04  -6.1679049e-04  -4.3776201e-04  -7.1837212e-04  -7.3267741e-04
  -1.2565186e-04  -3.4054869e-05   3.2558048e-04   8.3642284e-05  -1.3957087e-04  -1.2607478e-04  -2.1294793e-04  -4.3432327e-04  -1.1763255e-04  -3.8223891e-04  -8.8313245e-06  -6.8954675e-04   5.9530447e-04  -3.8865724e-04   2.3159105e-04  -5.0567463e-04  -2.5381387e-04  -2.2401646e-04  -3.2297775e-04  -2.1589141e-04  -1.0698054e-04  -1.7475810e-04  -8.6215630e-05  -2.5751162e-04  -1.9345193e-03  -6.4557028e-04  -3.5877936e-04  -1.1385097e-03  -4.5568656e-04  -3.7724242e-04  -1.0888431e-03  -3.3351799e-04  -4.0979165e-04  -5.9314352e-04  -7.8241306e-04
  -2.3186808e-04  -2.2263073e-04   2.6348545e-04  -1.8972017e-04  -1.4396005e-04  -1.8539639e-04  -2.4946741e-04  -5.6326034e-04  -1.9219489e-04  -5.2726472e-04  -2.0086834e-04  -7.0505246e-04  -8.1012193e-05  -4.9000076e-04  -9.1484733e-05  -5.3896394e-04  -2.9900155e-04  -2.6735588e-04  -3.6046750e-04  -2.6805070e-04  -1.8714287e-04  -1.3653318e-04  -1.7753091e-04  -6.5493002e-04  -3.5564433e-04  -9.5424172e-04  -6.3019531e-04  -1.0479091e-03  -5.5088091e-04  -3.4201905e-05  -2.1916691e-03   1.7082701e-04  -2.3600229e-04  -2.3777371e-04  -6.8271812e-04
  -3.8232276e-04  -4.5956849e-04   1.9395446e-04  -5.2699173e-04  -1.6155209e-04  -2.5172485e-04  -3.0080220e-04  -7.3090155e-04  -2.7967236e-04  -7.1159657e-04  -4.4472012e-04  -6.9227838e-04  -6.5298233e-04  -5.9610821e-04  -4.6267905e-04  -5.8372685e-04  -3.4893263e-04  -3.5445605e-04  -4.2105481e-04  -3.5082683e-04  -2.9704935e-04  -7.0811482e-05  -2.7435701e-04  -1.1396235e-03   2.2191049e-03  -1.1719237e-03  -9.0382429e-04  -8.4711268e-04  -5.6926033e-04   4.1901509e-04  -3.2877510e-03   8.1117416e-04   7.8312689e-05   3.2536869e-04  -4.2618904e-04
  -5.5345386e-04  -7.0584193e-04   1.2924532e-04  -8.4770436e-04  -1.9347460e-04  -3.1544035e-04  -3.5040767e-04  -9.0342178e-04  -3.6143302e-04  -9.0373470e-04  -6.9675141e-04  -6.5379066e-04  -9.8329899e-04  -6.8505231e-04  -7.9229998e-04  -6.3172495e-04  -4.0001131e-04  -4.7318061e-04  -5.0095184e-04  -4.7036621e-04  -4.2918662e-04   1.9779891e-06  -3.7157911e-04  -1.6274315e-03   6.4086271e-03  -1.2438524e-03  -1.1185200e-03  -5.6492648e-04  -4.8219427e-04   8.8623993e-04  -4.1544633e-03   1.4567989e-03   4.8252533e-04   1.0165903e-03  -4.9253649e-05
  -7.1840989e-04  -9.2468422e-04   7.4832722e-05  -1.0764276e-03  -2.3845067e-04  -3.7023204e-04  -3.8190628e-04  -1.0447537e-03  -4.2342811e-04  -1.0728636e-03  -9.1831188e-04  -6.0216943e-04  -1.0003151e-03  -7.3717360e-04  -9.9907769e-04  -6.7052466e-04  -4.4674304e-04  -6.0041639e-04  -5.8933155e-04  -6.1656535e-04  -5.6862371e-04   6.8033281e-05  -4.6014192e-04  -2.0401392e-03   1.3820407e-02  -1.1702472e-03  -1.2347702e-03  -2.5406887e-04  -2.9874241e-04   1.2688180e-03  -4.6967524e-03   1.9696970e-03   8.9583505e-04   1.7131937e-03   3.7750782e-04
  -8.5616781e-04  -1.0912020e-03   2.8515864e-05  -1.1650411e-03  -2.9405509e-04  -4.1433910e-04  -3.8658889e-04  -1.1294818e-03  -4.6025004e-04  -1.1991626e-03  -1.0860566e-03  -5.5253017e-04  -7.1439147e-04  -7.4335397e-04  -1.0407354e-03  -6.8999955e-04  -4.8297670e-04  -7.1169296e-04  -6.7242474e-04  -7.6565851e-04  -6.9691992e-04   1.2410694e-04  -5.2792684e-04  -2.3246617e-03   3.4198444e-02  -1.0003825e-03  -1.2418153e-03   2.6469141e-05  -6.2289640e-05   1.5023098e-03  -4.9434477e-03   2.2575329e-03   1.2346579e-03   2.2832437e-03   7.7130937e-04
  -9.5714652e-04  -1.1967091e-03  -1.6257072e-05  -1.1059934e-03  -3.5722691e-04  -4.4936643e-04  -3.6734229e-04  -1.1507804e-03  -4.7561384e-04  -1.2787849e-03  -1.1956913e-03  -5.1459338e-04  -2.1845066e-04  -7.0975308e-04  -9.3035132e-04  -6.8770791e-04  -5.0418219e-04  -7.9101039e-04  -7.3869782e-04  -8.8987226e-04  -7.9782482e-04   1.7467383e-04  -5.6426664e-04  -2.4624472e-03   2.1034826e-02  -8.1125478e-04  -1.1568156e-03   2.3221760e-04   1.6477077e-04   1.5796267e-03  -5.0328267e-03   2.3119412e-03   1.4428175e-03   2.6326820e-03   1.0653000e-03
  -1.0236639e-03  -1.2475635e-03  -6.5270091e-05  -9.3504915e-04  -4.2389904e-04  -4.7774197e-04  -3.3713965e-04  -1.1211608e-03  -4.7957140e-04  -1.3224233e-03  -1.2593762e-03  -4.8886298e-04   3.2914753e-04  -6.5691036e-04  -7.3444552e-04  -6.7042885e-04  -5.0980889e-04  -8.3647558e-04  -7.8297337e-04  -9.6936390e-04  -8.6258602e-04   2.2441392e-04  -5.6647410e-04  -2.4701604e-03   1.2476261e-02  -6.7689049e-04  -1.0179826e-03   3.4761484e-04   3.2379426e-04   1.5459089e-03  -5.1509496e-03   2.2034843e-03   1.5100535e-03   2.7437638e-03   1.2311769e-03
  -1.0658433e-03  -1.2601066e-03  -1.1974300e-04  -7.2258094e-04  -4.8839056e-04  -5.0040422e-04  -3.1266405e-04  -1.0664269e-03  -4.8373756e-04  -1.3486481e-03  -1.2987236e-03  -4.6903553e-04   7.4698776e-04  -6.1288202e-04  -5.5107335e-04  -6.5103377e-04  -5.0443289e-04  -8.5953076e-04  -8.0787262e-04  -1.0006882e-03  -8.9279120e-04   2.7108268e-04  -5.4473424e-04  -2.3933528e-03   9.3386145e-03  -6.3978141e-04  -8.7356509e-04   3.8671022e-04   3.8160276e-04   1.4700970e-03  -5.4079504e-03   2.0378022e-03   1.4688383e-03   2.6790265e-03   1.2847756e-03
  -1.0954702e-03  -1.2538841e-03  -1.7571943e-04  -5.5272056e-04  -5.4350781e-04  -5.1599636e-04  -3.0600195e-04  -1.0152828e-03  -4.9639953e-04  -1.3751154e-03  -1.3359729e-03  -4.4869058e-04   8.9694653e-04  -6.0224661e-04  -4.7085405e-04  -6.4213591e-04  -4.9666676e-04  -8.7820209e-04  -8.2203554e-04  -9.9797873e-04  -8.9947670e-04   3.0387295e-04  -5.2142737e-04  -2.2942172e-03   8.5828379e-03  -6.9855916e-04  -7.6886883e-04   3.8100276e-04   3.4106980e-04   1.4118698e-03  -5.7628937e-03   1.9061184e-03   1.3734447e-03   2.5475391e-03   1.2726393e-03
  -1.1207388e-03  -1.2455633e-03  -2.2618705e-04  -4.9324182e-04  -5.8192492e-04  -5.2185095e-04  -3.1850257e-04  -9.8872359e-04  -5.1921222e-04  -1.4114749e-03  -1.3862968e-03  -4.2771827e-04   7.4748980e-04  -6.3513889e-04  -5.3496577e-04  -6.4973126e-04  -4.9586024e-04  -9.0747897e-04  -8.3579752e-04  -9.8620518e-04  -8.9849613e-04   3.0937113e-04  -5.2275334e-04  -2.2348692e-03   9.0470351e-03  -8.1765815e-04  -7.3431415e-04   3.6273588e-04   2.3589446e-04   1.4002629e-03  -6.0766889e-03   1.8570349e-03   1.2760293e-03   2.4572348e-03   1.2492487e-03
  -1.1442071e-03  -1.2452684e-03  -2.6370495e-04  -5.6644669e-04  -5.9850718e-04  -5.1606831e-04  -3.4003280e-04  -9.9372456e-04  -5.4661505e-04  -1.4570097e-03  -1.4538316e-03  -4.1430598e-04   3.9245372e-04  -7.0141233e-04  -7.1312743e-04  -6.7028933e-04  -5.0789712e-04  -9.5137482e-04  -8.5602159e-04  -9.8952162e-04  -9.0370298e-04   2.8259782e-04  -5.6470622e-04  -2.2596782e-03   9.6918754e-03  -9.5033681e-04  -7.7804242e-04   3.5302609e-04   1.1433729e-04   1.4303880e-03  -6.2183570e-03   1.8942327e-03   1.2123194e-03   2.4790806e-03   1.2577211e-03
  -1.1643323e-03  -1.2560848e-03  -2.8127286e-04  -7.3579676e-04  -5.9252401e-04  -4.9945823e-04  -3.5395866e-04  -1.0238301e-03  -5.6814175e-04  -1.5037603e-03  -1.5326190e-03  -4.2115172e-04   1.0890941e-05  -7.7303464e-04  -9.1599819e-04  -6.9294556e-04  -5.3226290e-04  -1.0006166e-03  -8.8228087e-04  -1.0203568e-03  -9.2068705e-04   2.3663417e-04  -6.4007088e-04  -2.3826470e-03   9.4703548e-03  -1.0598070e-03  -8.8549132e-04   3.5931432e-04   2.1619020e-05   1.4762937e-03  -6.1395331e-03   1.9915483e-03   1.2000443e-03   2.6329060e-03   1.3209996e-03
  -1.1791226e-03  -1.2761592e-03  -2.7087712e-04  -9.1658608e-04  -5.6847598e-04  -4.7627490e-04  -3.4510347e-04  -1.0654302e-03  -5.7275273e-04  -1.5430066e-03  -1.6115949e-03  -4.5797112e-04  -2.0240995e-04  -8.1377849e-04  -1.0336224e-03  -7.0550194e-04  -5.6220108e-04  -1.0371171e-03  -9.0618641e-04  -1.0751231e-03  -9.4409165e-04   2.0397957e-04  -7.1472756e-04  -2.5855699e-03   7.8604920e-03  -1.1287460e-03  -1.0259467e-03   3.8074362e-04  -1.1876728e-05   1.5119665e-03  -5.9147514e-03   2.1140359e-03   1.2453867e-03   2.8921457e-03   1.4429844e-03
  -1.1894588e-03  -1.3020412e-03  -2.2126493e-04  -1.0048607e-03  -5.3478510e-04  -4.5336667e-04  -3.0667661e-04  -1.1056339e-03  -5.5370422e-04  -1.5715210e-03  -1.6812467e-03  -5.2463944e-04  -9.6889351e-05  -7.9198496e-04  -9.7776379e-04  -7.0096116e-04  -5.8821321e-04  -1.0428129e-03  -9.1433298e-04  -1.1390026e-03  -9.6002192e-04   2.2697626e-04  -7.3741248e-04  -2.8282001e-03   5.2176965e-03  -1.1568795e-03  -1.1635766e-03   4.1619377e-04   2.4883990e-05   1.5284106e-03  -5.7535958e-03   2.2348252e-03   1.3502003e-03   3.2017685e-03   1.6149729e-03
  -1.2001009e-03  -1.3316941e-03  -1.1790934e-04  -9.1067207e-04  -5.0067890e-04  -4.3816885e-04  -2.4304388e-04  -1.1375593e-03  -5.1221915e-04  -1.5944723e-03  -1.7390177e-03  -6.0921622e-04   3.9761074e-04  -6.9183984e-04  -7.1157160e-04  -6.8122381e-04  -6.0330605e-04  -1.0085544e-03  -8.9384144e-04  -1.1969432e-03  -9.5277809e-04   3.4062529e-04  -6.5966323e-04  -3.0658578e-03   2.3157315e-03  -1.1523812e-03  -1.2690558e-03   4.6923745e-04   1.2431410e-04   1.5368647e-03  -5.9005166e-03   2.3411789e-03   1.5140781e-03   3.5027636e-03   1.8223940e-03
  -1.2179603e-03  -1.3660650e-03   5.2559131e-05  -5.8480375e-04  -4.7267514e-04  -4.3647672e-04  -1.6743974e-04  -1.1611433e-03  -4.5857535e-04  -1.6235625e-03  -1.7911978e-03  -6.9240574e-04   1.2521268e-03  -5.2002410e-04  -2.6160519e-04  -6.5625738e-04  -6.0729455e-04  -9.3907205e-04  -8.3835068e-04  -1.2443262e-03  -9.1298396e-04   5.5467879e-04  -4.5815378e-04  -3.2666516e-03  -2.4226389e-04  -1.1240384e-03  -1.3284041e-03   5.4680312e-04   2.6370530e-04   1.5585559e-03  -6.4168903e-03   2.4296953e-03   1.7298354e-03   3.7544381e-03   2.0488063e-03
  -1.2487234e-03  -1.4087402e-03   2.9360896e-04  -3.5292702e-05  -4.5253808e-04  -4.5090631e-04  -9.5990938e-05  -1.1802664e-03  -4.0979451e-04  -1.6713889e-03  -1.8503820e-03  -7.5626827e-04   2.3315267e-03  -3.0612768e-04   2.8756325e-04  -6.3918892e-04  -6.0775428e-04  -8.5189240e-04  -7.5219461e-04  -1.2910240e-03  -8.4365619e-04   8.4216031e-04  -1.5143902e-04  -3.4216922e-03  -2.1849859e-03  -1.0784781e-03  -1.3464802e-03   6.5280427e-04   4.1032012e-04   1.6104871e-03  -7.1005556e-03   2.4972279e-03   1.9763322e-03   3.9453600e-03   2.2770381e-03
  -1.2938005e-03  -1.4638838e-03   5.8901752e-04   6.6731026e-04  -4.3791917e-04  -4.8051251e-04  -4.1110241e-05  -1.1986560e-03  -3.8416137e-04  -1.7446622e-03  -1.9292707e-03  -7.9237384e-04   3.4085878e-03  -9.5943578e-05   8.1684435e-04  -6.3975411e-04  -6.1665685e-04  -7.7075540e-04  -6.5100129e-04  -1.3562053e-03  -7.6145370e-04   1.1403139e-03   1.9570719e-04  -3.5449697e-03  -3.4931195e-03  -1.0222141e-03  -1.3440439e-03   7.8149664e-04   5.2817707e-04   1.6956512e-03  -7.6345098e-03   2.5357420e-03   2.2159282e-03   4.0891450e-03   2.4895368e-03
  -1.3493031e-03  -1.5333026e-03   8.9751335e-04   1.3994402e-03  -4.2535158e-04  -5.2135845e-04  -7.4383761e-06  -1.2171244e-03  -3.9415064e-04  -1.8396835e-03  -2.0333081e-03  -8.0480927e-04   4.2217602e-03   6.2024505e-05   1.2124659e-03  -6.5944146e-04  -6.4389408e-04  -7.1623380e-04  -5.5799307e-04  -1.4562431e-03  -6.9208327e-04   1.3678659e-03   4.8651765e-04  -3.6631173e-03  -4.2985342e-03  -9.6457725e-04  -1.3485359e-03   9.1572240e-04   5.8710255e-04   1.8004406e-03  -7.7593522e-03   2.5352209e-03   2.4020243e-03   4.2094588e-03   2.6702713e-03
  -1.4074884e-03  -1.6138584e-03   1.1577097e-03   2.0144391e-03  -4.1380158e-04  -5.6747929e-04   7.9367510e-06  -1.2334401e-03  -4.4048557e-04  -1.9422986e-03  -2.1556052e-03  -8.0621545e-04   4.5817569e-03   1.3358319e-04   1.4096866e-03  -6.9083739e-04  -6.9086667e-04  -6.9776125e-04  -4.9671903e-04  -1.5922654e-03  -6.6100497e-04   1.4563551e-03   6.2682555e-04  -3.7990606e-03  -4.8047071e-03  -9.1709511e-04  -1.3814952e-03   1.0323244e-03   5.7273771e-04   1.8992326e-03  -7.3551815e-03   2.4920932e-03   2.4957936e-03   4.3235766e-03   2.8087522e-03
  -1.4597686e-03  -1.6966147e-03   1.3063704e-03   2.3915034e-03  -4.0650234e-04  -6.1184377e-04   1.1730573e-05  -1.2443248e-03  -5.1026081e-04  -2.0324106e-03  -2.2770129e-03  -8.0905441e-04   4.4728429e-03   1.1252159e-04   1.4177148e-03  -7.2127668e-04  -7.4780907e-04  -7.1071321e-04  -4.8260871e-04  -1.7446924e-03  -6.8299723e-04   1.3824364e-03   5.6851172e-04  -3.9568702e-03  -5.2119731e-03  -8.8806753e-04  -1.4477751e-03   1.1125145e-03   4.9352873e-04   1.9651747e-03  -6.4698313e-03   2.4161986e-03   2.4839418e-03   4.4330424e-03   2.9042033e-03
  -1.4996916e-03  -1.7684278e-03   1.3054063e-03   2.4844669e-03  -4.0971741e-04  -6.4727233e-04   9.8216042e-06  -1.2478146e-03  -5.8058964e-04  -2.0909088e-03  -2.3719340e-03  -8.1729796e-04   4.0631592e-03   2.3549626e-05   1.3097193e-03  -7.3858566e-04  -7.9675595e-04  -7.3963043e-04  -5.1686668e-04  -1.8786370e-03  -7.5538136e-04   1.1815456e-03   3.3603093e-04  -4.1160262e-03  -5.6505813e-03  -8.7574171e-04  -1.5323074e-03   1.1512254e-03   3.7993913e-04   1.9834084e-03  -5.3314636e-03   2.3302168e-03   2.3867327e-03   4.5252112e-03   2.9666135e-03
  -1.5245936e-03  -1.8158896e-03   1.1638073e-03   2.3399945e-03  -4.2892140e-04  -6.6755351e-04   4.4606172e-06  -1.2443246e-03  -6.2669587e-04  -2.1062142e-03  -2.4177805e-03  -8.2376366e-04   3.6105043e-03  -8.7676788e-05   1.1850211e-03  -7.3593593e-04  -8.1902440e-04  -7.6564582e-04  -5.8571901e-04  -1.9579693e-03  -8.5843843e-04   9.3273033e-04   1.5731495e-05  -4.2389501e-03  -6.1491420e-03  -8.6593255e-04  -1.6067466e-03   1.1593625e-03   2.7431900e-04   1.9598850e-03  -4.3148762e-03   2.2610372e-03   2.2501932e-03   4.5839543e-03   3.0127966e-03
  -1.5355920e-03  -1.8302812e-03   9.3918003e-04   2.0710062e-03  -4.6455918e-04  -6.6895568e-04  -5.4219690e-06  -1.2358527e-03  -6.3141069e-04  -2.0781388e-03  -2.4043031e-03  -8.1489078e-04   3.3406711e-03  -1.7254737e-04   1.1264166e-03  -7.1371195e-04  -8.0374692e-04  -7.7444100e-04  -6.6573877e-04  -1.9613018e-03  -9.6308760e-04   7.2401611e-04  -2.8513538e-04  -4.2884997e-03  -6.6541689e-03  -8.3795225e-04  -1.6430409e-03   1.1570338e-03   2.1494282e-04   1.9201271e-03  -3.7873045e-03   2.2282044e-03   2.1258397e-03   4.6031587e-03   3.0587190e-03
  -1.5363937e-03  -1.8115904e-03   7.1541569e-04   1.8035349e-03  -5.1016704e-04  -6.5190677e-04  -2.1619633e-05  -1.2241472e-03  -5.9221301e-04  -2.0179986e-03  -2.3390555e-03  -7.8024290e-04   3.3666373e-03  -1.9746817e-04   1.1712089e-03  -6.7813357e-04  -7.5354363e-04  -7.6135353e-04  -7.3306717e-04  -1.8924295e-03  -1.0421841e-03   6.1771553e-04  -4.8360156e-04  -4.2470708e-03  -7.0811165e-03  -7.7713141e-04  -1.6275058e-03   1.1614858e-03   2.2047818e-04   1.8991469e-03  -3.8651447e-03   2.2361621e-03   2.0483157e-03   4.5955074e-03   3.1119059e-03
  -1.5318634e-03  -1.7695978e-03   5.6820043e-04   1.6281793e-03  -5.5446912e-04  -6.2208326e-04  -4.3893269e-05  -1.2093290e-03  -5.2298856e-04  -1.9451092e-03  -2.2464204e-03  -7.2132226e-04   3.6582488e-03  -1.5569884e-04   1.3018663e-03  -6.3782965e-04  -6.8469258e-04  -7.3215802e-04  -7.7273394e-04  -1.7803815e-03  -1.0805075e-03   6.2945433e-04  -5.4964802e-04  -4.1285488e-03  -7.3626325e-03  -6.8731589e-04  -1.5687982e-03   1.1768632e-03   2.8107112e-04   1.9294042e-03  -4.3110116e-03   2.2744788e-03   2.0220473e-03   4.5914399e-03   3.1681673e-03
  -1.5269351e-03  -1.7209494e-03   5.3483475e-04   1.5747468e-03  -5.8678858e-04  -5.8987696e-04  -6.9065311e-05  -1.1900819e-03  -4.4920255e-04  -1.8807512e-03  -2.1595692e-03  -6.5456319e-04   4.0514818e-03  -7.0077731e-05   1.4550788e-03  -6.0038560e-04  -6.2125828e-04  -6.9987949e-04  -7.8431901e-04  -1.6683277e-03  -1.0796099e-03   7.2534592e-04  -5.1216228e-04  -3.9772107e-03  -7.4735712e-03  -5.9542275e-04  -1.4956984e-03   1.1919225e-03   3.6040228e-04   2.0325116e-03  -4.6973592e-03   2.3254796e-03   2.0230524e-03   4.6280469e-03   3.2147418e-03
  -1.5259450e-03  -1.6826915e-03   5.9934688e-04   1.6123787e-03  -6.0297293e-04  -5.6761678e-04  -9.2557762e-05  -1.1652927e-03  -3.9767736e-04  -1.8414826e-03  -2.1075597e-03  -6.0593430e-04   4.3026549e-03   1.4537825e-05   1.5465779e-03  -5.7043711e-04  -5.8517692e-04  -6.7933195e-04  -7.8166660e-04  -1.5953804e-03  -1.0559227e-03   8.3694613e-04  -4.4315530e-04  -3.8519306e-03  -7.4305777e-03  -5.4280867e-04  -1.4446324e-03   1.1876421e-03   4.1005632e-04   2.2151382e-03  -4.6452461e-03   2.3745929e-03   2.0150845e-03   4.7323713e-03   3.2386454e-03
  -1.5319224e-03  -1.6646866e-03   6.9776404e-04   1.6707644e-03  -6.0840370e-04  -5.6496577e-04  -1.1119858e-04  -1.1359259e-03  -3.8480468e-04  -1.8340279e-03  -2.1027527e-03  -5.9878698e-04   4.1956441e-03   4.8496386e-05   1.5059250e-03  -5.4974435e-04  -5.8666337e-04  -6.8161503e-04  -7.8636961e-04  -1.5794894e-03  -1.0328565e-03   8.9069101e-04  -4.2380515e-04  -3.8004871e-03  -7.2737285e-03  -5.6483090e-04  -1.4417757e-03   1.1509964e-03   3.9222185e-04   2.4672318e-03  -3.9562429e-03   2.4169353e-03   1.9723952e-03   4.9065482e-03   3.2359364e-03
  -1.5455228e-03  -1.6645554e-03   7.4475253e-04   1.6755702e-03  -6.1575451e-04  -5.8420131e-04  -1.2518535e-04  -1.1055652e-03  -4.0854194e-04  -1.8534944e-03  -2.1348617e-03  -6.4091512e-04   3.6634577e-03  -5.0098828e-07   1.3089005e-03  -5.3832395e-04  -6.1974832e-04  -7.1029860e-04  -8.1711658e-04  -1.6102416e-03  -1.0298243e-03   8.4207044e-04  -5.0332549e-04  -3.8359319e-03  -7.0432294e-03  -6.6849159e-04  -1.4889033e-03   1.0868936e-03   3.0004568e-04   2.7620450e-03  -2.6605309e-03   2.4560890e-03   1.8969110e-03   5.1218886e-03   3.2166152e-03
  -1.5638093e-03  -1.6681176e-03   6.7532138e-04   1.5855863e-03  -6.3786487e-04  -6.1773800e-04  -1.3758651e-04  -1.0788557e-03  -4.4854017e-04  -1.8854069e-03  -2.1751311e-03  -7.1856566e-04   2.8356891e-03  -1.3017838e-04   9.9150580e-04  -5.3520466e-04  -6.6532061e-04  -7.6024607e-04  -8.7923778e-04  -1.6553785e-03  -1.0527134e-03   6.9786678e-04  -6.7127135e-04  -3.9289817e-03  -6.7664627e-03  -8.2273385e-04  -1.5613607e-03   1.0203674e-03   1.6335527e-04   3.0590761e-03  -1.0512422e-03   2.4964667e-03   1.8198788e-03   5.3259842e-03   3.2020821e-03
  -1.5796912e-03  -1.6556658e-03   4.8262582e-04   1.4143847e-03  -6.7896617e-04  -6.4956845e-04  -1.5128388e-04  -1.0584614e-03  -4.7461665e-04  -1.9105894e-03  -2.1888113e-03  -8.0164499e-04   1.9706974e-03  -3.0130779e-04   6.3808489e-04  -5.3797883e-04  -6.9987908e-04  -8.1890204e-04  -9.5949444e-04  -1.6771278e-03  -1.0902787e-03   5.1330356e-04  -8.6072629e-04  -4.0217196e-03  -6.4632604e-03  -9.6923031e-04  -1.6198384e-03   9.8689762e-04   3.5433291e-05   3.3112143e-03   3.2984157e-04   2.5352545e-03   1.7868422e-03   5.4616584e-03   3.2163395e-03
  -1.5829618e-03  -1.6113914e-03   2.2811072e-04   1.2248016e-03  -7.2920386e-04  -6.6052686e-04  -1.6514127e-04  -1.0423084e-03  -4.5963898e-04  -1.9110598e-03  -2.1497901e-03  -8.5750991e-04   1.3363350e-03  -4.5187888e-04   3.5136761e-04  -5.4153550e-04  -7.0529117e-04  -8.6929020e-04  -1.0291009e-03  -1.6494632e-03  -1.1183214e-03   3.6646103e-04  -9.7970816e-04  -4.0545152e-03  -6.1626523e-03  -1.0478356e-03  -1.6293159e-03   1.0158243e-03  -3.1518623e-05   3.4760479e-03   9.0674777e-04   2.5603045e-03   1.8344481e-03   5.4911962e-03   3.2754249e-03
  -1.5632109e-03  -1.5315219e-03   1.6454243e-05   1.1005965e-03  -7.6623517e-04  -6.3543633e-04  -1.7199919e-04  -1.0230729e-03  -3.9094704e-04  -1.8750487e-03  -2.0509502e-03  -8.6584943e-04   1.1217984e-03  -5.1999261e-04   2.2005105e-04  -5.3739274e-04  -6.7505526e-04  -8.9384534e-04  -1.0539495e-03  -1.5681302e-03  -1.1097275e-03   3.2540562e-04  -9.5100596e-04  -3.9914022e-03  -5.9133144e-03  -1.0226214e-03  -1.5752303e-03   1.1155580e-03  -9.3936787e-06   3.5291342e-03   4.7892131e-04   2.5564053e-03   1.9711386e-03   5.4150973e-03   3.3801976e-03
  -1.5138469e-03  -1.4271318e-03  -4.8538590e-05   1.1116369e-03  -7.6395657e-04  -5.6928012e-04  -1.6031622e-04  -9.9065120e-04  -2.7558603e-04  -1.7997947e-03  -1.9062236e-03  -8.2727132e-04   1.4010805e-03  -4.6509190e-04   2.9502995e-04  -5.1494740e-04  -6.1484799e-04  -8.7837887e-04  -1.0077205e-03  -1.4497506e-03  -1.0459056e-03   4.2307648e-04  -7.4230536e-04  -3.8324203e-03  -5.7715592e-03  -8.9656818e-04  -1.4692104e-03   1.2677759e-03   9.4324510e-05   3.4746723e-03  -6.0877658e-04   2.5164471e-03   2.1704063e-03   5.2749664e-03   3.5154580e-03
  -1.4355483e-03  -1.3197995e-03   9.5684736e-05   1.2876630e-03  -7.0461788e-04  -4.6991842e-04  -1.1922498e-04  -9.3659922e-04  -1.3730572e-04  -1.6915947e-03  -1.7437724e-03  -7.6158263e-04   2.1270718e-03  -2.8132938e-04   5.7701807e-04  -4.6494845e-04  -5.3786836e-04  -8.1569882e-04  -8.8283082e-04  -1.3214627e-03  -9.2511589e-04   6.4650626e-04  -3.7943802e-04  -3.6087742e-03  -5.7660397e-03  -7.0943421e-04  -1.3418335e-03   1.4339178e-03   2.4058972e-04   3.3474178e-03  -1.7775423e-03   2.4497567e-03   2.3796288e-03   5.1372545e-03   3.6556213e-03
  -1.3373849e-03  -1.2314079e-03   4.4598797e-04   1.6074324e-03  -5.8882922e-04  -3.5599334e-04  -4.4704233e-05  -8.5829810e-04  -6.5101176e-06  -1.5632766e-03  -1.5930925e-03  -6.9639803e-04   3.1399517e-03  -1.1217627e-06   1.0147532e-03  -3.8397187e-04  -4.5764213e-04  -7.0827163e-04  -6.9540954e-04  -1.2066278e-03  -7.6482171e-04   9.4101409e-04   5.8280384e-05  -3.3636393e-03  -5.8617475e-03  -5.1903247e-04  -1.2255110e-03   1.5720833e-03   3.7715863e-04   3.2023708e-03  -2.5900989e-03   2.3809785e-03   2.5415495e-03   5.0653177e-03   3.7742525e-03
  -1.2345109e-03  -1.1726720e-03   9.2804624e-04   2.0040867e-03  -4.3879513e-04  -2.5041023e-04   5.6317891e-05  -7.6066807e-04   9.2796916e-05  -1.4299715e-03  -1.4718327e-03  -6.5120665e-04   4.1948683e-03   3.1202773e-04   1.5142360e-03  -2.7776707e-04  -3.8196184e-04  -5.6909700e-04  -4.8231642e-04  -1.1140070e-03  -5.9717166e-04   1.2279415e-03   4.6136478e-04  -3.1277137e-03  -5.9555746e-03  -3.7283453e-04  -1.1359522e-03   1.6569208e-03   4.6401357e-04   3.0958988e-03  -2.8766585e-03   2.3390243e-03   2.6194439e-03   5.0931824e-03   3.8531786e-03
  -1.1429000e-03  -1.1364989e-03   1.4127258e-03   2.3853478e-03  -2.9231125e-04  -1.7166184e-04   1.6643282e-04  -6.5440958e-04   1.5300806e-04  -1.3045797e-03  -1.3790134e-03  -6.2540843e-04   5.0249719e-03   5.8191584e-04   1.9609930e-03  -1.6132322e-04  -3.1095557e-04  -4.1987610e-04  -2.9019316e-04  -1.0358132e-03  -4.5868603e-04   1.4320139e-03   7.2917528e-04  -2.9028740e-03  -5.9134797e-03  -2.8445185e-04  -1.0628834e-03   1.6917976e-03   4.9303781e-04   3.0669041e-03  -2.7008499e-03   2.3424025e-03   2.6131042e-03   5.2120793e-03   3.8870990e-03
  -1.0731706e-03  -1.1003203e-03   1.7578187e-03   2.6637586e-03  -1.8878015e-04  -1.2668569e-04   2.6334284e-04  -5.5147323e-04   1.8492613e-04  -1.1944690e-03  -1.2983243e-03  -5.9768785e-04   5.4354244e-03   7.4591319e-04   2.2538463e-03  -5.4654094e-05  -2.3992168e-04  -2.8607721e-04  -1.5951280e-04  -9.5519854e-04  -3.7753157e-04   1.5087001e-03   8.0989872e-04  -2.6644277e-03  -5.6279809e-03  -2.3010654e-04  -9.7620481e-04   1.7058965e-03   4.9014279e-04   3.1254059e-03  -2.2883071e-03   2.3893961e-03   2.5563566e-03   5.3742146e-03   3.8821890e-03
  -1.0264526e-03  -1.0367929e-03   1.8660636e-03   2.7860545e-03  -1.5262343e-04  -1.0870704e-04   3.2853812e-04  -4.6003069e-04   2.1090375e-04  -1.1005000e-03  -1.2095263e-03  -5.3779065e-04   5.3783548e-03   7.7852997e-04   2.3389873e-03   2.4776613e-05  -1.6480280e-04  -1.8970409e-04  -1.0980029e-04  -8.5827045e-04  -3.6354762e-04   1.4584113e-03   7.1833766e-04  -2.3816824e-03  -5.0695315e-03  -1.6823936e-04  -8.4448431e-04   1.7380535e-03   4.9854635e-04   3.2516329e-03  -1.9312828e-03   2.4590150e-03   2.4979564e-03   5.5123866e-03   3.8506363e-03
  -9.9451630e-04  -9.2771044e-04   1.7287924e-03   2.7476065e-03  -1.8230522e-04  -1.0115300e-04   3.5500102e-04  -3.8164307e-04   2.5300929e-04  -1.0184933e-03  -1.1015228e-03  -4.2439505e-04   4.9498864e-03   6.9902558e-04   2.2265553e-03   6.9735346e-05  -8.6826381e-05  -1.4215619e-04  -1.3318213e-04  -7.4365403e-04  -4.0566869e-04   1.3200945e-03   5.1991327e-04  -2.0451790e-03  -4.3185828e-03  -6.9641246e-05  -6.5552734e-04   1.8169311e-03   5.5374589e-04   3.4053852e-03  -1.8526822e-03   2.5229843e-03   2.4777995e-03   5.5688322e-03   3.8047943e-03
  -9.6427888e-04  -7.7449065e-04   1.4237206e-03   2.5848339e-03  -2.5118323e-04  -8.5524101e-05   3.4984300e-04  -3.1222386e-04   3.2239975e-04  -9.4215234e-04  -9.8014320e-04  -2.5980716e-04   4.3152687e-03   5.5857876e-04   1.9795680e-03   8.6906322e-05  -1.3511599e-05  -1.4031224e-04  -1.9963812e-04  -6.2442111e-04  -4.7778216e-04   1.1497303e-03   2.9404249e-04  -1.6849892e-03  -3.5662896e-03   6.0201743e-05  -4.2810850e-04   1.9478892e-03   6.6417799e-04   3.5425760e-03  -2.0811409e-03   2.5626128e-03   2.5109870e-03   5.5212416e-03   3.7539562e-03
  -9.2440628e-04  -6.0028851e-04   1.0694038e-03   2.3523436e-03  -3.1982054e-04  -4.9303508e-05   3.3033983e-04  -2.4606389e-04   4.1479839e-04  -8.6601469e-04  -8.6666388e-04  -7.3988551e-05   3.6275533e-03   4.1609257e-04   1.6833806e-03   9.4193572e-05   4.4565433e-05  -1.6791491e-04  -2.7077319e-04  -5.2165700e-04  -5.4970948e-04   9.9723518e-04   1.0121590e-04  -1.3680320e-03  -3.0606927e-03   1.7953059e-04  -2.0806114e-04   2.1122587e-03   8.0679456e-04   3.6324689e-03  -2.4465260e-03   2.5799677e-03   2.5856085e-03   5.3921468e-03   3.7044173e-03
  -8.7070005e-04  -4.4212205e-04   7.7068061e-04   2.0996453e-03  -3.5300045e-04   9.5821870e-06   3.1557621e-04  -1.8036320e-04   5.1355833e-04  -7.8717177e-04  -7.8756904e-04   8.5054220e-05   2.9889278e-03   3.1675966e-04   1.4144420e-03   1.1281230e-04   7.9420475e-05  -2.0184508e-04  -3.1488048e-04  -4.5339909e-04  -5.9793674e-04   8.9253893e-04  -3.1447809e-05  -1.1708061e-03  -2.9905150e-03   2.3250584e-04  -4.8523805e-05   2.2784211e-03   9.3932485e-04   3.6670789e-03  -2.7136945e-03   2.5952111e-03   2.6727067e-03   5.2356860e-03   3.6612849e-03
  -8.0770371e-04  -3.3567491e-04   5.8515411e-04   1.8587695e-03  -3.3319579e-04   8.3157785e-05   3.1808982e-04  -1.1742108e-04   5.9838151e-04  -7.0533954e-04  -7.6059595e-04   1.7183446e-04   2.4552711e-03   2.8178756e-04   1.2221297e-03   1.5813790e-04   9.0398615e-05  -2.2053676e-04  -3.1676344e-04  -4.2523374e-04  -6.1190611e-04   8.4356649e-04  -1.0601919e-04  -1.1382386e-03  -3.3669404e-03   1.8519483e-04   1.7287206e-05   2.4187341e-03   1.0234583e-03   3.6575713e-03  -2.7348150e-03   2.6309446e-03   2.7423869e-03   5.1094466e-03   3.6298705e-03
  -7.4589951e-04  -2.9954631e-04   5.1768991e-04   1.6449268e-03  -2.6526718e-04   1.5797422e-04   3.3951146e-04  -6.3139625e-05   6.5505190e-04  -6.2171812e-04  -7.8457035e-04   1.6574163e-04   2.0599838e-03   3.0973772e-04   1.1261029e-03   2.3348606e-04   8.5073414e-05  -2.1100933e-04  -2.7954264e-04  -4.2777968e-04  -5.9442042e-04   8.4283057e-04  -1.3871137e-04  -1.2529736e-03  -4.0061716e-03   5.3375657e-05  -4.6431833e-06   2.5229102e-03   1.0466023e-03   3.6208672e-03  -2.5173244e-03   2.6932710e-03   2.7780787e-03   5.0471309e-03   3.6152424e-03
  -6.9602876e-04  -3.2711803e-04   5.3560385e-04   1.4651176e-03  -1.7154908e-04   2.2141784e-04   3.7183857e-04  -2.2698927e-05   6.8125618e-04  -5.3768855e-04  -8.3898293e-04   8.2696555e-05   1.8341315e-03   3.8535817e-04   1.1241755e-03   3.2930044e-04   7.5741271e-05  -1.7206553e-04  -2.1928918e-04  -4.4217447e-04  -5.5724138e-04   8.7699859e-04  -1.4386390e-04  -1.4375972e-03  -4.6311533e-03  -9.8487501e-05  -7.0749295e-05   2.6000424e-03   1.0288577e-03   3.5660698e-03  -2.2039325e-03   2.7615326e-03   2.7821127e-03   5.0450931e-03   3.6201777e-03
  -6.6365371e-04  -3.9061115e-04   5.9370243e-04   1.3270337e-03  -8.0296697e-05   2.6673122e-04   4.0312693e-04   3.8050011e-06   6.8566785e-04  -4.5423565e-04  -8.9341850e-04  -3.1507097e-05   1.8107753e-03   4.9035857e-04   1.2034830e-03   4.2786080e-04   7.3534058e-05  -1.1292737e-04  -1.5577741e-04  -4.5001574e-04  -5.1449490e-04   9.3425385e-04  -1.2528193e-04  -1.5895782e-03  -5.0009326e-03  -1.8763919e-04  -1.2188051e-04   2.6683991e-03   1.0105575e-03   3.4897383e-03  -1.9971645e-03   2.7944362e-03   2.7705410e-03   5.0674602e-03   3.6429556e-03
  -6.4689800e-04  -4.5478545e-04   6.5784081e-04   1.2422898e-03  -1.2988939e-05   2.9440824e-04   4.2427980e-04   2.2732724e-05   6.8139227e-04  -3.7249018e-04  -9.2133833e-04  -1.2251818e-04   2.0128419e-03   6.1092078e-04   1.3486863e-03   5.1136414e-04   8.3471707e-05  -4.8382302e-05  -1.0384390e-04  -4.4197444e-04  -4.7697045e-04   1.0064389e-03  -7.8542347e-05  -1.6269234e-03  -4.9889879e-03  -1.5366562e-04  -1.1226563e-04   2.7399021e-03   1.0284139e-03   3.3826451e-03  -2.0547870e-03   2.7519201e-03   2.7614080e-03   5.0665652e-03   3.6766275e-03
  -6.3853769e-04  -4.9261859e-04   7.1667874e-04   1.2223236e-03   2.3388104e-05   3.0968676e-04   4.3316645e-04   4.3959801e-05   6.7800650e-04  -2.9483458e-04  -9.1086840e-04  -1.5123653e-04   2.4321764e-03   7.3893351e-04   1.5438297e-03   5.6950981e-04   1.0304121e-04   7.2600901e-06  -6.9204783e-05  -4.2062282e-04  -4.4966498e-04   1.0863960e-03  -1.2924380e-06  -1.5213399e-03  -4.6035941e-03   1.1296007e-05  -3.0124314e-05   2.8091879e-03   1.0944284e-03   3.2431635e-03  -2.3993377e-03   2.6214453e-03   2.7639032e-03   5.0087944e-03   3.7105137e-03
  -6.3109223e-04  -4.9525662e-04   7.7731285e-04   1.2698657e-03   3.5650173e-05   3.1803094e-04   4.3403052e-04   7.5019176e-05   6.7684910e-04  -2.2572615e-04  -8.6776796e-04  -1.0823808e-04   3.0111580e-03   8.6776231e-04   1.7686671e-03   6.0268049e-04   1.2478155e-04   4.4866269e-05  -5.0038438e-05  -3.9651612e-04  -4.3302940e-04   1.1638328e-03   9.6078686e-05  -1.3073573e-03  -3.9685601e-03   2.5437181e-04   9.8715180e-05   2.8541728e-03   1.1885982e-03   3.0876719e-03  -2.9017518e-03   2.4312609e-03   2.7742279e-03   4.8923315e-03   3.7332932e-03
  -6.2179135e-04  -4.7250112e-04   8.4986479e-04   1.3717024e-03   3.6659658e-05   3.2139901e-04   4.3299951e-04   1.1558476e-04   6.7193579e-04  -1.7130985e-04  -8.0998201e-04  -1.3547332e-05   3.6393551e-03   9.8673324e-04   1.9941458e-03   6.1918254e-04   1.4124038e-04   6.2118983e-05  -4.2305295e-05  -3.8047502e-04  -4.2629475e-04   1.2239963e-03   1.8724339e-04  -1.0654663e-03  -3.2708352e-03   4.8080398e-04   2.2529581e-04   2.8484676e-03   1.2690418e-03   2.9499545e-03  -3.3549066e-03   2.2400126e-03   2.7794691e-03   4.7467421e-03   3.7362340e-03
  -6.1456015e-04  -4.4478089e-04   9.3261473e-04   1.4981328e-03   3.5917561e-05   3.1739820e-04   4.3294026e-04   1.5571230e-04   6.5562240e-04  -1.3770428e-04  -7.5712585e-04   9.6291777e-05   4.1767349e-03   1.0795604e-03   2.1831687e-03   6.2855327e-04   1.4934999e-04   6.2138868e-05  -4.4791843e-05  -3.7707237e-04  -4.3021716e-04   1.2517833e-03   2.3821430e-04  -8.8421575e-04  -2.6830388e-03   5.9806963e-04   3.0383375e-04   2.7789352e-03   1.2951678e-03   2.8685764e-03  -3.5793830e-03   2.1084500e-03   2.7665228e-03   4.6152212e-03   3.7151664e-03
  -6.1779236e-04  -4.3127287e-04   1.0079516e-03   1.6118321e-03   3.4135410e-05   3.0151362e-04   4.3115063e-04   1.7948021e-04   6.2531471e-04  -1.2866060e-04  -7.2069973e-04   1.8672681e-04   4.5051170e-03   1.1294739e-03   2.3004515e-03   6.3506688e-04   1.5162291e-04   5.0638449e-05  -6.0330276e-05  -3.8329311e-04  -4.4713184e-04   1.2401630e-03   2.2458402e-04  -8.1643695e-04  -2.2947837e-03   5.6738663e-04   3.1688128e-04   2.6577287e-03   1.2519383e-03   2.8688209e-03  -3.4923861e-03   2.0695578e-03   2.7308648e-03   4.5305029e-03   3.6707451e-03
  -6.3912955e-04  -4.4047722e-04   1.0525109e-03   1.6840476e-03   2.4566083e-05   2.7093996e-04   4.2155400e-04   1.7296814e-04   5.8705354e-04  -1.4376751e-04  -7.0037186e-04   2.4005529e-04   4.5868149e-03   1.1292035e-03   2.3290219e-03   6.3524389e-04   1.5345051e-04   3.3542525e-05  -9.2328904e-05  -3.9305189e-04  -4.7808242e-04   1.1982691e-03   1.4855525e-04  -8.5384940e-04  -2.0963403e-03   4.2989507e-04   2.8468907e-04   2.5206630e-03   1.1608192e-03   2.9484658e-03  -3.1194179e-03   2.1113744e-03   2.6802940e-03   4.4976887e-03   3.6075946e-03
  -6.8023376e-04  -4.6803249e-04   1.0559004e-03   1.7108714e-03  -2.7276573e-07   2.2760438e-04   4.0024391e-04   1.3276831e-04   5.5361487e-04  -1.7820917e-04  -6.8809203e-04   2.5937005e-04   4.4913357e-03   1.0896790e-03   2.2843939e-03   6.2063371e-04   1.5820109e-04   1.6192394e-05  -1.3891775e-04  -4.0433722e-04  -5.1885389e-04   1.1534677e-03   4.4676588e-05  -9.3671959e-04  -2.0219989e-03   2.8728144e-04   2.5297905e-04   2.4123394e-03   1.0703234e-03   3.0746923e-03  -2.5657716e-03   2.1795114e-03   2.6317514e-03   4.4920477e-03   3.5332902e-03
  -7.3460379e-04  -5.0221145e-04   1.0358235e-03   1.7202812e-03  -4.0971448e-05   1.7851773e-04   3.7087881e-04   7.0229493e-05   5.3803722e-04  -2.2423944e-04  -6.7690783e-04   2.6040600e-04   4.3675043e-03   1.0407772e-03   2.2159147e-03   5.8427698e-04   1.6322616e-04   3.7926795e-06  -1.8884856e-04  -4.2416135e-04  -5.5778859e-04   1.1445109e-03  -3.0649480e-05  -9.9155249e-04  -2.0162298e-03   2.5169287e-04   2.6740515e-04   2.3664956e-03   1.0323242e-03   3.1950974e-03  -1.9664757e-03   2.1997623e-03   2.6031502e-03   4.4724145e-03   3.4574224e-03
  -7.8982569e-04  -5.3295866e-04   1.0382076e-03   1.7645862e-03  -8.7731678e-05   1.3312409e-04   3.4619396e-04   8.5814554e-06   5.4626266e-04  -2.7361355e-04  -6.6851714e-04   2.5673374e-04   4.3790960e-03   1.0217915e-03   2.1915114e-03   5.2693096e-04   1.5944328e-04   1.8496645e-06  -2.2258262e-04  -4.6757326e-04  -5.7757908e-04   1.2076714e-03  -2.0947478e-05  -9.7232749e-04  -2.0796959e-03   3.9717721e-04   3.4981454e-04   2.3914925e-03   1.0778334e-03   3.2596798e-03  -1.4268074e-03   2.1127940e-03   2.6044296e-03   4.4034231e-03   3.3901758e-03
  -8.3298719e-04  -5.5859523e-04   1.1201743e-03   1.9007321e-03  -1.2348534e-04   9.9131175e-05   3.4391615e-04  -2.5930321e-05   5.7293312e-04  -3.1972173e-04  -6.7443919e-04   2.4754566e-04   4.6402551e-03   1.0653982e-03   2.2715782e-03   4.5916607e-04   1.3523085e-04   1.5423853e-05  -2.1907272e-04  -5.5036298e-04  -5.6115375e-04   1.3610178e-03   1.0730178e-04  -8.8337087e-04  -2.2688773e-03   7.3224312e-04   4.8792880e-04   2.4670674e-03   1.2036815e-03   3.2435686e-03  -9.7349240e-04   1.9027094e-03   2.6315728e-03   4.2745927e-03   3.3395600e-03
  -8.5630751e-04  -5.8612728e-04   1.3235365e-03   2.1663781e-03  -1.3210294e-04   7.9059544e-05   3.7867806e-04  -1.4695758e-05   6.0290046e-04  -3.5847950e-04  -7.0948142e-04   2.1591637e-04   5.1714913e-03   1.1818554e-03   2.4826019e-03   3.9768533e-04   8.2946601e-05   4.6947884e-05  -1.6540675e-04  -6.7889231e-04  -4.9951178e-04   1.5924941e-03   3.4875481e-04  -7.7468855e-04  -2.6420425e-03   1.1969251e-03   6.4234686e-04   2.5532395e-03   1.3746669e-03   3.1570501e-03  -5.4675731e-04   1.6007052e-03   2.6654529e-03   4.1048117e-03   3.3071015e-03
  -8.5995189e-04  -6.2507624e-04   1.6501775e-03   2.5600761e-03  -1.0718358e-04   6.9364556e-05   4.5375590e-04   4.5436285e-05   6.1789923e-04  -3.8790272e-04  -7.8093732e-04   1.3936039e-04   5.8790930e-03   1.3497885e-03   2.7998025e-03   3.5774469e-04   4.5495349e-06   9.3682604e-05  -6.4952350e-05  -8.4289099e-04  -3.9810763e-04   1.8565544e-03   6.5510185e-04  -7.1247178e-04  -3.1862371e-03   1.6834200e-03   7.6727971e-04   2.6074771e-03   1.5395567e-03   3.0361533e-03  -4.4712117e-05   1.2620148e-03   2.6757042e-03   3.9293766e-03   3.2833242e-03
  -8.5072685e-04  -6.7867275e-04   2.0486373e-03   3.0316152e-03  -5.6657551e-05   6.2463754e-05   5.5678212e-04   1.4015283e-04   6.0515187e-04  -4.0698014e-04  -8.8004948e-04   6.3831285e-06   6.5624597e-03   1.5181170e-03   3.1455879e-03   3.4559408e-04  -8.7022461e-05   1.4655192e-04   6.0028076e-05  -1.0156750e-03  -2.7867680e-04   2.0829232e-03   9.4559102e-04  -7.3866022e-04  -3.7944806e-03   2.0777399e-03   8.3467714e-04   2.6022382e-03   1.6537148e-03   2.9200593e-03   6.0839928e-04   9.3385548e-04   2.6286386e-03   3.7776241e-03   3.2456464e-03
  -8.3745853e-04  -7.3802704e-04   2.4192992e-03   3.4873341e-03  -6.0286658e-07   5.0675601e-05   6.6198909e-04   2.4232683e-04   5.6337542e-04  -4.1488605e-04  -9.8160130e-04  -1.7196323e-04   6.9652274e-03   1.6213568e-03   3.4089389e-03   3.5476239e-04  -1.7179095e-04   1.9177199e-04   1.7350214e-04  -1.1621148e-03  -1.7454597e-04   2.1980628e-03   1.1324594e-03  -8.4223767e-04  -4.3136175e-03   2.3083955e-03   8.4810430e-04   2.5340533e-03   1.6971435e-03   2.8295883e-03   1.4108319e-03   6.3526264e-04   2.4971743e-03   3.6540271e-03   3.1615761e-03
  -8.2570984e-04  -7.8324828e-04   2.6431091e-03   3.8137457e-03   3.7072728e-05   3.0064810e-05   7.3888461e-04   3.2202451e-04   5.0291291e-04  -4.1107522e-04  -1.0526828e-03  -3.6309773e-04   6.8760701e-03   1.6053173e-03   3.4850526e-03   3.6825519e-04  -2.3013004e-04   2.1536546e-04   2.3784676e-04  -1.2503609e-03  -1.1988223e-04   2.1533235e-03   1.1543431e-03  -9.6072094e-04  -4.6131988e-03   2.3742022e-03   8.3786051e-04   2.4198496e-03   1.6781087e-03   2.7586930e-03   2.2649667e-03   3.5802345e-04   2.2698697e-03   3.5327408e-03   2.9984072e-03
  -8.1471272e-04  -7.9137093e-04   2.6286994e-03   3.9161085e-03   3.9310715e-05   2.3668686e-06   7.6410105e-04   3.5828003e-04   4.4002218e-04  -3.9607126e-04  -1.0662785e-03  -5.2550540e-04   6.2351166e-03   1.4520566e-03   3.3209326e-03   3.6623346e-04  -2.5003718e-04   2.0891486e-04   2.2879896e-04  -1.2618913e-03  -1.3641121e-04   1.9462456e-03   1.0017441e-03  -1.0103429e-03  -4.6294681e-03   2.3314618e-03   8.4108143e-04   2.2842383e-03   1.6213348e-03   2.6825629e-03   2.9912915e-03   8.4692729e-05   1.9561134e-03   3.3686801e-03   2.7368641e-03
  -7.9817633e-04  -7.4683700e-04   2.3551064e-03   3.7565548e-03   3.5471803e-06  -2.5847563e-05   7.3085277e-04   3.4753149e-04   3.8870866e-04  -3.7202271e-04  -1.0128877e-03  -6.2555546e-04   5.1646130e-03   1.1893373e-03   2.9405602e-03   3.3603064e-04  -2.3112817e-04   1.7370886e-04   1.4614798e-04  -1.1959786e-03  -2.2352283e-04   1.6220273e-03   7.1913621e-04  -9.2571828e-04  -4.3758880e-03   2.2520199e-03   8.7961793e-04   2.1465102e-03   1.5498470e-03   2.5769474e-03   3.3832658e-03  -1.8913545e-04   1.5855229e-03   3.1204617e-03   2.3823730e-03
  -7.6825067e-04  -6.4904039e-04   1.8812765e-03   3.3697530e-03  -5.7580182e-05  -4.6093646e-05   6.5113237e-04   3.0472150e-04   3.5462400e-04  -3.4213756e-04  -9.0474921e-04  -6.5035740e-04   3.8978604e-03   8.7847799e-04   2.4321396e-03   2.7953339e-04  -1.8384625e-04   1.2092597e-04   1.4414040e-05  -1.0674937e-03  -3.5690662e-04   1.2542135e-03   3.8314640e-04  -6.8890245e-04  -3.9241058e-03   2.1836436e-03   9.4823638e-04   2.0147569e-03   1.4724369e-03   2.4366342e-03   3.3076394e-03  -4.4334694e-04   1.2015344e-03   2.7736132e-03   1.9672352e-03
  -7.2014780e-04  -5.1305309e-04   1.3159428e-03   2.8460966e-03  -1.2253203e-04  -5.1406492e-05   5.4956361e-04   2.5683059e-04   3.3422330e-04  -3.0872301e-04  -7.7045680e-04  -6.1144633e-04   2.6717128e-03   5.8902282e-04   1.9071733e-03   2.1376851e-04  -1.2442506e-04   6.7489680e-05  -1.2691678e-04  -8.9968205e-04  -4.9669604e-04   9.1651548e-04   7.1713635e-05  -3.3750341e-04  -3.3532272e-03   2.1346479e-03   1.0187767e-03   1.8888351e-03   1.3835785e-03   2.2808493e-03   2.7998621e-03  -6.4083806e-04   8.5114245e-04   2.3508696e-03   1.5417009e-03
  -6.5470097e-04  -3.6289264e-04   7.7101903e-04   2.2943651e-03  -1.7039006e-04  -3.8642156e-05   4.5264463e-04   2.3241500e-04   3.1929038e-04  -2.7068192e-04  -6.4182084e-04  -5.3786987e-04   1.6547395e-03   3.7475969e-04   1.4580804e-03   1.6413057e-04  -6.7881454e-05   2.9494480e-05  -2.3824700e-04  -7.1546290e-04  -6.0106709e-04   6.5982365e-04  -1.5964164e-04   4.9794649e-05  -2.6760735e-03   2.0847276e-03   1.0576145e-03   1.7683506e-03   1.2742986e-03   2.1416273e-03   2.0596241e-03  -7.4966828e-04   5.7397166e-04   1.9036853e-03   1.1581143e-03
  -5.7741848e-04  -2.2047330e-04   3.2632728e-04   1.8059429e-03  -1.8861223e-04  -8.9015621e-06   3.7898356e-04   2.5185788e-04   3.0399315e-04  -2.2213424e-04  -5.3878763e-04  -4.6175221e-04   9.2660863e-04   2.6032873e-04   1.1338090e-03   1.5365057e-04  -2.2261984e-05   1.6396125e-05  -2.9286198e-04  -5.3124659e-04  -6.3938851e-04   5.0156156e-04  -2.8776290e-04   3.8587590e-04  -1.7946135e-03   2.0103487e-03   1.0466839e-03   1.6592838e-03   1.1459057e-03   2.0425769e-03   1.3363939e-03  -7.6680729e-04   3.9342232e-04   1.4909150e-03   8.5516571e-04
  -4.9481716e-04  -9.5881020e-05   1.6484821e-05   1.4344554e-03  -1.7578843e-04   3.3622298e-05   3.3468765e-04   3.2147090e-04   2.9027430e-04  -1.5361402e-04  -4.6022146e-04  -4.0377807e-04   4.8892997e-04   2.3976003e-04   9.3692780e-04   1.9320846e-04   1.3183026e-05   2.8444763e-05  -2.8347809e-04  -3.5580518e-04  -6.0048804e-04   4.2752631e-04  -3.1966486e-04   6.1286794e-04  -5.4628216e-04   1.9074911e-03   9.9531340e-04   1.5741766e-03   1.0167833e-03   1.9808416e-03   8.1717910e-04  -7.2999555e-04   3.1175819e-04   1.1568504e-03   6.4790784e-04
  -4.1041654e-04   1.5517471e-05  -1.6401119e-04   1.1923874e-03  -1.3916980e-04   8.3397375e-05   3.1490473e-04   4.3233528e-04   2.8820927e-04  -5.6052828e-05  -3.8597526e-04  -3.6671956e-04   2.8829035e-04   2.8426884e-04   8.3653367e-04   2.7646445e-04   4.5225606e-05   5.8252805e-05  -2.2132408e-04  -1.9374739e-04  -4.9438106e-04   4.0309739e-04  -2.8283658e-04   7.2477013e-04   1.2024057e-03   1.7974344e-03   9.3528535e-04   1.5253790e-03   9.1715663e-04   1.9230980e-03   5.9146457e-04  -7.0881279e-04   3.1014762e-04   9.1821217e-04   5.2592112e-04
  -3.2312755e-04   1.2735177e-04  -2.4578907e-04   1.0597219e-03  -8.9154455e-05   1.3487913e-04   3.0954459e-04   5.6342990e-04   3.1088485e-04   7.3725816e-05  -2.8927767e-04  -3.4019849e-04   2.4267685e-04   3.5547806e-04   7.8894431e-04   3.8128858e-04   8.1106067e-05   9.5376112e-05  -1.2944153e-04  -5.0465787e-05  -3.4782939e-04   3.8936871e-04  -2.1260337e-04   7.6118566e-04   3.5205234e-03   1.7131745e-03   9.0236281e-04   1.5154689e-03   8.7458862e-04   1.8197555e-03   6.6442922e-04  -7.7419868e-04   3.5425156e-04   7.6329679e-04   4.5933641e-04
  -2.2932370e-04   2.5109458e-04  -2.6711589e-04   9.9881366e-04  -3.4119890e-05   1.8297610e-04   3.0974479e-04   6.8790792e-04   3.6637174e-04   2.2867443e-04  -1.5267952e-04  -3.1240232e-04   2.6752049e-04   4.1953457e-04   7.5781572e-04   4.7746225e-04   1.2334283e-04   1.3149294e-04  -3.3367378e-05   6.5312073e-05  -1.9543056e-04   3.5857767e-04  -1.4053611e-04   7.7757455e-04   6.4228680e-03   1.6770350e-03   9.1575028e-04   1.5309949e-03   8.9855463e-04   1.6322996e-03   9.7489514e-04  -9.5929345e-04   4.0472974e-04   6.6150725e-04   4.1042766e-04
  -1.2751762e-04   3.8587759e-04  -2.5989668e-04   9.7018195e-04   2.1792423e-05   2.2291452e-04   3.1170915e-04   7.8094349e-04   4.5110780e-04   3.9078013e-04   2.0621776e-05  -2.8060106e-04   2.9722840e-04   4.5708133e-04   7.2586600e-04   5.3822709e-04   1.6761840e-04   1.6351030e-04   4.7127476e-05   1.4344713e-04  -6.8953130e-05   3.0285463e-04  -8.7100801e-05   8.1242999e-04   9.8405713e-03   1.6843013e-03   9.6693344e-04   1.5441392e-03   9.7259018e-04   1.3589914e-03   1.4092752e-03  -1.2361688e-03   4.2980912e-04   5.7843589e-04   3.4688774e-04
  -2.2700564e-05   5.1514257e-04  -2.4322774e-04   9.4447815e-04   7.7400786e-05   2.5023625e-04   3.1636236e-04   8.2691829e-04   5.4841529e-04   5.3543079e-04   2.0560059e-04  -2.5381791e-04   2.9686184e-04   4.6553568e-04   6.9433259e-04   5.5090414e-04   2.0469735e-04   1.9323721e-04   1.0231396e-04   1.7791212e-04   1.1597886e-05   2.3311217e-04  -5.9875067e-05   8.6997729e-04   1.3516188e-02   1.7028295e-03   1.0237008e-03   1.5228570e-03   1.0588226e-03   1.0419408e-03   1.8233047e-03  -1.5265770e-03   4.1496655e-04   4.8980891e-04   2.5193131e-04
   7.2709568e-05   6.1248883e-04  -2.2500513e-04   9.0746913e-04   1.3132828e-04   2.6148578e-04   3.2583423e-04   8.2356459e-04   6.3353148e-04   6.3984265e-04   3.6532848e-04  -2.4609079e-04   2.6107387e-04   4.5395072e-04   6.7270204e-04   5.2136299e-04   2.2526173e-04   2.2415380e-04   1.3191921e-04   1.7227845e-04   4.2089734e-05   1.6980895e-04  -5.6355861e-05   9.2496944e-04   1.6836731e-02   1.6896252e-03   1.0477726e-03   1.4453267e-03   1.1141691e-03   7.5025432e-04   2.0814312e-03  -1.7399839e-03   3.6550211e-04   3.8803622e-04   1.2748640e-04
   1.4274896e-04   6.5435516e-04  -2.0817039e-04   8.5781503e-04   1.7971886e-04   2.5552718e-04   3.3949138e-04   7.8144920e-04   6.8324438e-04   6.9212820e-04   4.6783630e-04  -2.6460539e-04   2.0308439e-04   4.3449385e-04   6.6626986e-04   4.6996193e-04   2.2507155e-04   2.5754073e-04   1.4129878e-04   1.4127362e-04   3.2442989e-05   1.3114171e-04  -6.8672744e-05   9.4425696e-04   1.8746259e-02   1.6159777e-03   1.0171436e-03   1.3111728e-03   1.1111004e-03   5.5008335e-04   2.1047073e-03  -1.8149855e-03   3.0096120e-04   2.7933143e-04  -1.0137820e-05
   1.7524912e-04   6.3296570e-04  -1.9633419e-04   8.0073555e-04   2.1663606e-04   2.3474060e-04   3.5230050e-04   7.1916648e-04   6.8557600e-04   6.9623819e-04   5.0147378e-04  -3.0078247e-04   1.4075793e-04   4.1546588e-04   6.6910009e-04   4.2140525e-04   2.0758955e-04   2.9034447e-04   1.3717647e-04   1.0663012e-04   4.4631361e-07   1.2453723e-04  -8.7714419e-05   9.1165700e-04   1.8184274e-02   1.4858608e-03   9.4012578e-04   1.1429101e-03   1.0515706e-03   4.7816581e-04   1.8993804e-03  -1.7445113e-03   2.4461676e-04   1.7506900e-04  -1.3907655e-04
   1.6883515e-04   5.6205620e-04  -1.9514232e-04   7.4185448e-04   2.3708516e-04   2.0512588e-04   3.5669401e-04   6.5621891e-04   6.4450840e-04   6.6975749e-04   4.8001105e-04  -3.3110668e-04   8.6668108e-05   3.9873787e-04   6.6577812e-04   3.9384139e-04   1.8266733e-04   3.1609740e-04   1.2514456e-04   8.8919318e-05  -3.5622601e-05   1.4455574e-04  -1.0552006e-04   8.4077730e-04   1.5365855e-02   1.3349836e-03   8.5189618e-04   9.7628852e-04   9.6523104e-04   5.2975927e-04   1.5480426e-03  -1.5772391e-03   2.1303337e-04   8.3593382e-05  -2.4068910e-04
   1.3530576e-04   4.7171014e-04  -2.0915894e-04   6.8430178e-04   2.4069108e-04   1.7480525e-04   3.4679659e-04   6.0641044e-04   5.7726831e-04   6.3539360e-04   4.3450063e-04  -3.2828288e-04   4.4999564e-05   3.8146586e-04   6.4008619e-04   3.9204530e-04   1.6201142e-04   3.2829211e-04   1.0943034e-04   9.9402750e-05  -6.2645566e-05   1.7703853e-04  -1.1625343e-04   7.6796958e-04   1.2991812e-02   1.2107908e-03   7.9548993e-04   8.4465422e-04   8.9272234e-04   6.6388393e-04   1.1730150e-03  -1.3948535e-03   2.1026147e-04   6.6589637e-06  -3.0500922e-04
   9.5508774e-05   3.9506916e-04  -2.3731608e-04   6.2945101e-04   2.3331301e-04   1.5135411e-04   3.2242306e-04   5.7395862e-04   5.0573534e-04   6.1055622e-04   3.9689778e-04  -2.7658651e-04   1.4047966e-05   3.5986761e-04   5.8487768e-04   4.0694457e-04   1.5386756e-04   3.2416778e-04   9.3793860e-05   1.3579642e-04  -7.5228912e-05   2.0671207e-04  -1.1658467e-04   7.3066744e-04   1.4818904e-02   1.1462220e-03   7.9844688e-04   7.6521089e-04   8.6387934e-04   8.2337181e-04   8.9345215e-04  -1.2714143e-03   2.2837236e-04  -5.9116937e-05  -3.3211242e-04
   7.0387716e-05   3.5402091e-04  -2.7085459e-04   5.7937583e-04   2.2515145e-04   1.3907232e-04   2.9022232e-04   5.5349956e-04   4.4664496e-04   6.0018036e-04   3.8472394e-04  -1.8289022e-04  -9.2667588e-06   3.3235821e-04   5.0696125e-04   4.2111430e-04   1.5949766e-04   3.0663924e-04   8.2051745e-05   1.8400476e-04  -7.5189062e-05   2.2428196e-04  -1.0603582e-04   7.4488681e-04   2.1913137e-02   1.1418721e-03   8.5732708e-04   7.3322648e-04   8.8240550e-04   9.6149847e-04   7.9157541e-04  -1.2332266e-03   2.5299619e-04  -1.1791917e-04  -3.3050062e-04
   7.1742033e-05   3.5073096e-04  -2.9586127e-04   5.3839263e-04   2.2604839e-04   1.3749942e-04   2.6110947e-04   5.3381512e-04   4.0539738e-04   5.9609168e-04   3.9437014e-04  -7.6928081e-05  -2.6278714e-05   3.0045616e-04   4.2403699e-04   4.1772609e-04   1.7301811e-04   2.8314569e-04   7.7330689e-05   2.2501827e-04  -6.8966343e-05   2.2964591e-04  -8.7082881e-05   7.9457572e-04   3.7446033e-02   1.1650999e-03   9.3730242e-04   7.2613137e-04   9.2418079e-04   1.0617832e-03   8.9268072e-04  -1.2445210e-03   2.7040829e-04  -1.7045236e-04  -3.1392564e-04
   9.7128010e-05   3.6847728e-04  -2.9933333e-04   5.1201461e-04   2.4054093e-04   1.4193046e-04   2.4529287e-04   5.0385128e-04   3.7613895e-04   5.8300234e-04   4.0556124e-04   7.6242287e-07  -3.6436497e-05   2.6752052e-04   3.5578100e-04   3.8882784e-04   1.8455605e-04   2.6213191e-04   8.0536716e-05   2.4379764e-04  -6.4141583e-05   2.3007854e-04  -6.4550208e-05   8.3833170e-04   4.9160305e-02   1.1665854e-03   9.8763965e-04   7.1516336e-04   9.4986788e-04   1.1388940e-03   1.1582383e-03  -1.2299387e-03   2.7284899e-04  -2.1234307e-04  -2.9758859e-04
   1.3142718e-04   3.8099647e-04  -2.7541743e-04   5.0368684e-04   2.6550854e-04   1.4574587e-04   2.4758949e-04   4.5836525e-04   3.4741414e-04   5.4805941e-04   3.9428825e-04   1.8576404e-05  -3.9397102e-05   2.3668857e-04   3.1438441e-04   3.3890529e-04   1.8517056e-04   2.4915824e-04   8.9244058e-05   2.3574402e-04  -6.6261593e-05   2.3493990e-04  -4.4016266e-05   8.3069247e-04   2.0013388e-02   1.1069783e-03   9.6681487e-04   6.7895220e-04   9.2612207e-04   1.2201964e-03   1.4952719e-03  -1.1188450e-03   2.6024453e-04  -2.3634813e-04  -2.9427602e-04
   1.5444811e-04   3.6590383e-04  -2.2834819e-04   5.1124609e-04   2.9174561e-04   1.4351150e-04   2.6539332e-04   4.0051446e-04   3.1009442e-04   4.8891647e-04   3.4737121e-04  -2.9012928e-05  -3.7301448e-05   2.0951075e-04   2.9955903e-04   2.8197680e-04   1.7114486e-04   2.4479974e-04   9.8195880e-05   2.0762626e-04  -7.6922639e-05   2.5001139e-04  -2.9792220e-05   7.4715033e-04   1.9341234e-02   9.7923470e-04   8.6467247e-04   6.1244285e-04   8.4443612e-04   1.3202988e-03   1.7883733e-03  -8.8561134e-04   2.3832404e-04  -2.3685943e-04  -3.1099483e-04
   1.5099041e-04   3.1557254e-04  -1.7048368e-04   5.2553893e-04   3.0871126e-04   1.3337098e-04   2.9018917e-04   3.3999368e-04   2.6315756e-04   4.1581859e-04   2.7062037e-04  -1.1760589e-04  -3.5380905e-05   1.8590355e-04   2.9993922e-04   2.3405660e-04   1.4554204e-04   2.4524651e-04   1.0149787e-04   1.7279238e-04  -9.3612682e-05   2.7425581e-04  -2.3477292e-05   5.9846364e-04   1.9244578e-02   8.1269810e-04   7.0846494e-04   5.2699528e-04   7.2665006e-04   1.4246900e-03   1.9501786e-03  -5.6804530e-04   2.1449555e-04  -2.1357065e-04  -3.4687016e-04
   1.1829849e-04   2.4006733e-04  -1.1650097e-04   5.3259236e-04   3.0989479e-04   1.1760511e-04   3.1167080e-04   2.8776858e-04   2.1429175e-04   3.4662918e-04   1.8606840e-04  -2.0556196e-04  -4.0423740e-05   1.6502244e-04   2.9936101e-04   2.0509998e-04   1.1632017e-04   2.4501854e-04   9.5471609e-05   1.4359980e-04  -1.1128296e-04   3.0021713e-04  -2.4114031e-05   4.2542137e-04   2.0800114e-02   6.5647258e-04   5.4897997e-04   4.4249193e-04   6.1380462e-04   1.4927365e-03   1.9664783e-03  -2.5658379e-04   1.9353777e-04  -1.7228159e-04  -3.9322206e-04
   6.6970431e-05   1.6101886e-04  -7.6852761e-05   5.1879225e-04   2.9583843e-04   1.0120889e-04   3.2220370e-04   2.5025025e-04   1.7528070e-04   2.9772028e-04   1.2012330e-04  -2.5597546e-04  -5.8161928e-05   1.4604956e-04   2.8426011e-04   1.9439927e-04   9.2144044e-05   2.4004892e-04   8.0417311e-05   1.2519742e-04  -1.2493785e-04   3.1737777e-04  -2.9971827e-05   2.7765697e-04   2.3221390e-02   5.5324327e-04   4.3560335e-04   3.7640065e-04   5.4518942e-04   1.4799747e-03   1.9061278e-03  -5.4509961e-05   1.7516933e-04  -1.2324016e-04  -4.3651785e-04
   1.4990798e-05   1.0038690e-04  -5.4118878e-05   4.7673160e-04   2.7319868e-04   8.9367502e-05   3.1934478e-04   2.2602077e-04   1.5503701e-04   2.7583478e-04   8.9613954e-05  -2.5567951e-04  -9.1237016e-05   1.2825646e-04   2.4829258e-04   1.9145418e-04   7.8060839e-05   2.2933811e-04   6.0155973e-05   1.1359450e-04  -1.3214909e-04   3.1666207e-04  -4.0863433e-05   1.8938814e-04   2.5103102e-02   5.1862380e-04   3.9408606e-04   3.3550241e-04   5.3910277e-04   1.3678857e-03   1.8864962e-03  -2.4173311e-05   1.5439664e-04  -7.8553407e-05  -4.6397702e-04
  -2.1617636e-05   7.0338232e-05  -4.4165918e-05   4.0872869e-04   2.5051890e-04   8.5152184e-05   3.0539811e-04   2.0686389e-04   1.5430062e-04   2.7517890e-04   9.3132352e-05  -2.2146256e-04  -1.3878966e-04   1.1045433e-04   1.9245798e-04   1.8185782e-04   7.3117655e-05   2.1441784e-04   3.9435527e-05   9.8643322e-05  -1.3439271e-04   2.9390791e-04  -5.9390240e-05   1.6442091e-04   2.5683340e-02   5.3535216e-04   4.1671982e-04   3.1369328e-04   5.8420311e-04   1.1819849e-03   2.0136917e-03  -1.5153187e-04   1.2381998e-04  -4.9455190e-05  -4.6996641e-04
  -3.6464986e-05   6.8931149e-05  -4.1131163e-05   3.2610202e-04   2.3332438e-04   8.8475994e-05   2.8475525e-04   1.8272942e-04   1.6491527e-04   2.8106754e-04   1.1179696e-04  -1.9027517e-04  -1.9739794e-04   9.0657850e-05   1.2192484e-04   1.5537225e-04   7.0925773e-05   1.9730763e-04   2.0797062e-05   6.9952970e-05  -1.3643052e-04   2.5098436e-04  -8.9897570e-05   1.7638814e-04   2.5067613e-02   5.6371914e-04   4.6768159e-04   2.9591421e-04   6.4473407e-04   9.8497875e-04   2.3295558e-03  -3.5564852e-04   7.6489334e-05  -4.3733577e-05  -4.6015385e-04
  -3.5126559e-05   8.2986575e-05  -4.2894437e-05   2.4454502e-04   2.2138990e-04   9.6527976e-05   2.6099183e-04   1.4799347e-04   1.7410851e-04   2.7817517e-04   1.1904661e-04  -1.9797609e-04  -2.6219685e-04   6.6684355e-05   4.2568056e-05   1.1194993e-04   6.2883315e-05   1.7862387e-04   2.8268762e-06   2.2570619e-05  -1.4387436e-04   1.9448460e-04  -1.3539950e-04   1.8304850e-04   2.3659311e-02   5.6288444e-04   5.0060765e-04   2.6559268e-04   6.7722407e-04   8.4926392e-04   2.7892769e-03  -5.3496863e-04   8.3981504e-06  -6.3955231e-05  -4.5073900e-04
  -3.1324351e-05   9.5921067e-05  -5.3563366e-05   1.7797889e-04   2.0958691e-04   1.0516524e-04   2.3545802e-04   1.0539247e-04   1.7138850e-04   2.5878617e-04   9.4629177e-05  -2.5789824e-04  -3.2716445e-04   3.7694794e-05  -4.0464052e-05   6.2253355e-05   4.2463598e-05   1.5715962e-04  -1.8928609e-05  -4.0520630e-05  -1.6001682e-04   1.3295381e-04  -1.9428672e-04   1.4770278e-04   2.1754054e-02   5.1203091e-04   4.8059106e-04   2.1177030e-04   6.5113499e-04   8.2563295e-04   3.2753684e-03  -6.1669876e-04  -7.9614547e-05  -1.0687170e-04  -4.6211641e-04
  -3.9284791e-05   9.6204938e-05  -8.1400278e-05   1.3371806e-04   1.9157903e-04   1.1038900e-04   2.0793543e-04   6.4996006e-05   1.5423192e-04   2.2631091e-04   3.5408095e-05  -3.5194121e-04  -3.8483797e-04   5.6718991e-06  -1.2204453e-04   2.2175122e-05   8.5310985e-06   1.3123361e-04  -4.8804446e-05  -1.0998169e-04  -1.8353136e-04   7.3933785e-05  -2.5926702e-04   5.6981364e-05   1.9471521e-02   4.1910709e-04   3.9974015e-04   1.3283292e-04   5.6271895e-04   9.2365051e-04   3.6411416e-03  -5.8302161e-04  -1.8094182e-04  -1.6343310e-04  -5.0902861e-04
  -6.6461187e-05   8.1987419e-05  -1.3339974e-04   1.1074626e-04   1.6396510e-04   1.0918515e-04   1.7836412e-04   3.8465056e-05   1.2918602e-04   1.9190188e-04  -4.3135769e-05  -4.3971874e-04  -4.2685878e-04  -2.4581690e-05  -1.9638908e-04   4.2872230e-06  -3.3943106e-05   1.0059367e-04  -8.7589498e-05  -1.7437403e-04  -2.0857852e-04   2.1739488e-05  -3.2004275e-04  -7.4392461e-05   1.6869884e-02   3.1190243e-04   2.7810602e-04   3.5810317e-05   4.3432740e-04   1.1106466e-03   3.7731738e-03  -4.6753310e-04  -2.8400734e-04  -2.1919575e-04  -5.9152651e-04
  -1.1056830e-04   5.9753453e-05  -2.0981758e-04   1.0120066e-04   1.2827362e-04   9.9697885e-05   1.4798511e-04   3.1640466e-05   1.0775853e-04   1.6632957e-04  -1.1550376e-04  -4.7992531e-04  -4.4685730e-04  -4.7617785e-05  -2.5872918e-04   1.0673377e-05  -7.6051954e-05   6.7201654e-05  -1.3112901e-04  -2.2439149e-04  -2.2758619e-04  -2.3633527e-05  -3.6897385e-04  -2.1356567e-04   1.4142509e-02   2.1781065e-04   1.5003938e-04  -6.7419103e-05   3.0017260e-04   1.3291053e-03   3.6535019e-03  -3.2764481e-04  -3.7492384e-04  -2.5644019e-04  -6.9168553e-04
  -1.6226064e-04   3.8465332e-05  -3.0211388e-04   9.3745228e-05   8.9551395e-05   8.1155173e-05   1.1873436e-04   3.9588511e-05   9.9354758e-05   1.5198569e-04  -1.5978143e-04  -4.5168973e-04  -4.4563552e-04  -6.1058119e-05  -3.0980038e-04   3.0794279e-05  -1.0880102e-04   3.3865279e-05  -1.7228142e-04  -2.5488515e-04  -2.3559663e-04  -6.6387023e-05  -4.0691835e-04  -3.2717054e-04   1.1767312e-02   1.4503131e-04   4.4653614e-05  -1.6460214e-04   1.8746773e-04   1.5258042e-03   3.3832160e-03  -2.0633462e-04  -4.4129306e-04  -2.5939484e-04  -7.7870314e-04
  -2.1147118e-04   2.2990991e-05  -3.9574626e-04   7.6966950e-05   5.2596355e-05   5.4137952e-05   9.1129514e-05   4.7148285e-05   1.0532606e-04   1.4001063e-04  -1.6886892e-04  -3.6511989e-04  -4.3636275e-04  -6.8842419e-05  -3.6071261e-04   4.5835255e-05  -1.2672586e-04   1.1842289e-06  -2.0542693e-04  -2.6419078e-04  -2.3401114e-04  -1.1349791e-04  -4.4556984e-04  -3.9646015e-04   1.0275838e-02   7.5803247e-05  -2.8975581e-05  -2.4640362e-04   1.0341912e-04   1.6788496e-03   3.1325882e-03  -1.0368451e-04  -4.7573593e-04  -2.2131304e-04  -8.2060177e-04
  -2.5342536e-04   1.0770509e-05  -4.7621800e-04   4.1604650e-05   1.8343169e-05   2.1313777e-05   6.2243082e-05   3.5498746e-05   1.1751835e-04   1.1454054e-04  -1.5377703e-04  -2.5614878e-04  -4.4554079e-04  -8.1672253e-05  -4.3383989e-04   3.7994421e-05  -1.2968085e-04  -3.5103280e-05  -2.3095361e-04  -2.5199514e-04  -2.3149345e-04  -1.7194156e-04  -5.0369208e-04  -4.2325445e-04   9.6806474e-03  -2.4650080e-05  -8.5028296e-05  -3.0791984e-04   3.4033557e-05   1.8065704e-03   3.0400087e-03   2.3967272e-05  -4.7772075e-04  -1.4954044e-04  -7.9693971e-04
  -2.9084273e-04  -6.6136586e-06  -5.3496409e-04  -1.8429469e-05  -1.7019718e-05  -1.1901533e-05   2.5745847e-05  -8.0900427e-06   1.2238784e-04   6.2208455e-05  -1.3755921e-04  -1.6766724e-04  -5.0594966e-04  -1.1330441e-04  -5.5605354e-04   3.3716591e-07  -1.2215445e-04  -8.4075509e-05  -2.5681028e-04  -2.1781084e-04  -2.4094802e-04  -2.4486316e-04  -5.9735181e-04  -4.2565016e-04   9.4974143e-03  -1.8766191e-04  -1.5176045e-04  -3.4888479e-04  -4.5202520e-05   1.9520529e-03   3.1367599e-03   2.3697130e-04  -4.5235685e-04  -6.4903870e-05  -7.0633134e-04
  -3.3125441e-04  -3.8087390e-05  -5.7182298e-04  -1.0522372e-04  -5.9372578e-05  -3.7657919e-05  -2.5094241e-05  -8.2614963e-05   1.0891326e-04  -1.8541728e-05  -1.4290138e-04  -1.2609208e-04  -6.4110680e-04  -1.7347014e-04  -7.4462756e-04  -5.8405662e-05  -1.1062107e-04  -1.5577710e-04  -2.9535693e-04  -1.6166532e-04  -2.7330726e-04  -3.2775311e-04  -7.2799902e-04  -4.2728393e-04   9.3128458e-03  -4.2018166e-04  -2.5460761e-04  -3.7302243e-04  -1.5244199e-04   2.1529705e-03   3.3423819e-03   5.7471212e-04  -4.0553074e-04   5.8540136e-06  -5.6517549e-04
  -3.8126571e-04  -8.7332919e-05  -5.9288647e-04  -2.1533572e-04  -1.1182305e-04  -4.7633064e-05  -9.2402945e-05  -1.7268778e-04   7.5999371e-05  -1.1424324e-04  -1.7984865e-04  -1.2663208e-04  -8.4680214e-04  -2.6064727e-04  -9.9171756e-04  -1.1734245e-04  -1.0035322e-04  -2.5467173e-04  -3.5627067e-04  -8.7155735e-05  -3.3081614e-04  -4.0628665e-04  -8.7471434e-04  -4.4638707e-04   9.0102572e-03  -6.9596741e-04  -4.0018509e-04  -3.8659995e-04  -2.8523506e-04   2.4140840e-03   3.5088304e-03   1.0274728e-03  -3.3669121e-04   4.3050721e-05  -3.9781191e-04
  -4.4141087e-04  -1.5024171e-04  -6.0503255e-04  -3.3773386e-04  -1.7076627e-04  -3.6355912e-05  -1.6943509e-04  -2.5584779e-04   3.5148096e-05  -2.0202722e-04  -2.4061145e-04  -1.3673659e-04  -1.0797490e-03  -3.5882642e-04  -1.2565859e-03  -1.5371280e-04  -9.3377472e-05  -3.7379327e-04  -4.3889123e-04  -5.2393902e-06  -4.0347385e-04  -4.5746210e-04  -9.9575520e-04  -4.9047137e-04   8.6810449e-03  -9.6414227e-04  -5.6945195e-04  -3.9582609e-04  -4.1680704e-04   2.6963651e-03   3.4876727e-03   1.5304000e-03  -2.3281704e-04   4.7800822e-05  -2.2228660e-04
  -5.0495460e-04  -2.1726808e-04  -6.1026018e-04  -4.5267143e-04  -2.2560757e-04  -4.7208823e-06  -2.4000059e-04  -3.1404992e-04   6.3715202e-06  -2.6151602e-04  -3.0459944e-04  -1.1622372e-04  -1.2615636e-03  -4.4083557e-04  -1.4716967e-03  -1.5478363e-04  -8.8610876e-05  -4.9333595e-04  -5.2837608e-04   6.3889296e-05  -4.7091063e-04  -4.5458108e-04  -1.0397205e-03  -5.5850076e-04   8.5221110e-03  -1.1689147e-03  -7.2336034e-04  -4.0303083e-04  -5.0478580e-04   2.9286738e-03   3.2155083e-03   1.9847003e-03  -6.7974048e-05   4.9103379e-05  -3.8696751e-05
  -5.6157820e-04  -2.7938330e-04  -6.0315145e-04  -5.3342234e-04  -2.6301367e-04   3.8070491e-05  -2.8288484e-04  -3.4331155e-04   9.0315425e-06  -2.8680213e-04  -3.5086382e-04  -4.2910797e-05  -1.2981097e-03  -4.7728617e-04  -1.5613035e-03  -1.2567110e-04  -8.4035266e-05  -5.8548793e-04  -5.9850939e-04   9.3273164e-05  -5.0944183e-04  -3.7511031e-04  -9.6192356e-04  -6.4754958e-04   8.7896343e-03  -1.2687990e-03  -8.1735005e-04  -4.0274436e-04  -5.0731777e-04   3.0383694e-03   2.7775413e-03   2.3007409e-03   1.8935264e-04   9.7957403e-05   1.7314518e-04
  -6.0385466e-04  -3.3409402e-04  -5.7308399e-04  -5.5166864e-04  -2.7387345e-04   7.5619391e-05  -2.7982387e-04  -3.5657632e-04   5.1981140e-05  -2.9209448e-04  -3.7099671e-04   6.9708221e-05  -1.1066546e-03  -4.4741918e-04  -1.4651045e-03  -8.9345747e-05  -7.9575439e-05  -6.2405656e-04  -6.2059890e-04   5.6480971e-05  -5.0134567e-04  -2.0931599e-04  -7.4012787e-04  -7.5815694e-04   9.7888121e-03  -1.2466917e-03  -8.1742409e-04  -3.7973348e-04  -3.9875967e-04   2.9856698e-03   2.3658120e-03   2.4408654e-03   5.6245527e-04   2.4859796e-04   4.4420676e-04
  -6.3265429e-04  -3.8793645e-04  -5.1011506e-04  -4.8553033e-04  -2.5944613e-04   8.8980152e-05  -2.2375403e-04  -3.7775561e-04   1.2754349e-04  -3.0740086e-04  -3.7558324e-04   1.7264026e-04  -6.4191921e-04  -3.4751827e-04  -1.1589526e-03  -7.7827972e-05  -7.8944679e-05  -5.9492222e-04  -5.7481916e-04  -6.2618630e-05  -4.4267133e-04   3.2997257e-05  -3.8526070e-04  -8.9407054e-04   1.1889742e-02  -1.1085802e-03  -7.1135582e-04  -3.1110609e-04  -1.7884634e-04   2.7802794e-03   2.1482420e-03   2.4309629e-03   1.0502560e-03   5.3455390e-04   7.9845393e-04
  -6.5801729e-04  -4.5360040e-04  -4.1123456e-04  -3.2756018e-04  -2.3325629e-04   6.3592626e-05  -1.2363838e-04  -4.2887585e-04   2.1238484e-04  -3.6482417e-04  -3.9054448e-04   2.0234550e-04   8.4776373e-05  -1.9367159e-04  -6.6713162e-04  -1.1730276e-04  -8.9141213e-05  -5.0297764e-04  -4.5943022e-04  -2.6210659e-04  -3.4639018e-04   3.2026967e-04   5.5808800e-05  -1.0561879e-03   1.5615916e-02  -8.7352749e-04  -5.1173841e-04  -1.7306342e-04   1.2719914e-04   2.4693089e-03   2.2004249e-03   2.3302359e-03   1.6141700e-03   9.4935956e-04   1.2344104e-03
  -6.9448852e-04  -5.4276071e-04  -2.8349104e-04  -8.9505011e-05  -2.1699801e-04  -4.3721093e-06  -3.3419005e-06  -5.1630504e-04   2.7555367e-04  -4.8124848e-04  -4.4433403e-04   1.1464554e-04   9.9746790e-04  -1.7440538e-05  -6.2284314e-05  -2.1399798e-04  -1.1749213e-04  -3.7234035e-04  -2.9412360e-04  -5.2039564e-04  -2.3926244e-04   6.0368853e-04   5.0789490e-04  -1.2346548e-03   2.2036990e-02  -5.6050922e-04  -2.5071920e-04   4.9244489e-05   4.7713573e-04   2.1070824e-03   2.5418100e-03   2.1823833e-03   2.1744592e-03   1.4391699e-03   1.7139866e-03
  -7.5288280e-04  -6.5809768e-04  -1.4205238e-04   1.9883078e-04  -2.3157822e-04  -1.0543949e-04   1.0593810e-04  -6.2393962e-04   2.9078920e-04  -6.4653304e-04  -5.5186660e-04  -8.7507673e-05   1.9644450e-03   1.4480016e-04   5.5052887e-04  -3.4880830e-04  -1.6744666e-04  -2.3895688e-04  -1.1559125e-04  -8.0178067e-04  -1.5287039e-04   8.2907552e-04   8.8664278e-04  -1.4049229e-03   3.5031393e-02  -1.7914457e-04   3.1107313e-05   3.5207238e-04   8.2538812e-04   1.7286765e-03   3.1763858e-03   1.9831655e-03   2.6232232e-03   1.9117324e-03   2.1649010e-03
  -8.3283911e-04  -7.8898360e-04  -3.9201514e-06   4.9755006e-04  -2.8721456e-04  -2.1962648e-04   1.7727730e-04  -7.1779388e-04   2.4774132e-04  -8.2436076e-04  -7.0380251e-04  -3.5099161e-04   2.8304730e-03   2.6521905e-04   1.0656484e-03  -4.8410878e-04  -2.3532465e-04  -1.3764910e-04   3.3966884e-05  -1.0664836e-03  -1.1205391e-04   9.5353177e-04   1.1251916e-03  -1.5315807e-03   6.8680890e-02   2.7007557e-04   2.9724423e-04   7.0770085e-04   1.1364135e-03   1.3424966e-03   4.0935343e-03   1.6849861e-03   2.8570064e-03   2.2633618e-03   2.4996549e-03
  -9.2056236e-04  -9.1357494e-04   1.1947279e-04   7.6946488e-04  -3.7760570e-04  -3.2333980e-04   1.9868437e-04  -7.5980183e-04   1.5659936e-04  -9.6570572e-04  -8.6758338e-04  -5.9602503e-04   3.4691077e-03   3.3454387e-04   1.4147192e-03  -5.7867961e-04  -3.0990978e-04  -8.8719949e-05   1.2154473e-04  -1.2808252e-03  -1.2592429e-04   9.6027111e-04   1.1969648e-03  -1.5791766e-03   1.0632630e-02   7.8507955e-04   5.2441261e-04   1.0670765e-03   1.3918059e-03   9.4292662e-04   5.2533327e-03   1.2366858e-03   2.8191963e-03   2.4179553e-03   2.6470236e-03
  -9.9343166e-04  -1.0065943e-03   2.2673137e-04   9.9252420e-04  -4.8149587e-04  -3.9721312e-04   1.7730554e-04  -7.2387804e-04   4.3795135e-05  -1.0277963e-03  -9.9992589e-04  -7.5058162e-04   3.8314061e-03   3.6348670e-04   1.5908589e-03  -6.0299656e-04  -3.7539328e-04  -9.0605186e-05   1.3482357e-04  -1.4238561e-03  -1.8582301e-04   8.6403009e-04   1.1216563e-03  -1.5252730e-03   1.4443803e-02   1.3461241e-03   7.0494035e-04   1.3723547e-03   1.5885481e-03   5.3259224e-04   6.5797707e-03   6.3404790e-04   2.5281471e-03   2.3601986e-03   2.5820094e-03
  -1.0293629e-03  -1.0491638e-03   3.2531031e-04   1.1654254e-03  -5.7092600e-04  -4.3169732e-04   1.3480264e-04  -6.0747762e-04  -5.8906026e-05  -9.9003222e-04  -1.0642019e-03  -7.7776035e-04   3.9574672e-03   3.7489040e-04   1.6430134e-03  -5.4881332e-04  -4.1644980e-04  -1.2250671e-04   8.4921645e-05  -1.4890203e-03  -2.7082066e-04   7.0389779e-04   9.5101114e-04  -1.3700116e-03   1.2813892e-02   1.9036288e-03   8.4256142e-04   1.5767597e-03   1.7309497e-03   1.3871366e-04   7.9688476e-03  -5.5405555e-05   2.0707427e-03   2.1418552e-03   2.3364951e-03
  -1.0163162e-03  -1.0361951e-03   4.2506339e-04   1.3027815e-03  -6.2215305e-04  -4.2859360e-04   9.6422176e-05  -4.3459333e-04  -1.2645991e-04  -8.6113648e-04  -1.0447344e-03  -6.8693032e-04   3.9400090e-03   3.9115106e-04   1.6438444e-03  -4.3074976e-04  -4.2335253e-04  -1.5548628e-04  -6.5724720e-07  -1.4815897e-03  -3.5725295e-04   5.2754750e-04   7.4430794e-04  -1.1383069e-03   1.1552736e-02   2.3804707e-03   9.4480865e-04   1.6632369e-03   1.8222065e-03  -1.8783318e-04   9.3001025e-03  -7.1201526e-04   1.5655137e-03   1.8558250e-03   1.9837043e-03
  -9.5753022e-04  -9.7822724e-04   5.2986591e-04   1.4221007e-03  -6.2434765e-04  -3.9849323e-04   7.9530684e-05  -2.4871228e-04  -1.4873741e-04  -6.7577214e-04  -9.5255947e-04  -5.2746187e-04   3.8653531e-03   4.2345951e-04   1.6514255e-03  -2.8019297e-04  -3.9515077e-04  -1.6604473e-04  -9.0553644e-05  -1.4140769e-03  -4.2749150e-04   3.7486263e-04   5.4752134e-04  -8.7336876e-04   1.0826597e-02   2.6950920e-03   1.0166874e-03   1.6509247e-03   1.8610235e-03  -3.9077512e-04   1.0429427e-02  -1.2117907e-03   1.1192189e-03   1.5944631e-03   1.6073566e-03
  -8.7011786e-04  -8.9692755e-04   6.3186802e-04   1.5296005e-03  -5.8276369e-04  -3.5547349e-04   8.6921413e-05  -9.6977550e-05  -1.3216719e-04  -4.8174092e-04  -8.2089385e-04  -3.6792379e-04   3.7686452e-03   4.6755985e-04   1.6847976e-03  -1.3357578e-04  -3.3981906e-04  -1.4561879e-04  -1.6123145e-04  -1.3020786e-03  -4.7450152e-04   2.6735535e-04   3.8411890e-04  -6.2326295e-04   1.0620830e-02   2.7992998e-03   1.0588795e-03   1.5844860e-03   1.8449067e-03  -4.3401614e-04   1.1190875e-02  -1.4721248e-03   7.9744920e-04   1.4147428e-03   1.2733715e-03
  -7.7758939e-04  -8.1603654e-04   7.1174762e-04   1.6125984e-03  -5.1558716e-04  -3.1141069e-04   1.0748774e-04  -1.1221727e-05  -9.5050913e-05  -3.2219943e-04  -6.9185352e-04  -2.6779028e-04   3.6239494e-03   5.0721422e-04   1.7220192e-03  -1.9246125e-05  -2.7136295e-04  -1.0219397e-04  -2.0304558e-04  -1.1621399e-03  -5.0125795e-04   2.0579298e-04   2.5730790e-04  -4.2536095e-04   1.0952281e-02   2.7083335e-03   1.0706240e-03   1.5121514e-03   1.7772589e-03  -3.2258709e-04   1.1468631e-02  -1.4787019e-03   6.1512121e-04   1.3230239e-03   1.0152782e-03
  -6.9965824e-04  -7.5167365e-04   7.4559782e-04   1.6430398e-03  -4.4604880e-04  -2.7235938e-04   1.2341903e-04   4.7705662e-06  -5.9049511e-05  -2.2027703e-04  -5.9942302e-04  -2.5349416e-04   3.3697493e-03   5.2318041e-04   1.7184749e-03   5.1375697e-05  -2.0494226e-04  -5.4097847e-05  -2.1945214e-04  -1.0115148e-03  -5.1627459e-04   1.7506620e-04   1.5896583e-04  -2.9565624e-04   1.1860973e-02   2.4993657e-03   1.0541652e-03   1.4644505e-03   1.6725267e-03  -1.0993613e-04   1.1273543e-02  -1.2910865e-03   5.4350740e-04   1.2810472e-03   8.3433982e-04
  -6.4421777e-04  -7.0660608e-04   7.1560533e-04   1.5913023e-03  -3.9309729e-04  -2.3838961e-04   1.2023064e-04  -2.5896097e-05  -4.0443716e-05  -1.7358077e-04  -5.5633805e-04  -3.1086165e-04   2.9552453e-03   5.0312036e-04   1.6352597e-03   8.4088613e-05  -1.5191863e-04  -1.9367655e-05  -2.2113556e-04  -8.6835091e-04  -5.2784121e-04   1.5342273e-04   7.9481419e-05  -2.2826539e-04   1.3335317e-02   2.2771040e-03   1.0168810e-03   1.4434216e-03   1.5547569e-03   1.1445425e-04   1.0726209e-02  -1.0259227e-03   5.2854704e-04   1.2287344e-03   7.0984295e-04
  -6.0565781e-04  -6.7132717e-04   6.1917311e-04   1.4436219e-03  -3.6466686e-04  -2.0647983e-04   9.4554787e-05  -6.7456691e-05  -4.4890148e-05  -1.6106965e-04  -5.5153604e-04  -3.9724173e-04   2.3814340e-03   4.4740055e-04   1.4628754e-03   9.4299474e-05  -1.1683580e-04  -6.0715656e-06  -2.1859551e-04  -7.5044989e-04  -5.3979194e-04   1.2240125e-04   1.3860370e-05  -2.0476599e-04   1.5225608e-02   2.1283813e-03   9.6913130e-04   1.4258241e-03   1.4492167e-03   2.5854874e-04   9.9941045e-03  -8.1458094e-04   5.1482103e-04   1.1151193e-03   6.1364804e-04
  -5.7023537e-04  -6.3127605e-04   4.7156180e-04   1.2133531e-03  -3.5629486e-04  -1.7448289e-04   5.5679953e-05  -9.0187292e-05  -6.7443900e-05  -1.5756280e-04  -5.5918231e-04  -4.6504475e-04   1.7117925e-03   3.6804919e-04   1.2273177e-03   9.6680633e-05  -9.7415206e-05  -8.5353677e-06  -2.1687165e-04  -6.7172345e-04  -5.5062491e-04   7.3766241e-05  -3.7706981e-05  -2.0708656e-04   1.7245689e-02   2.0882629e-03   9.1897312e-04   1.3782008e-03   1.3713386e-03   2.7167640e-04   9.2531312e-03  -7.4347900e-04   4.6741593e-04   9.2416524e-04   5.2349962e-04
  -5.2540289e-04  -5.7632168e-04   3.0060840e-04   9.3905872e-04  -3.5522200e-04  -1.4380204e-04   2.0240812e-05  -8.3955892e-05  -9.7148673e-05  -1.4751648e-04  -5.5383216e-04  -4.8329955e-04   1.0475978e-03   2.8212008e-04   9.7634777e-04   9.7998811e-05  -8.7169719e-05  -1.1241365e-05  -2.1458745e-04  -6.3728506e-04  -5.5584597e-04   1.1202026e-05  -7.3525473e-05  -2.2649833e-04   1.9039121e-02   2.1274511e-03   8.6695643e-04   1.2768690e-03   1.3188659e-03   1.7420859e-04   8.6658821e-03  -8.0817658e-04   3.8310900e-04   6.8284216e-04   4.3093413e-04
  -4.6794733e-04  -5.0767628e-04   1.3651552e-04   6.7026971e-04  -3.4744744e-04  -1.1931146e-04   3.2658343e-06  -6.1272745e-05  -1.2329672e-04  -1.3136285e-04  -5.2364549e-04  -4.4746484e-04   4.8632734e-04   2.0361546e-04   7.5571547e-04   9.6200856e-05  -7.9056248e-05   2.0546859e-06  -2.0696899e-04  -6.3971139e-04  -5.5178988e-04  -5.3150543e-05  -9.4909243e-05  -2.6451310e-04   1.9910414e-02   2.1632719e-03   8.0449285e-04   1.1229344e-03   1.2716698e-03   5.1338044e-05   8.3445199e-03  -9.1524806e-04   2.8645311e-04   4.4795318e-04   3.4190741e-04
  -4.0677513e-04  -4.3883143e-04   1.7796395e-06   4.4878194e-04  -3.2415276e-04  -1.0666935e-04   1.0351386e-05  -4.9561811e-05  -1.4025604e-04  -1.2247833e-04  -4.7557085e-04  -3.7520594e-04   8.7028617e-05   1.3819023e-04   5.8905908e-04   8.4997839e-05  -6.8402005e-05   3.9052426e-05  -1.9047868e-04  -6.5940327e-04  -5.3852843e-04  -1.0497475e-04  -1.0827733e-04  -3.2652245e-04   1.2604606e-02   2.0943577e-03   7.1753474e-04   9.4396475e-04   1.2003703e-03   1.4156142e-05   8.3072102e-03  -9.3141384e-04   2.1430031e-04   2.8020437e-04   2.7123743e-04
  -3.5895302e-04  -3.8989805e-04  -9.4520474e-05   2.9450294e-04  -2.8489425e-04  -1.0862195e-04   3.4766599e-05  -7.6265525e-05  -1.4896900e-04  -1.3739937e-04  -4.3080602e-04  -2.9267705e-04  -1.4466327e-04   8.2778664e-05   4.7057468e-04   6.0459330e-05  -5.4055679e-05   9.4197669e-05  -1.6616384e-04  -6.7020487e-04  -5.2039645e-04  -1.3393175e-04  -1.2342361e-04  -4.1264441e-04   4.1516248e-02   1.8504288e-03   5.9464341e-04   7.8146573e-04   1.0807937e-03   1.5157966e-04   8.4709041e-03  -7.4613083e-04   1.9725086e-04   2.1873160e-04   2.3426260e-04
  -3.4100100e-04  -3.7788897e-04  -1.5659499e-04   2.0135095e-04  -2.3677897e-04  -1.2250742e-04   6.0629041e-05  -1.5383316e-04  -1.5515329e-04  -1.8490716e-04  -4.1307349e-04  -2.1981289e-04  -2.5079123e-04   2.9562578e-05   3.7207754e-04   2.5463371e-05  -3.7698253e-05   1.5065502e-04  -1.3985479e-04  -6.4870180e-04  -5.0402537e-04  -1.3737248e-04  -1.4905706e-04  -5.1143952e-04   8.2404993e-02   1.4324281e-03   4.3547087e-04   6.7130581e-04   9.0738910e-04   4.9341994e-04   8.6919451e-03  -3.1868982e-04   2.4596197e-04   2.6574064e-04   2.3936201e-04
  -3.5993580e-04  -4.0771495e-04  -1.9706857e-04   1.4381374e-04  -1.9073510e-04  -1.4055218e-04   7.0524169e-05  -2.7228144e-04  -1.6571049e-04  -2.5980745e-04  -4.3557992e-04  -1.6259229e-04  -2.9926316e-04  -2.8226486e-05   2.6004555e-04  -1.0609612e-05  -2.2141774e-05   1.8800375e-04  -1.1932391e-04  -5.8350002e-04  -4.9513089e-04  -1.2082762e-04  -1.8830750e-04  -6.0044928e-04   4.4206258e-02   9.1615086e-04   2.5473724e-04   6.2718819e-04   6.9820753e-04   9.9176308e-04   8.8220621e-03   2.9771143e-04   3.4624588e-04   3.8483588e-04   2.8353857e-04
  -4.0893297e-04  -4.6868241e-04  -2.3012608e-04   9.0776703e-05  -1.5685953e-04  -1.5300517e-04   5.3759690e-05  -4.0313351e-04  -1.8541671e-04  -3.4447157e-04  -4.9345475e-04  -1.1507879e-04  -3.5410258e-04  -9.1866379e-05   1.1402616e-04  -3.6397196e-05  -9.7158418e-06   1.9192004e-04  -1.1014548e-04  -4.8058236e-04  -4.9581128e-04  -9.5687225e-05  -2.3697302e-04  -6.5361836e-04   3.3749837e-02   4.1768941e-04   7.8831559e-05   6.3423062e-04   4.8837374e-04   1.5238627e-03   8.7570101e-03   9.5647707e-04   4.6339168e-04   5.1253347e-04   3.5151103e-04
  -4.6989540e-04  -5.3848943e-04  -2.6585319e-04   2.0321195e-05  -1.4095211e-04  -1.5254578e-04   1.1104717e-05  -5.1177072e-04  -2.1541656e-04  -4.1669753e-04  -5.6562235e-04  -6.8016307e-05  -4.4985773e-04  -1.5622356e-04  -6.2812825e-05  -4.4367276e-05  -1.5460874e-06   1.6103061e-04  -1.1272345e-04  -3.6219615e-04  -5.0375325e-04  -7.5211603e-05  -2.8552717e-04  -6.5190211e-04   2.8229710e-02   4.6140365e-05  -6.3829888e-05   6.5488333e-04   3.1548497e-04   1.9240440e-03   8.4770815e-03   1.4536323e-03   5.5365433e-04   5.7964429e-04   4.1795278e-04
  -5.2147405e-04  -5.9259211e-04  -3.0796963e-04  -7.1467628e-05  -1.4339123e-04  -1.3788458e-04  -4.6254791e-05  -5.7118252e-04  -2.5391398e-04  -4.5917535e-04  -6.2475196e-04  -1.7788812e-05  -5.8220257e-04  -2.1245275e-04  -2.4602411e-04  -3.4551074e-05   2.1797932e-06   1.0747056e-04  -1.2212450e-04  -2.5916318e-04  -5.1354471e-04  -7.0292284e-05  -3.2369851e-04  -5.9181324e-04   2.4622325e-02  -1.3150454e-04  -1.5429799e-04   6.4471411e-04   2.0438459e-04   2.0468817e-03   8.0600474e-03   1.6074954e-03   5.7887851e-04   5.3571991e-04   4.5275962e-04
  -5.4817484e-04  -6.1433850e-04  -3.5517960e-04  -1.7168182e-04  -1.6028965e-04  -1.1478835e-04  -1.0259017e-04  -5.7103508e-04  -2.9811650e-04  -4.6587188e-04  -6.4969563e-04   2.9433379e-05  -7.1859610e-04  -2.5246621e-04  -4.0270030e-04  -1.4292577e-05   1.4982543e-06   5.1136962e-05  -1.3072244e-04  -1.9910267e-04  -5.1920605e-04  -8.6330081e-05  -3.4502280e-04  -4.8809688e-04   2.1720504e-02  -1.0557890e-04  -1.9134179e-04   5.7164143e-04   1.5772639e-04   1.8367853e-03   7.6244273e-03   1.3509336e-03   5.1879842e-04   3.6685422e-04   4.2899849e-04
  -5.4617354e-04  -6.0122425e-04  -4.0447921e-04  -2.6023737e-04  -1.8583566e-04  -9.4027433e-05  -1.4495368e-04  -5.1950983e-04  -3.4601917e-04  -4.4282488e-04  -6.3433533e-04   6.0211787e-05  -8.2120817e-04  -2.7267908e-04  -5.0706480e-04   5.7156240e-06  -3.7886098e-06   1.0857564e-05  -1.3209811e-04  -1.9545056e-04  -5.1656534e-04  -1.2208126e-04  -3.4910726e-04  -3.6927953e-04   1.9009225e-02   7.7858567e-05  -1.9278421e-04   4.2967263e-04   1.5575993e-04   1.3555335e-03   7.2266683e-03   7.6624705e-04   3.7635004e-04   9.8549266e-05   3.3175020e-04
  -5.2339217e-04  -5.6481978e-04  -4.5402965e-04  -3.2201942e-04  -2.1450417e-04  -8.6958382e-05  -1.6820691e-04  -4.3839266e-04  -3.9687427e-04  -4.0384658e-04  -5.8919971e-04   6.1335799e-05  -8.6856767e-04  -2.7528405e-04  -5.5112632e-04   1.6899612e-05  -1.3916822e-05  -3.0456092e-06  -1.2409721e-04  -2.4245169e-04  -5.0442334e-04  -1.7074923e-04  -3.4077285e-04  -2.6769991e-04   1.6358180e-02   3.3263612e-04  -1.8882328e-04   2.4042095e-04   1.6513176e-04   7.4532715e-04   6.8268315e-03   3.1240077e-05   1.7449928e-04  -2.1726945e-04   1.6452541e-04
  -4.9430830e-04  -5.2463397e-04  -5.0388480e-04  -3.5496475e-04  -2.4228632e-04  -1.0062139e-04  -1.7575179e-04  -3.5384047e-04  -4.5019845e-04  -3.6358339e-04  -5.3559674e-04   2.7838920e-05  -8.6572737e-04  -2.6676079e-04  -5.4637273e-04   1.6840808e-05  -2.8430080e-05   8.2133338e-06  -1.0953452e-04  -3.1847655e-04  -4.8425636e-04  -2.2276571e-04  -3.2694609e-04  -2.0796956e-04   1.3836637e-02   5.6086533e-04  -2.0947967e-04   4.2250518e-05   1.5337860e-04   1.5952966e-04   6.3527846e-03  -6.7208026e-04  -5.2999065e-05  -5.2362704e-04  -4.9940059e-05
  -4.7218939e-04  -4.9868104e-04  -5.5455079e-04  -3.7043091e-04  -2.6681492e-04  -1.3452154e-04  -1.7612732e-04  -2.8655241e-04  -5.0412875e-04  -3.3144423e-04  -4.9514533e-04  -3.3291166e-05  -8.3993393e-04  -2.5468355e-04  -5.1706843e-04   9.7419979e-06  -4.5468161e-05   3.4055891e-05  -9.4337767e-05  -3.9569603e-04  -4.5899156e-04  -2.6922330e-04  -3.1320855e-04  -1.9863213e-04   1.1619526e-02   6.8824622e-04  -2.7134249e-04  -1.2630261e-04   1.0280059e-04  -2.9215851e-04   5.7656034e-03  -1.2204562e-03  -2.7258732e-04  -7.7788258e-04  -2.7545012e-04
  -4.6270850e-04  -4.9520959e-04  -6.0476473e-04  -3.8641682e-04  -2.8678842e-04  -1.8053914e-04  -1.7766890e-04  -2.4535722e-04  -5.5429921e-04  -3.0904240e-04  -4.7964687e-04  -1.0569976e-04  -8.2557101e-04  -2.4456339e-04  -4.8892549e-04   3.3579424e-06  -6.1689541e-05   6.0328071e-05  -8.4212741e-05  -4.5100178e-04  -4.3166216e-04  -3.0471644e-04  -3.0191051e-04  -2.3061625e-04   9.9604093e-03   6.9115608e-04  -3.7004426e-04  -2.4059296e-04   1.7009104e-05  -5.6594633e-04   5.0746151e-03  -1.5668400e-03  -4.5966601e-04  -9.6236623e-04  -4.7280258e-04
  -4.6203064e-04  -5.0949107e-04  -6.5034197e-04  -4.1761535e-04  -3.0138018e-04  -2.2593145e-04  -1.8411670e-04  -2.2666293e-04  -5.9420319e-04  -2.9179701e-04  -4.8618778e-04  -1.7042407e-04  -8.4657152e-04  -2.3825065e-04  -4.7874515e-04   4.4196572e-06  -7.3032526e-05   7.5842952e-05  -8.1620448e-05  -4.7325116e-04  -4.0458509e-04  -3.2864601e-04  -2.9260517e-04  -2.8264915e-04   9.1375764e-03   5.9956120e-04  -4.8259003e-04  -2.9608255e-04  -8.3029670e-05  -6.8007316e-04   4.3287370e-03  -1.7282842e-03  -6.0298899e-04  -1.0847109e-03  -6.1128172e-04
  -4.6005048e-04  -5.2712375e-04  -6.8523071e-04  -4.6785918e-04  -3.0999567e-04  -2.5798549e-04  -1.9336210e-04  -2.1924770e-04  -6.1709608e-04  -2.7317123e-04  -4.9975654e-04  -2.1253420e-04  -9.0559095e-04  -2.3441996e-04  -4.8970879e-04   1.5234869e-05  -7.6105709e-05   7.6657838e-05  -8.4581028e-05  -4.6444993e-04  -3.7924538e-04  -3.4460123e-04  -2.8412999e-04  -3.3049670e-04   9.2590079e-03   4.7433254e-04  -5.7832577e-04  -3.0597206e-04  -1.7072402e-04  -6.9518178e-04   3.6095881e-03  -1.7611095e-03  -7.0430071e-04  -1.1696148e-03  -6.7742931e-04
  -4.4669298e-04  -5.3179159e-04  -7.0442224e-04  -5.2901538e-04  -3.1247918e-04  -2.6840882e-04  -1.9968051e-04  -2.1124464e-04  -6.1863055e-04  -2.4889089e-04  -5.0155766e-04  -2.2448390e-04  -9.8524138e-04  -2.3050238e-04  -5.1391451e-04   3.3095865e-05  -6.9521091e-05   6.6438923e-05  -8.7800872e-05  -4.3546985e-04  -3.5657600e-04  -3.5811181e-04  -2.7669375e-04  -3.5571659e-04   1.0045393e-02   3.7452515e-04  -6.3280744e-04  -2.9285267e-04  -2.2687107e-04  -6.8575871e-04   3.0213718e-03  -1.7328076e-03  -7.7409472e-04  -1.2456522e-03  -6.7821960e-04
  -4.1778837e-04  -5.1335950e-04  -7.0715998e-04  -5.8649434e-04  -3.0951964e-04  -2.5592445e-04  -1.9782822e-04  -1.9573253e-04  -5.9896021e-04  -2.1898000e-04  -4.7845542e-04  -2.0579340e-04  -1.0595258e-03  -2.2477855e-04  -5.3963810e-04   5.2456344e-05  -5.4552194e-05   5.3264372e-05  -8.5437088e-05  -3.9914189e-04  -3.3721121e-04  -3.7378565e-04  -2.7253511e-04  -3.5073317e-04   1.0928622e-02   3.3265338e-04  -6.3785806e-04  -2.7862951e-04  -2.4765768e-04  -7.0987979e-04   2.6587255e-03  -1.6976797e-03  -8.2531362e-04  -1.3318392e-03  -6.3757063e-04
  -3.7752546e-04  -4.7243980e-04  -6.9854001e-04  -6.2782096e-04  -3.0292530e-04  -2.2636220e-04  -1.8658469e-04  -1.7276776e-04  -5.6320830e-04  -1.8702289e-04  -4.2900231e-04  -1.6072193e-04  -1.1080216e-03  -2.1749662e-04  -5.5870286e-04   6.8320529e-05  -3.4747914e-05   4.5004963e-05  -7.4030038e-05  -3.6434192e-04  -3.2145123e-04  -3.9305977e-04  -2.7466344e-04  -3.1929844e-04   1.1394980e-02   3.4667685e-04  -6.0377375e-04  -2.7703773e-04  -2.4459753e-04  -7.8807911e-04   2.5552837e-03  -1.6828257e-03  -8.6733140e-04  -1.4292354e-03  -5.8713055e-04
  -3.3649715e-04  -4.1954435e-04  -6.8829820e-04  -6.4922316e-04  -2.9555487e-04  -1.9034471e-04  -1.6978871e-04  -1.4777129e-04  -5.1994098e-04  -1.5755279e-04  -3.6349983e-04  -9.5974137e-05  -1.1250658e-03  -2.1058555e-04  -5.7007984e-04   7.8765821e-05  -1.4672944e-05   4.5702749e-05  -5.4158332e-05  -3.3371456e-04  -3.0900663e-04  -4.1361255e-04  -2.8453686e-04  -2.7310092e-04   1.1194415e-02   3.8803235e-04  -5.5329216e-04  -2.9132841e-04  -2.3716557e-04  -9.0103137e-04   2.6561408e-03  -1.6879051e-03  -9.0254756e-04  -1.5211009e-03  -5.5444113e-04
  -3.0639800e-04  -3.6951419e-04  -6.8693125e-04  -6.5692730e-04  -2.9074418e-04  -1.5935922e-04  -1.5444687e-04  -1.2771093e-04  -4.7810373e-04  -1.3329950e-04  -2.9855740e-04  -1.9432011e-05  -1.1200218e-03  -2.0634357e-04  -5.7840772e-04   8.5255990e-05   1.7175777e-06   5.4509230e-05  -3.0099447e-05  -3.0544423e-04  -2.9887538e-04  -4.3060177e-04  -3.0010668e-04  -2.2631265e-04   1.0335565e-02   4.2005113e-04  -5.1039859e-04  -3.1680366e-04  -2.4193215e-04  -1.0062107e-03   2.8483702e-03  -1.6964655e-03  -9.2703174e-04  -1.5813911e-03  -5.5315829e-04
  -2.9417672e-04  -3.3412987e-04  -7.0082885e-04  -6.6283043e-04  -2.9137300e-04  -1.4162442e-04  -1.4705963e-04  -1.1721760e-04  -4.4373251e-04  -1.1372948e-04  -2.4883696e-04   6.0194710e-05  -1.1097202e-03  -2.0593006e-04  -5.8912288e-04   9.0853398e-05   1.2383319e-05   6.7228058e-05  -7.7411787e-06  -2.7721803e-04  -2.8956056e-04  -4.3899179e-04  -3.1553069e-04  -1.9003803e-04   9.0061249e-03   4.1800831e-04  -4.8920064e-04  -3.4562405e-04  -2.6387261e-04  -1.0630180e-03   3.0199976e-03  -1.6916037e-03  -9.3455979e-04  -1.5876138e-03  -5.7956885e-04
  -2.9857378e-04  -3.1664575e-04  -7.2874542e-04  -6.7732792e-04  -2.9885737e-04  -1.3928389e-04  -1.5022738e-04  -1.1637985e-04  -4.1781072e-04  -9.5452691e-05  -2.2008510e-04   1.3365000e-04  -1.1077727e-03  -2.0842848e-04  -6.0337217e-04   9.7768178e-05   1.7683056e-05   7.9300589e-05   8.2125634e-06  -2.4940495e-04  -2.7963697e-04  -4.3568129e-04  -3.2276855e-04  -1.6846668e-04   7.5186770e-03   3.8127063e-04  -4.8835704e-04  -3.7093853e-04  -2.9430256e-04  -1.0534757e-03   3.0980138e-03  -1.6674928e-03  -9.2176069e-04  -1.5323922e-03  -6.1686058e-04
  -3.1069954e-04  -3.1091168e-04  -7.6150172e-04  -7.0345681e-04  -3.1237068e-04  -1.4803054e-04  -1.6138455e-04  -1.2097297e-04  -3.9633116e-04  -7.3944284e-05  -2.0683797e-04   1.9233368e-04  -1.1167737e-03  -2.1086900e-04  -6.1576412e-04   1.0595869e-04   1.9965539e-05   8.8535991e-05   1.6420974e-05  -2.2540567e-04  -2.6827585e-04  -4.2035585e-04  -3.1427367e-04  -1.5777706e-04   6.2588472e-03   3.3169589e-04  -4.9365970e-04  -3.8863640e-04  -3.1627645e-04  -9.9025259e-04   3.0566165e-03  -1.6315194e-03  -8.9144259e-04  -1.4289476e-03  -6.4460485e-04
  -3.1817314e-04  -3.0534979e-04  -7.8523601e-04  -7.3561317e-04  -3.2866964e-04  -1.5918125e-04  -1.7426928e-04  -1.2460386e-04  -3.7244128e-04  -4.5477125e-05  -1.9565741e-04   2.3089552e-04  -1.1274124e-03  -2.0905741e-04  -6.1614357e-04   1.1365858e-04   2.2523009e-05   9.6220378e-05   1.9522544e-05  -2.0910388e-04  -2.5538073e-04  -3.9475082e-04  -2.8547828e-04  -1.4795877e-04   5.5308766e-03   3.0042889e-04  -4.8691474e-04  -3.9698486e-04  -3.1424794e-04  -9.1004587e-04   2.9139637e-03  -1.5974516e-03  -8.5240579e-04  -1.3080908e-03  -6.4849172e-04
  -3.1056174e-04  -2.8934143e-04  -7.8675966e-04  -7.6332787e-04  -3.4272030e-04  -1.6335020e-04  -1.8220383e-04  -1.2154736e-04  -3.3976947e-04  -8.4315379e-06  -1.7201909e-04   2.5033767e-04  -1.1244623e-03  -1.9881244e-04  -5.9431448e-04   1.1936031e-04   2.8410455e-05   1.0620899e-04   2.2946155e-05  -2.0127572e-04  -2.4122406e-04  -3.6101221e-04  -2.3605644e-04  -1.2682949e-04   5.3508980e-03   3.1126587e-04  -4.5596514e-04  -3.9544678e-04  -2.8263067e-04  -8.5527071e-04   2.7255809e-03  -1.5747419e-03  -8.1572245e-04  -1.2074354e-03  -6.2589627e-04
  -2.8358144e-04  -2.5866149e-04  -7.5877702e-04  -7.7758846e-04  -3.4905208e-04  -1.5427635e-04  -1.8135183e-04  -1.0899126e-04  -2.9540795e-04   3.6440542e-05  -1.2722661e-04   2.5932840e-04  -1.0958258e-03  -1.7719982e-04  -5.4517150e-04   1.2378313e-04   3.9506500e-05   1.2267618e-04   3.2527176e-05  -1.9762092e-04  -2.2581068e-04  -3.2032942e-04  -1.6978043e-04  -8.4903018e-05   5.4637734e-03   3.6904105e-04  -4.0074738e-04  -3.8408765e-04  -2.2918328e-04  -8.5203955e-04   2.5642542e-03  -1.5608730e-03  -7.8918069e-04  -1.1567223e-03  -5.8542361e-04
  -2.4033779e-04  -2.1729739e-04  -7.0284301e-04  -7.7594130e-04  -3.4353515e-04  -1.3142005e-04  -1.7236780e-04  -8.7898385e-05  -2.4141412e-04   8.6462460e-05  -6.2279687e-05   2.7165547e-04  -1.0396206e-03  -1.4347129e-04  -4.7174879e-04   1.3029436e-04   5.6043704e-05   1.4771275e-04   5.1935316e-05  -1.8990805e-04  -2.0847596e-04  -2.7287137e-04  -9.3383336e-05  -1.9576408e-05   5.5777673e-03   4.5751763e-04  -3.3289046e-04  -3.6403394e-04  -1.7171043e-04  -8.9565630e-04   2.4830925e-03  -1.5411410e-03  -7.7279774e-04  -1.1655198e-03  -5.4147508e-04
  -1.8946132e-04  -1.7506369e-04  -6.2906038e-04  -7.6352473e-04  -3.2496615e-04  -1.0030592e-04  -1.5973984e-04  -6.2371582e-05  -1.8428244e-04   1.3773456e-04   1.2695521e-05   3.0009661e-04  -9.6593867e-04  -9.9598976e-05  -3.8488343e-04   1.4328504e-04   7.6584111e-05   1.7997675e-04   8.0978709e-05  -1.6993647e-04  -1.8808768e-04  -2.1925863e-04  -1.5224452e-05   6.2862462e-05   5.5168224e-03   5.4676883e-04  -2.6972359e-04  -3.3833896e-04  -1.2982465e-04  -9.5218566e-04   2.4887717e-03  -1.4955093e-03  -7.5830909e-04  -1.2192454e-03  -5.0696381e-04
  -1.4126128e-04  -1.4250167e-04  -5.5270083e-04  -7.4981886e-04  -2.9578430e-04  -7.0367314e-05  -1.4936220e-04  -3.7921967e-05  -1.3276895e-04   1.8579367e-04   8.2820377e-05   3.4972490e-04  -8.9271698e-04  -5.0217790e-05  -2.9971969e-04   1.6538720e-04   9.8382516e-05   2.1492774e-04   1.1542405e-04  -1.3405495e-04  -1.6390427e-04  -1.6256716e-04   5.5837500e-05   1.4844438e-04   5.2192244e-03   6.0631539e-04  -2.2611675e-04  -3.1225794e-04  -1.1594162e-04  -9.7535236e-04   2.5509617e-03  -1.4086256e-03  -7.3366746e-04  -1.2857163e-03  -4.8782560e-04
  -1.0372044e-04  -1.2584208e-04  -4.8906880e-04  -7.4314536e-04  -2.6150054e-04  -5.1024061e-05  -1.4570307e-04  -1.9320105e-05  -9.4984520e-05   2.2620990e-04   1.3439200e-04   4.1442571e-04  -8.3807862e-04  -1.8539330e-06  -2.3061802e-04   1.9520204e-04   1.1800183e-04   2.4643660e-04   1.4840151e-04  -8.5692445e-05  -1.3663166e-04  -1.0945012e-04   1.1137066e-04   2.1997368e-04   4.6957657e-03   6.1783596e-04  -2.0866521e-04  -2.9213258e-04  -1.3021979e-04  -9.2943211e-04   2.6308773e-03  -1.2781551e-03  -6.9051498e-04  -1.3290308e-03  -4.8186418e-04
  -8.0005921e-05  -1.2465869e-04  -4.4854739e-04  -7.4637763e-04  -2.2895337e-04  -4.7625930e-05  -1.4998260e-04  -8.8258357e-06  -7.6063225e-05   2.5533093e-04   1.5964638e-04   4.7860717e-04  -8.1293355e-04   3.8635328e-05  -1.8654476e-04   2.2709437e-04   1.3212516e-04   2.6908680e-04   1.7284977e-04  -3.4267741e-05  -1.0897814e-04  -6.9122332e-05   1.4446210e-04   2.6344319e-04   4.0127430e-03   5.8130611e-04  -2.1510842e-04  -2.8326365e-04  -1.6209121e-04  -8.0710219e-04   2.6986818e-03  -1.1176900e-03  -6.3031667e-04  -1.3244086e-03  -4.8199348e-04
  -6.8254289e-05  -1.3323214e-04  -4.3371486e-04  -7.5628463e-04  -2.0392737e-04  -5.9075639e-05  -1.6017564e-04  -5.4128814e-06  -7.7177843e-05   2.7118373e-04   1.5837626e-04   5.2352302e-04  -8.1734901e-04   6.6125969e-05  -1.6876355e-04   2.5344643e-04   1.3840794e-04   2.8011852e-04   1.8410888e-04   9.0987314e-06  -8.5143132e-05  -5.0164377e-05   1.5121872e-04   2.7385427e-04   3.2851626e-03   5.1196059e-04  -2.3861470e-04  -2.8792600e-04  -1.9717841e-04  -6.3495053e-04   2.7382246e-03  -9.5270242e-04  -5.6545349e-04  -1.2676003e-03  -4.8152354e-04
  -6.3293548e-05  -1.4451334e-04  -4.3946877e-04  -7.6676888e-04  -1.8913897e-04  -7.8356010e-05  -1.7252722e-04  -5.2481637e-06  -9.6103278e-05   2.7425171e-04   1.3623456e-04   5.3558528e-04  -8.4205379e-04   7.9096950e-05  -1.7152881e-04   2.6834005e-04   1.3615475e-04   2.8027984e-04   1.8163073e-04   3.6879377e-05  -6.9258000e-05  -5.6541077e-05   1.3228410e-04   2.5768450e-04   2.6375437e-03   4.3088687e-04  -2.7343680e-04  -3.0473241e-04  -2.2552167e-04  -4.6410458e-04   2.7527681e-03  -8.1082166e-04  -5.1466847e-04  -1.1755527e-03  -4.7838304e-04
  -5.9224436e-05  -1.5420596e-04  -4.5587937e-04  -7.7373296e-04  -1.8350942e-04  -9.5789263e-05  -1.8358410e-04  -3.2902749e-06  -1.2871924e-04   2.6760669e-04   1.0122189e-04   5.1280134e-04  -8.7371032e-04   8.0375466e-05  -1.8515432e-04   2.7063620e-04   1.2656771e-04   2.7330729e-04   1.6913019e-04   4.8514346e-05  -6.3442531e-05  -8.5058942e-05   9.3527298e-05   2.3048052e-04   2.1387285e-03   3.5502887e-04  -3.1812600e-04  -3.2984797e-04  -2.4655502e-04  -3.4846610e-04   2.7707743e-03  -7.1070803e-04  -4.9499422e-04  -1.0785520e-03  -4.7612379e-04
  -5.1668550e-05  -1.6267656e-04  -4.7234964e-04  -7.7839877e-04  -1.8308082e-04  -1.0360915e-04  -1.9162973e-04   4.5807928e-06  -1.7055280e-04   2.5597407e-04   6.0437756e-05   4.6577337e-04  -9.0097095e-04   7.6122342e-05  -2.0008300e-04   2.6457096e-04   1.1237843e-04   2.6430489e-04   1.5304737e-04   4.9955441e-05  -6.6525172e-05  -1.2599817e-04   4.5028035e-05   2.1027388e-04   1.7799309e-03   2.9155263e-04  -3.7436694e-04  -3.5928760e-04  -2.6846665e-04  -3.1964009e-04   2.8339056e-03  -6.5510493e-04  -5.1387202e-04  -1.0073358e-03  -4.8151609e-04
  -3.8985912e-05  -1.7376294e-04  -4.8142561e-04  -7.8692898e-04  -1.8321941e-04  -9.9741199e-05  -1.9689689e-04   1.9668863e-05  -2.1772008e-04   2.4391738e-04   1.8565426e-05   4.1209205e-04  -9.1855286e-04   7.3190778e-05  -2.1032062e-04   2.5736028e-04   9.6931893e-05   2.5774195e-04   1.3992813e-04   4.9724978e-05  -7.4182128e-05  -1.6701357e-04  -1.7524385e-06   2.0965654e-04   1.5163061e-03   2.3824345e-04  -4.4261213e-04  -3.9094500e-04  -3.0256173e-04  -3.7183738e-04   2.9644400e-03  -6.3175586e-04  -5.6514802e-04  -9.8086183e-04  -5.0040154e-04
  -2.2391221e-05  -1.9150203e-04  -4.8097654e-04  -8.0641778e-04  -1.8103527e-04  -8.8950444e-05  -2.0079048e-04   3.9594830e-05  -2.6710497e-04   2.3379031e-04  -2.1817046e-05   3.6709194e-04  -9.2801958e-04   7.5876305e-05  -2.1517884e-04   2.5513381e-04   8.3013125e-05   2.5579685e-04   1.3379278e-04   5.3834479e-05  -8.0619873e-05  -1.9848754e-04  -3.7693662e-05   2.3003208e-04   1.3117961e-03   1.8829112e-04  -5.1774812e-04  -4.2513190e-04  -3.5587762e-04  -4.6608687e-04   3.1437362e-03  -6.2123872e-04  -6.3126197e-04  -1.0001089e-03  -5.3425209e-04
  -5.2499308e-06  -2.1685318e-04  -4.7422032e-04  -8.3975447e-04  -1.7676399e-04  -8.0732585e-05  -2.0475102e-04   5.8835416e-05  -3.1612074e-04   2.2452524e-04  -5.9079965e-05   3.3648554e-04  -9.3566690e-04   8.3588428e-05  -2.1886617e-04   2.5942552e-04   7.1917144e-05   2.5766465e-04   1.3460536e-04   6.2402949e-05  -8.1031831e-05  -2.1761216e-04  -5.9034621e-05   2.6076668e-04   1.1501294e-03   1.3612823e-04  -5.8843353e-04  -4.6336459e-04  -4.2620717e-04  -5.5104820e-04   3.3228444e-03  -6.0697453e-04  -6.9104409e-04  -1.0502232e-03  -5.7929510e-04
   8.0033378e-06  -2.4654489e-04  -4.6782612e-04  -8.8251079e-04  -1.7350490e-04  -8.4808300e-05  -2.0955867e-04   7.0578229e-05  -3.6258274e-04   2.1199764e-04  -9.1753762e-05   3.1496031e-04  -9.4891578e-04   9.0713504e-05  -2.2817941e-04   2.6622938e-04   6.3167485e-05   2.6005605e-04   1.3853252e-04   6.9920286e-05  -7.3657618e-05  -2.2906841e-04  -6.8229048e-05   2.8383793e-04   1.0238216e-03   8.0949889e-05  -6.4164546e-04  -5.0636579e-04  -5.0250377e-04  -5.8787683e-04   3.4437052e-03  -5.8204459e-04  -7.2922505e-04  -1.1089724e-03  -6.2845380e-04
   1.3087669e-05  -2.7482220e-04  -4.6886448e-04  -9.2414999e-04  -1.7537372e-04  -1.0626541e-04  -2.1535342e-04   6.9265734e-05  -4.0497372e-04   1.9105055e-04  -1.1883800e-04   2.9095251e-04  -9.7285857e-04   8.9081906e-05  -2.4908772e-04   2.6818868e-04   5.5045577e-05   2.5870511e-04   1.3993413e-04   6.8911540e-05  -6.0427676e-05  -2.4176599e-04  -7.2007875e-05   2.8202936e-04   9.1824244e-04   2.6427038e-05  -6.7029824e-04  -5.5275904e-04  -5.7042891e-04  -5.6623749e-04   3.4516053e-03  -5.4979697e-04  -7.4225257e-04  -1.1565934e-03  -6.7461730e-04
   7.0672231e-06  -2.9697924e-04  -4.8173900e-04  -9.5297699e-04  -1.8503498e-04  -1.4269445e-04  -2.2217819e-04   5.2812771e-05  -4.4299668e-04   1.5834492e-04  -1.4086113e-04   2.5447179e-04  -1.0082137e-03   7.2131683e-05  -2.8347436e-04   2.5883317e-04   4.5698940e-05   2.5033706e-04   1.3429431e-04   5.4957811e-05  -4.5854249e-05  -2.6323131e-04  -7.7450932e-05   2.4693593e-04   8.0535689e-04  -2.2463435e-05  -6.7937421e-04  -5.9939869e-04  -6.1993516e-04  -5.0495414e-04   3.3087465e-03  -5.1870180e-04  -7.3735137e-04  -1.1824110e-03  -7.1324356e-04
  -1.0610255e-05  -3.1249906e-04  -5.0622365e-04  -9.6220290e-04  -2.0186789e-04  -1.8478211e-04  -2.3045191e-04   2.3522593e-05  -4.7785020e-04   1.1471606e-04  -1.6063188e-04   2.0389831e-04  -1.0510650e-03   3.8806415e-05  -3.2734973e-04   2.3657296e-04   3.4326451e-05   2.3432368e-04   1.2073513e-04   3.0136278e-05  -3.4709821e-05  -2.9458944e-04  -8.7916422e-05   1.8293280e-04   6.6064851e-04  -6.3000138e-05  -6.8632665e-04  -6.4309075e-04  -6.5052509e-04  -4.3832161e-04   3.0187259e-03  -4.9485511e-04  -7.2598207e-04  -1.1861676e-03  -7.4289413e-04
  -3.7485890e-05  -3.2566470e-04  -5.3733564e-04  -9.5362478e-04  -2.2176010e-04  -2.2019661e-04  -2.4086126e-04  -1.2721124e-05  -5.1173620e-04   6.5744716e-05  -1.8257074e-04   1.4844748e-04  -1.0942353e-03  -4.9523355e-06  -3.7151889e-04   2.0611416e-04   2.1840431e-05   2.1335295e-04   1.0293970e-04   2.8101454e-06  -2.9594237e-05  -3.2905102e-04  -1.0101702e-04   1.0528269e-04   4.8961013e-04  -9.6158059e-05  -7.1423134e-04  -6.8230490e-04  -6.7121210e-04  -3.9561119e-04   2.6464288e-03  -4.7681917e-04  -7.1602140e-04  -1.1748680e-03  -7.6368160e-04
  -6.8196190e-05  -3.4295564e-04  -5.6713767e-04  -9.3674153e-04  -2.3871181e-04  -2.3894076e-04  -2.5367225e-04  -4.8645852e-05  -5.4639339e-04   2.0171850e-05  -2.1032688e-04   1.0473358e-04  -1.1296243e-03  -4.8200560e-05  -4.0470224e-04   1.7644023e-04   1.0713194e-05   1.9274061e-04   8.7874891e-05  -1.6090427e-05  -2.9671433e-05  -3.5498801e-04  -1.0979819e-04   3.3515022e-05   3.3057641e-04  -1.2510578e-04  -7.7985157e-04  -7.1745616e-04  -6.9497665e-04  -3.8505116e-04   2.3044448e-03  -4.5622123e-04  -7.0711091e-04  -1.1577155e-03  -7.7487703e-04
  -9.5507952e-05  -3.6841849e-04  -5.8776909e-04  -9.2355243e-04  -2.4749362e-04  -2.3761025e-04  -2.6788330e-04  -7.8163648e-05  -5.8118079e-04  -1.3228134e-05  -2.4362333e-04   8.8663699e-05  -1.1508362e-03  -7.9758858e-05  -4.1809326e-04   1.5637829e-04   4.0391647e-06   1.7860471e-04   8.2869992e-05  -1.8257373e-05  -3.1158161e-05  -3.6215564e-04  -1.0664621e-04  -1.6485445e-05   2.2794159e-04  -1.5169583e-04  -8.8208640e-04  -7.4916135e-04  -7.3036167e-04  -3.9143936e-04   2.1020605e-03  -4.2408612e-04  -6.9159007e-04  -1.1420187e-03  -7.7341974e-04
  -1.1220930e-04  -3.9957758e-04  -5.9450528e-04  -9.2171616e-04  -2.4603991e-04  -2.2058141e-04  -2.8091960e-04  -9.8273733e-05  -6.1175012e-04  -2.8879775e-05  -2.7613126e-04   1.0681951e-04  -1.1554422e-03  -9.3507471e-05  -4.0958732e-04   1.5015676e-04   4.2975730e-06   1.7556471e-04   9.2245573e-05  -1.8951007e-06  -2.9337958e-05  -3.4786083e-04  -8.7903936e-05  -3.7861970e-05   1.9852101e-04  -1.7327373e-04  -9.9730061e-04  -7.7519420e-04  -7.7468605e-04  -3.8851638e-04   2.0912415e-03  -3.7944343e-04  -6.6054281e-04  -1.1317176e-03  -7.5460761e-04
  -1.1327759e-04  -4.2645604e-04  -5.8768236e-04  -9.2982076e-04  -2.3641277e-04  -1.9769100e-04  -2.8928212e-04  -1.0958433e-04  -6.3025777e-04  -2.6379408e-05  -2.9604137e-04   1.5239010e-04  -1.1462148e-03  -9.1699636e-05  -3.8587704e-04   1.5520232e-04   1.2354753e-05   1.8485935e-04   1.1508715e-04   2.7519498e-05  -2.1045536e-05  -3.1981600e-04  -5.6805155e-05  -3.3266846e-05   2.0848194e-04  -1.8194033e-04  -1.0853618e-03  -7.8813900e-04  -8.1273075e-04  -3.5827688e-04   2.2433160e-03  -3.3512415e-04  -6.1164808e-04  -1.1283406e-03  -7.1488100e-04
  -9.7609329e-05  -4.3474833e-04  -5.7265343e-04  -9.3768234e-04  -2.2388389e-04  -1.7961253e-04  -2.8999007e-04  -1.1544234e-04  -6.2760460e-04  -1.0397594e-05  -2.8980599e-04   2.0815070e-04  -1.1308369e-03  -8.4585103e-05  -3.6114434e-04   1.6326795e-04   2.7116552e-05   2.0368032e-04   1.4512772e-04   5.9789552e-05  -6.3933803e-06  -2.9396306e-04  -2.3142855e-05  -1.0722143e-05   1.6425828e-04  -1.6701865e-04  -1.1042414e-03  -7.7591214e-04  -8.2208443e-04  -3.0576476e-04   2.4593943e-03  -3.1667110e-04  -5.5413722e-04  -1.1328275e-03  -6.5526436e-04
  -6.8530237e-05  -4.1196478e-04  -5.5774435e-04  -9.3161949e-04  -2.1460390e-04  -1.7314640e-04  -2.8215253e-04  -1.2016217e-04  -5.9702457e-04   1.1287751e-05  -2.4778524e-04   2.5444519e-04  -1.1198033e-03  -8.6176544e-05  -3.5235749e-04   1.6435677e-04   4.5911122e-05   2.2606434e-04   1.7293097e-04   8.4367653e-05   1.1013138e-05  -2.8788901e-04   3.7765113e-07   2.2586211e-05  -6.9772250e-05  -1.1961972e-04  -1.0263821e-03  -7.2584272e-04  -7.8275532e-04  -2.6019677e-04   2.6063649e-03  -3.5316154e-04  -5.0705316e-04  -1.1464334e-03  -5.8348919e-04
  -3.2827360e-05  -3.5361704e-04  -5.5093289e-04  -9.0198178e-04  -2.1296534e-04  -1.7859468e-04  -2.6778071e-04  -1.2714113e-04  -5.3766329e-04   3.0813972e-05  -1.6946878e-04   2.7761431e-04  -1.1229025e-03  -1.0782760e-04  -3.7264565e-04   1.5153970e-04   6.5340791e-05   2.4505577e-04   1.8945873e-04   9.4320814e-05   2.5500498e-05  -3.1277671e-04   3.4650313e-06   6.5023771e-05  -6.0270447e-04  -3.7080477e-05  -8.4979256e-04  -6.3081295e-04  -6.8654725e-04  -2.6005486e-04   2.5745688e-03  -4.6329465e-04  -4.9095211e-04  -1.1700275e-03  -5.1332882e-04
   1.5001123e-06  -2.6650014e-04  -5.5660011e-04  -8.4890454e-04  -2.1987963e-04  -1.9036501e-04  -2.5133151e-04  -1.3756669e-04  -4.5646259e-04   4.3015461e-05  -6.5808068e-05   2.7508484e-04  -1.1453819e-03  -1.5256619e-04  -4.2545362e-04   1.2425326e-04   8.2206665e-05   2.5532296e-04   1.8952496e-04   8.8064102e-05   3.1683892e-05  -3.6784844e-04  -1.7306646e-05   1.2133019e-04  -1.4318471e-03   7.4874108e-05  -6.0002593e-04  -4.9436197e-04  -5.4196472e-04  -3.2936418e-04   2.3387361e-03  -6.4391503e-04  -5.1735429e-04  -1.2024839e-03  -4.6089530e-04
   2.7968910e-05  -1.6713790e-04  -5.7382119e-04  -7.8319944e-04  -2.3269260e-04  -2.0027232e-04  -2.3800468e-04  -1.5003530e-04  -3.6710597e-04   4.6991427e-05   4.2990665e-05   2.5557034e-04  -1.1853458e-03  -2.1301972e-04  -5.0223636e-04   8.8472596e-05   9.4167866e-05   2.5517991e-04   1.7361154e-04   6.8453359e-05   2.6745904e-05  -4.4034934e-04  -5.7098154e-05   1.9934218e-04  -2.4305538e-03   2.0330797e-04  -3.2242411e-04  -3.3197383e-04  -3.7231352e-04  -4.5987379e-04   1.9794819e-03  -8.6808926e-04  -5.8181363e-04  -1.2396764e-03  -4.3908093e-04
   4.3794560e-05  -7.5680502e-05  -5.9696205e-04  -7.2179927e-04  -2.4666314e-04  -2.0173937e-04  -2.3158971e-04  -1.6102013e-04  -2.8592726e-04   4.6004465e-05   1.3409079e-04   2.3488227e-04  -1.2337097e-03  -2.7407272e-04  -5.8500899e-04   5.3865871e-05   1.0005443e-04   2.4715540e-04   1.4730971e-04   4.0392759e-05   1.1617010e-05  -5.1097607e-04  -1.0500637e-04   3.0467834e-04  -3.4167753e-03   3.3213361e-04  -6.6634413e-05  -1.6734484e-04  -2.0742939e-04  -6.1172782e-04   1.6394956e-03  -1.0944620e-03  -6.6441041e-04  -1.2752002e-03  -4.5245790e-04
   5.0715382e-05  -7.5960866e-06  -6.1827613e-04  -6.7978253e-04  -2.5711456e-04  -1.9265090e-04  -2.3288719e-04  -1.6579752e-04  -2.2617726e-04   4.6064135e-05   1.9085422e-04   2.2894204e-04  -1.2769654e-03  -3.1889632e-04  -6.5263495e-04   2.9636571e-05   9.9895668e-05   2.3686166e-04   1.1883169e-04   8.7065982e-06  -9.3066137e-06  -5.6193210e-04  -1.4851696e-04   4.3626569e-04  -4.2269165e-03   4.4731819e-04   1.3143914e-04  -2.4452494e-05  -7.2321091e-05  -7.3309726e-04   1.4448414e-03  -1.2828181e-03  -7.3763449e-04  -1.3027580e-03  -4.9511291e-04
   5.4209024e-05   3.2936518e-05  -6.3124293e-04  -6.6300813e-04  -2.6117530e-04  -1.7559141e-04  -2.3949220e-04  -1.5947116e-04  -1.9293018e-04   5.3920467e-05   2.0994856e-04   2.4669932e-04  -1.3017477e-03  -3.3543969e-04  -6.8815280e-04   2.1143929e-05   9.4886818e-05   2.3070957e-04   9.5851065e-05  -2.2580374e-05  -2.9655506e-05  -5.8367843e-04  -1.7791605e-04   5.8517745e-04  -4.7528851e-03   5.4088276e-04   2.6224263e-04   8.1553531e-05   2.2175373e-05  -7.8733492e-04   1.4436812e-03  -1.4082937e-03  -7.7796506e-04  -1.3189875e-03  -5.5268215e-04
   6.1499595e-05   5.4620519e-05  -6.3307089e-04  -6.6525955e-04  -2.5838942e-04  -1.5562198e-04  -2.4706582e-04  -1.3794233e-04  -1.8111541e-04   7.5230557e-05   2.0308046e-04   2.8618996e-04  -1.2993888e-03  -3.2057328e-04  -6.8414601e-04   2.8732626e-05   8.7290558e-05   2.3346355e-04   8.3115832e-05  -4.9626706e-05  -4.3098367e-05  -5.7757879e-04  -1.8877475e-04   7.3746999e-04  -4.9552834e-03   6.1194925e-04   3.4267877e-04   1.5028323e-04   8.2080587e-05  -7.7329582e-04   1.5854288e-03  -1.4686028e-03  -7.7568332e-04  -1.3250662e-03  -6.0781825e-04
   7.9158985e-05   7.4587806e-05  -6.2528613e-04  -6.7140500e-04  -2.5008651e-04  -1.3710978e-04  -2.5137057e-04  -9.8857563e-05  -1.7776166e-04   1.1326426e-04   1.9211876e-04   3.3561012e-04  -1.2686051e-03  -2.8041727e-04  -6.4422633e-04   4.8842463e-05   8.0204802e-05   2.4661998e-04   8.1674982e-05  -6.8028639e-05  -4.5126297e-05  -5.5376010e-04  -1.8191851e-04   8.7953213e-04  -4.8744772e-03   6.6468160e-04   4.0356594e-04   1.9510654e-04   1.2489677e-04  -7.2864135e-04   1.7403878e-03  -1.4823282e-03  -7.3809159e-04  -1.3260522e-03  -6.4669515e-04
   1.1112738e-04   1.1010450e-04  -6.1225914e-04  -6.6485174e-04  -2.3810535e-04  -1.2144229e-04  -2.5007347e-04  -4.2575040e-05  -1.6759949e-04   1.6820163e-04   1.9977104e-04   3.7846126e-04  -1.2153825e-03  -2.2706861e-04  -5.8046042e-04   7.6392134e-05   7.6974160e-05   2.6823627e-04   8.9706642e-05  -7.3203642e-05  -3.4135483e-05  -5.2564003e-04  -1.6159321e-04   1.0029426e-03  -4.6335240e-03   7.0459349e-04   4.7206454e-04   2.3517208e-04   1.6934209e-04  -7.1262417e-04   1.7599947e-03  -1.4791982e-03  -6.8463548e-04  -1.3281994e-03  -6.6385698e-04
   1.5761830e-04   1.7032573e-04  -5.9856212e-04  -6.3536840e-04  -2.2364977e-04  -1.0688339e-04  -2.4344944e-04   2.7028822e-05  -1.3957765e-04   2.3691080e-04   2.4002566e-04   3.9964324e-04  -1.1502334e-03  -1.7336637e-04  -5.0795858e-04   1.0701695e-04   8.0202648e-05   2.9406164e-04   1.0415378e-04  -6.2290601e-05  -1.1644481e-05  -5.0387939e-04  -1.3326660e-04   1.1061230e-03  -4.4011013e-03   7.3541200e-04   5.5879442e-04   2.8467542e-04   2.2570055e-04  -7.7420531e-04   1.5626958e-03  -1.4862035e-03  -6.3681562e-04  -1.3356445e-03  -6.6364201e-04
