-0.0000000 -0.0000000 -0.0000000 -0.0000000 -0.0000000 -0.0000000 -0.0000000 -0.0000000 -0.0000000 -0.0000000 -0.0000000 -0.0000000 -0.0000000 -0.0000000 -0.0000000 -0.0000000 -0.0000000 -0.0000000 -0.0000000 -0.0000000 -0.0000000 -0.0000000 -0.0000000 -0.0000000 -0.0000000 -0.0000000 -0.0000000 -0.0000000 -0.0000000 -0.0000000 -0.0000000 -0.0000000 -0.0000000 -0.0000000 -0.0000000 -0.0000000 -0.0000000 -0.0000000 -0.0000000 -0.0000000 -0.0000000 -0.0000000 -0.0000000 -0.0000000 -0.0000000 -0.0000000 -0.0000000 -0.0000000 -0.0000000 -0.0000000 -0.0000000 -0.0000000 -0.0000000 -0.0000000 -0.0000000 -0.0000000 -0.0000000 -0.0000000 -0.0000000 -0.0000000 -0.0000000 -0.0000000 -0.0000000 -0.0000000 -0.0000000 -0.0000000 -0.0000000 -0.0000000 -0.0000000 -0.0000000 -0.0000000 -0.0000000 -0.0000000 -0.0000000 -0.0000000 -0.0000000 -0.0000000 -0.0000000 -0.0000000 -0.0000000 -0.0000000 -0.0000000 -0.0000000 -0.0000000 -0.0000000 -0.0000000 -0.0000000 -0.0000000 -0.0000000 -0.0000000 -0.0000000 -0.0000000 -0.0000000 -0.0000000 -0.0000000 -0.0000000 -0.0000000 -0.0000000 -0.0000000 -0.0000000 -0.0000000 -0.0000000 -0.0000000 -0.0000000 -0.0000000 -0.0000000 -0.0000000 -0.0000000 -0.0000000 -0.0000000 -0.0000000 -0.0000000 -0.0000000 -0.0000000 -0.0000000 -0.0000000 -0.0000000 -0.0000000 -0.0000000 -0.0000000 -0.0000000 -0.0000000 -0.0000000 -0.0000000 -0.0000000 -0.0000000 -0.0000000 -0.0000000 -0.0000000 -0.0000000 -0.0000000 -0.0000000 -0.0000000 -0.0000000 -0.0000000 -0.0000000 -0.0000000 -0.0000000 -0.0000000 -0.0000000 -0.0000000 -0.0000000 -0.0000000 -0.0000000 -0.0000000 -0.0000000 -0.0000000 -0.0000000 -0.0000000 -0.0000000 -0.0000000 -0.0000000 -0.0000000 -0.0000000 -0.0000000 -0.0000000 -0.0000000 -0.0000000 -0.0000000 -0.0000000 -0.0000000 -0.0000000 -0.0000000 -0.0000000 -0.0000000 -0.0000000 -0.0000000 -0.0000000 -0.0000000 -0.0000000 -0.0000000 -0.0000000 -0.0000000 -0.0000000 -0.0000000 -0.0000000 -0.0000000 -0.0000000 -0.0000000 -0.0000000 -0.0000000 -0.0000000 -0.0000000 -0.0000000 -0.0000000 -0.0000000 -0.0000000 -0.0000000 -0.0000000 -0.0000000 -0.0000000 -0.0000000 -0.0000000 -0.0000000 -0.0000000 -0.0000000 -0.0000000 -0.0000000 -0.0000000 -0.0000000 -0.0000000 -0.0000000 -0.0000000 -0.0000000 -0.0000000 -0.0000000 -0.0000000 -0.0000000 -0.0000000 -0.0000000 -0.0000000 -0.0000000 -0.0000000 -0.0000000 -0.0000000 -0.0000000
-0.0000000 -0.0000000 -0.0000000 -0.0000000 -0.0000000 -0.0000000 -0.0000000 -0.0000000 -0.0000000 -0.0000000 -0.0000000 -0.0000000 -0.0000000 -0.0000000 -0.0000000 -0.0000000 -0.0000000 -0.0000000 -0.0000000 -0.0000000 -0.0000000 -0.0000000 -0.0000000 -0.0000000 -0.0000000 -0.0000000 -0.0000000 -0.0000000 -0.0000000 -0.0000000 -0.0000000 -0.0000000 -0.0000000 -0.0000000 -0.0000000 -0.0000000 -0.0000000 -0.0000000 -0.0000000 -0.0000000 -0.0000000 -0.0000000 -0.0000000 -0.0000000 -0.0000000 -0.0000000 -0.0000000 -0.0000000 -0.0000000 -0.0000000 -0.0000000 -0.0000000 -0.0000000 -0.0000000 -0.0000000 -0.0000000 -0.0000000 -0.0000000 -0.0000000 -0.0000000 -0.0000000 -0.0000000 -0.0000000 -0.0000000 -0.0000000 -0.0000000 -0.0000000 -0.0000000 -0.0000000 -0.0000000 -0.0000000 -0.0000000 -0.0000000 -0.0000000 -0.0000000 -0.0000000 -0.0000000 -0.0000000 -0.0000000 -0.0000000 -0.0000000 -0.0000000 -0.0000000 -0.0000000 -0.0000000 -0.0000000 -0.0000000 -0.0000000 -0.0000000 -0.0000000 -0.0000000 -0.0000000 -0.0000000 -0.0000000 -0.0000000 -0.0000000 -0.0000000 -0.0000000 -0.0000000 -0.0000000 -0.0000000 -0.0000000 -0.0000000 -0.0000000 -0.0000000 -0.0000000 -0.0000000 -0.0000000 -0.0000000 -0.0000000 -0.0000000 -0.0000000 -0.0000000 -0.0000000 -0.0000000 -0.0000000 -0.0000000 -0.0000000 -0.0000000 -0.0000000 -0.0000000 -0.0000000 -0.0000000 -0.0000000 -0.0000000 -0.0000000 -0.0000000 -0.0000000 -0.0000000 -0.0000000 -0.0000000 -0.0000000 -0.0000000 -0.0000000 -0.0000000 -0.0000000 -0.0000000 -0.0000000 -0.0000000 -0.0000000 -0.0000000 -0.0000000 -0.0000000 -0.0000000 -0.0000000 -0.0000000 -0.0000000 -0.0000000 -0.0000000 -0.0000000 -0.0000000 -0.0000000 -0.0000000 -0.0000000 -0.0000000 -0.0000000 -0.0000000 -0.0000000 -0.0000000 -0.0000000 -0.0000000 -0.0000000 -0.0000000 -0.0000000 -0.0000000 -0.0000000 -0.0000000 -0.0000000 -0.0000000 -0.0000000 -0.0000000 -0.0000000 -0.0000000 -0.0000000 -0.0000000 -0.0000000 -0.0000000 -0.0000000 -0.0000000 -0.0000000 -0.0000000 -0.0000000 -0.0000000 -0.0000000 -0.0000000 -0.0000000 -0.0000000 -0.0000000 -0.0000000 -0.0000000 -0.0000000 -0.0000000 -0.0000000 -0.0000000 -0.0000000 -0.0000000 -0.0000000 -0.0000000 -0.0000000 -0.0000000 -0.0000000 -0.0000000 -0.0000000 -0.0000000 -0.0000000 -0.0000000 -0.0000000 -0.0000000 -0.0000000 -0.0000000 -0.0000000 -0.0000000 -0.0000000 -0.0000000 -0.0000000 -0.0000000
-0.0000188 0.0000171 0.0000115 -0.0000112 0.0000040 -0.0000023 -0.0000130 -0.0000440 0.0000151 -0.0000849 0.0000254 -0.0000936 -0.0000135 -0.0000158 0.0000057 -0.0000122 0.0000157 -0.0000395 -0.0000089 0.0000464 -0.0000619 0.0000061 0.0000120 0.0000230 0.0000162 0.0000351 -0.0000217 -0.0000326 0.0000185 0.0000246 0.0000016 -0.0000727 0.0000505 -0.0000027 -0.0000240 0.0000600 0.0000464 0.0000548 0.0003021 -0.0004921 0.0000106 0.0000227 0.0000573 -0.0000290 0.0000641 -0.0000167 -0.0000174 -0.0000943 0.0001140 -0.0000769 0.0000065 0.0000132 0.0000001 0.0000084 -0.0000001 0.0000795 0.0000039 0.0000983 0.0000103 0.0000339 0.0000072 0.0000491 0.0003396 -0.0003383 -0.0000448 0.0000031 0.0000792 -0.0001137 -0.0007112 0.0004346 -0.0016657 0.0016789 0.0029109 -0.0081612 0.0016080 -0.0003754 0.0002454 -0.0003492 -0.0000791 0.0001353 0.0011736 -0.0008515 -0.0005758 0.0010888 -0.0000243 0.0000258 -0.0005228 0.0001549 0.0002796 -0.0001088 0.0000718 -0.0001248 -0.0006601 0.0003164 -0.0003964 -0.0002468 -0.0000425 -0.0000665 0.0006455 -0.0008038 0.0003695 -0.0003917 -0.0001162 0.0000343 0.0000747 -0.0001418 0.0044145 -0.0013797 -0.0030144 0.0055525 0.0001731 -0.0000095 -0.0000483 0.0001157 -0.0001500 0.0000037 0.0000301 0.0000184 0.0000940 0.0000336 0.0000229 -0.0000481 -0.0008323 0.0002890 0.0001725 -0.0001711 0.0000740 -0.0000742 0.0000543 -0.0000526 0.0000385 -0.0000629 0.0038905 -0.0026874 -0.0000246 0.0000275 -0.0012197 0.0004625 0.0000622 -0.0000388 -0.0000412 0.0000293 0.0001189 -0.0001247 0.0000286 -0.0000562 0.0000498 -0.0001225 -0.0001819 0.0008298 -0.0001592 0.0001071 0.0000613 -0.0001042 0.0032893 -0.0054019 -0.0000002 -0.0000476 0.0002106 -0.0002557 0.0000230 -0.0001056 0.0000605 -0.0002775 -0.0000015 -0.0000804 -0.0000589 0.0000196 0.0000298 -0.0000655 -0.0000237 -0.0000867 0.0030496 -0.0024685 0.0000611 -0.0001539 -0.0002880 -0.0000275 0.0000707 -0.0001166 0.0000436 -0.0000877 -0.0004279 0.0006619 0.0009194 -0.0025586 -0.0000619 -0.0000953 0.0000035 -0.0000877 -0.0000063 -0.0000606 -0.0041159 0.0019011 0.0001360 -0.0003361 -0.0000067 -0.0001034 -0.0003909 0.0000947 -0.0019555 0.0016247 -0.0000825 -0.0000208 0.0004907 -0.0008484 0.0000056 -0.0000568 0.0000728 -0.0001152 0.0000179 -0.0001023 -0.0000016 -0.0000970 -0.0001505 0.0001497
-0.0000169 -0.0001358 0.0000124 -0.0001434 0.0000100 -0.0001717 0.0000038 -0.0001138 0.0000227 -0.0002840 0.0000373 -0.0003074 0.0000138 -0.0001626 0.0000240 -0.0001225 0.0000028 -0.0001441 -0.0000141 -0.0000750 -0.0001308 -0.0000423 -0.0000102 -0.0001055 0.0000457 -0.0000941 -0.0000591 -0.0002902 0.0000147 -0.0000381 -0.0000007 -0.0003979 -0.0000133 -0.0001288 -0.0000385 -0.0001659 0.0001275 0.0001062 0.0001779 -0.0006803 -0.0000031 -0.0000593 0.0000282 -0.0001170 -0.0000487 -0.0001570 -0.0000340 -0.0003570 -0.0002452 0.0002596 0.0000097 -0.0000033 -0.0000043 0.0000090 -0.0000006 0.0001609 0.0000238 0.0001816 0.0000046 0.0000430 -0.0000055 0.0000930 0.0001850 -0.0002340 -0.0000194 -0.0000828 0.0000037 -0.0001022 -0.0000677 -0.0000322 0.0005857 -0.0005461 -0.0006377 -0.0014218 -0.0073971 0.0118940 0.0003922 -0.0003797 -0.0003854 0.0004578 0.0013323 -0.0001636 -0.0008179 0.0011491 -0.0000275 0.0000502 -0.0002283 0.0002804 -0.0000886 0.0001963 0.0000396 -0.0000780 0.0001555 -0.0013421 -0.0010024 0.0011916 -0.0001182 -0.0000051 -0.0001892 0.0001590 0.0002643 0.0000493 -0.0002189 0.0002104 0.0000434 -0.0000687 -0.0004241 0.0102038 -0.0105456 0.0090742 -0.0000370 0.0001686 0.0000431 0.0000352 0.0004146 -0.0003179 -0.0000074 0.0000985 0.0001753 -0.0000907 0.0000465 -0.0001003 0.0005855 -0.0007216 -0.0001678 0.0001035 0.0000195 -0.0000614 0.0000699 0.0000631 -0.0000411 0.0001893 0.0059978 -0.0015378 0.0000032 0.0001391 0.0000798 -0.0011102 0.0002083 -0.0002800 -0.0000405 0.0000936 0.0001536 -0.0002109 0.0000535 -0.0000647 -0.0000147 -0.0000190 0.0010797 -0.0006139 -0.0001082 0.0001494 0.0000055 -0.0001943 0.0041574 -0.0027749 -0.0000205 -0.0000178 0.0007478 -0.0006621 -0.0000190 -0.0000799 -0.0000170 0.0000198 0.0000078 -0.0000012 -0.0000176 -0.0000160 -0.0001136 0.0000751 -0.0000226 0.0000136 0.0109774 -0.0090854 -0.0002489 0.0001641 0.0000266 -0.0002174 0.0000814 -0.0001195 -0.0001801 -0.0005188 -0.0015639 0.0014006 0.0024437 -0.0029378 -0.0004120 0.0000683 -0.0000336 -0.0001370 0.0000882 -0.0002448 0.0007866 -0.0002268 -0.0001988 -0.0000502 -0.0000195 -0.0001207 -0.0001312 -0.0002797 0.0009034 0.0006587 -0.0001266 0.0001321 0.0004869 -0.0022088 -0.0000046 -0.0000904 0.0000903 -0.0002048 -0.0001004 -0.0000699 -0.0000085 -0.0000404 -0.0002332 0.0004964
-0.0000300 -0.0001214 0.0000165 -0.0000894 0.0000022 -0.0000748 0.0000429 -0.0001156 0.0000448 -0.0003619 -0.0000769 -0.0005302 0.0000141 -0.0000980 0.0000965 0.0001633 -0.0000317 -0.0001209 0.0000184 -0.0000434 0.0000938 -0.0000173 -0.0000002 0.0000545 -0.0000757 -0.0000241 -0.0002564 -0.0004391 -0.0000332 0.0000719 0.0000233 -0.0009594 -0.0000205 -0.0001697 -0.0000289 -0.0001231 0.0001552 0.0003080 -0.0004122 -0.0002739 -0.0000265 0.0000042 -0.0000015 -0.0002391 -0.0004238 0.0002747 -0.0000419 -0.0002948 -0.0003189 0.0003510 0.0000202 -0.0001037 0.0000468 0.0000572 0.0000032 0.0002356 0.0000846 0.0003645 -0.0000007 0.0000892 -0.0000130 0.0001265 -0.0001305 0.0001981 -0.0000268 -0.0001248 0.0000003 -0.0001123 -0.0005714 0.0004162 0.0024536 -0.0022727 -0.0003413 0.0042812 -0.0023101 0.0059298 0.0006516 -0.0006131 -0.0001525 0.0002154 0.0100517 -0.0086505 -0.0003489 0.0008261 -0.0000320 0.0000083 0.0002340 0.0015657 -0.0003481 0.0004425 0.0000840 0.0000020 0.0007796 -0.0020569 -0.0018429 0.0039446 -0.0000511 -0.0001426 0.0002124 -0.0003049 0.0009311 0.0010218 0.0002987 0.0000075 -0.0000376 -0.0001132 -0.0169641 0.0175318 -0.0139251 0.0096212 -0.0000309 -0.0001000 -0.0001536 0.0001568 -0.0002104 -0.0000188 -0.0000085 0.0000059 0.0001516 -0.0003907 0.0000155 -0.0004148 0.0011993 -0.0010008 0.0005087 -0.0013846 -0.0001586 0.0000567 0.0002531 0.0002410 0.0001132 0.0004773 0.0082541 -0.0058251 -0.0000397 0.0000364 0.0019443 -0.0027791 -0.0000977 -0.0001364 -0.0000654 -0.0000852 0.0001123 -0.0002727 0.0000516 -0.0003513 0.0000354 -0.0001945 -0.0000286 -0.0001557 -0.0003207 0.0002906 -0.0000251 -0.0005929 -0.0049259 0.0057383 0.0000228 -0.0000206 -0.0003082 -0.0001884 -0.0001124 -0.0003381 0.0000337 -0.0004303 -0.0000303 0.0001564 0.0000000 -0.0000754 -0.0000957 -0.0002530 0.0000868 -0.0000974 0.0103292 -0.0097567 -0.0002874 -0.0001284 0.0001031 -0.0005709 0.0000889 -0.0001930 -0.0006325 -0.0009415 0.0004544 -0.0004643 0.0017156 -0.0007562 -0.0008331 0.0000700 -0.0002723 -0.0010055 -0.0000556 -0.0002420 0.0006611 -0.0005323 -0.0000185 -0.0003548 -0.0001663 -0.0005358 -0.0000115 -0.0005980 -0.0015474 0.0019033 -0.0000719 -0.0001774 -0.0001459 -0.0027426 0.0000259 -0.0008625 -0.0001543 -0.0004857 -0.0002460 -0.0004266 0.0000422 0.0000240 -0.0003614 0.0027204
-0.0000584 -0.0000722 0.0000147 0.0000543 -0.0000262 0.0000955 0.0000566 -0.0000302 0.0000710 -0.0004327 -0.0001545 -0.0008209 0.0000434 0.0001141 0.0002669 0.0008946 -0.0000593 -0.0001133 0.0000317 0.0000553 0.0001372 0.0002108 0.0000600 0.0002761 -0.0001317 -0.0000045 -0.0005686 -0.0005278 -0.0000748 0.0002584 0.0000934 -0.0016766 -0.0000765 -0.0000849 0.0000267 0.0000436 0.0001489 0.0005388 -0.0003874 -0.0012680 -0.0000199 0.0000744 -0.0001554 -0.0004918 0.0000263 0.0001828 -0.0001624 -0.0001011 -0.0005510 0.0000345 0.0000516 -0.0000255 0.0001090 0.0003263 0.0000277 0.0006242 0.0001566 0.0008045 -0.0000332 0.0003184 -0.0000208 0.0002951 -0.0001491 0.0003970 -0.0000035 -0.0000959 -0.0000080 -0.0000432 -0.0015131 0.0017382 -0.0011207 0.0006077 -0.0033032 0.0163128 -0.0022424 0.0004444 -0.0001347 0.0007845 0.0001163 0.0003452 0.0076486 -0.0060480 -0.0007534 0.0018203 -0.0000414 0.0001325 0.0006510 0.0024552 0.0001686 0.0003789 0.0001629 0.0003729 -0.0015547 0.0004214 0.0013814 0.0006273 -0.0000616 -0.0005306 0.0000232 -0.0009126 0.0015024 0.0016378 0.0006275 0.0002021 -0.0000679 0.0002302 -0.0069517 -0.0031418 -0.0064724 0.0097184 -0.0000643 -0.0000573 -0.0000862 0.0004758 -0.0007392 0.0005685 -0.0000728 0.0001311 0.0001483 -0.0002460 -0.0001325 -0.0003539 0.0015931 -0.0015064 -0.0003237 -0.0002408 -0.0000212 0.0002195 0.0002329 0.0008267 0.0002357 0.0007448 0.0076235 -0.0109933 -0.0001690 0.0003032 0.0013258 -0.0012685 -0.0001658 0.0000019 -0.0001234 -0.0000828 0.0000403 0.0000219 0.0000730 -0.0005523 0.0000328 -0.0002457 -0.0012142 0.0007288 -0.0002874 0.0000080 -0.0000932 -0.0008331 -0.0038518 0.0030349 0.0001012 -0.0000306 -0.0004696 -0.0007366 -0.0001956 -0.0007945 -0.0005423 0.0001870 -0.0001561 0.0000804 0.0000352 -0.0001827 -0.0000781 -0.0007899 0.0000490 -0.0004416 -0.0019211 -0.0019502 -0.0001798 -0.0005824 0.0000629 -0.0007897 0.0001178 -0.0002730 0.0000804 -0.0012624 0.0010585 -0.0003607 -0.0017471 0.0011341 -0.0000912 -0.0013150 -0.0006409 -0.0022955 -0.0003087 -0.0001627 0.0006487 -0.0029940 0.0000657 -0.0007965 -0.0003691 -0.0014824 -0.0002424 -0.0004591 -0.0027968 0.0036467 -0.0000578 -0.0008691 -0.0006972 -0.0046721 0.0001385 -0.0018918 -0.0003194 -0.0011347 -0.0003566 -0.0009305 0.0001207 -0.0000223 -0.0003103 0.0048373
-0.0000590 -0.0000304 0.0000274 0.0000349 -0.0000630 0.0000859 0.0000400 0.0001353 0.0000583 -0.0005227 -0.0001757 -0.0007315 0.0000455 0.0001753 0.0004087 0.0013881 -0.0000846 -0.0002515 0.0000121 0.0000648 0.0001346 0.0000444 0.0000773 0.0002204 -0.0001008 -0.0002436 -0.0008339 -0.0006371 -0.0001568 0.0003019 0.0002413 -0.0025535 -0.0000997 -0.0001337 0.0000191 0.0000162 0.0001481 0.0004914 -0.0000632 -0.0020843 0.0000171 -0.0000026 -0.0003821 -0.0007989 -0.0000927 0.0001204 -0.0002787 -0.0003162 -0.0005701 -0.0004249 0.0000577 0.0002161 0.0001623 0.0005626 0.0000773 0.0008079 0.0001510 0.0008959 -0.0000835 0.0002837 -0.0000373 0.0002319 -0.0000158 0.0003106 0.0000051 -0.0001267 -0.0001389 -0.0000405 -0.0006138 0.0009402 -0.0091965 0.0076965 -0.0116517 0.0119551 0.0016520 -0.0136185 -0.0006212 0.0011298 0.0000053 0.0004182 -0.0038634 0.0032061 0.0004380 0.0007492 -0.0000047 0.0001253 0.0002600 0.0021832 0.0002747 0.0005770 0.0001876 0.0004403 -0.0005130 0.0004588 -0.0031727 0.0027003 -0.0001735 -0.0007918 0.0003750 -0.0013452 0.0010452 0.0015084 0.0001860 0.0003605 0.0001702 0.0007468 -0.0128134 0.0043501 -0.0015735 0.0061390 0.0001050 0.0000649 -0.0002066 0.0008373 0.0000865 0.0001360 -0.0001415 0.0001303 -0.0000183 0.0000845 -0.0001442 -0.0002939 0.0010546 -0.0014868 -0.0006741 0.0000767 0.0002026 0.0003085 0.0002845 0.0006250 0.0002269 0.0006629 0.0009182 0.0018396 -0.0002582 0.0004354 0.0004592 -0.0000937 -0.0000094 -0.0006183 -0.0001599 0.0000349 0.0000993 -0.0000464 -0.0000063 -0.0005038 0.0000922 -0.0002810 -0.0006179 0.0004831 0.0001872 -0.0005170 -0.0000381 -0.0009026 -0.0061668 0.0057268 -0.0000002 -0.0003869 0.0005045 -0.0021520 -0.0002474 -0.0009984 -0.0011232 0.0005954 -0.0002156 0.0000694 0.0001146 -0.0002732 0.0000947 -0.0009355 0.0000373 -0.0004951 0.0037020 -0.0031797 -0.0002342 -0.0004182 -0.0000009 -0.0007462 0.0000677 -0.0002036 0.0002551 -0.0007882 -0.0033548 0.0042653 -0.0070125 0.0073046 -0.0000819 -0.0010846 -0.0006418 -0.0017949 -0.0003001 -0.0000121 -0.0007269 0.0010095 -0.0001800 -0.0004245 -0.0004560 -0.0015581 -0.0002260 -0.0000776 0.0000402 -0.0020837 -0.0000031 -0.0006103 0.0005925 -0.0055276 0.0000166 -0.0011207 -0.0002127 -0.0013534 -0.0003490 -0.0007142 -0.0000467 -0.0001656 -0.0003466 0.0042853
-0.0000500 0.0002263 0.0000127 0.0001400 -0.0000725 0.0003334 0.0000238 0.0002835 0.0000211 -0.0004451 -0.0001938 -0.0003551 -0.0000510 0.0002086 0.0004339 0.0016609 -0.0001378 -0.0000124 0.0000182 0.0001451 0.0000109 0.0000077 0.0000497 0.0002473 -0.0000666 -0.0001307 -0.0009204 -0.0008759 -0.0002471 0.0003206 0.0002610 -0.0028937 -0.0000673 0.0001134 -0.0000572 0.0000691 0.0002304 0.0008526 -0.0005457 -0.0008678 0.0000108 0.0000870 -0.0003863 -0.0006103 -0.0002882 0.0003009 -0.0002263 -0.0003494 -0.0002167 -0.0000577 0.0000386 0.0003531 0.0001913 0.0006367 0.0000813 0.0006517 0.0001071 0.0007181 -0.0001143 0.0002765 -0.0000173 0.0002085 -0.0002507 0.0004757 -0.0000889 -0.0001002 -0.0000727 -0.0000433 -0.0002495 0.0002214 -0.0106874 0.0087296 0.0098496 -0.0103300 0.0078521 -0.0131698 -0.0006079 0.0004935 0.0000551 -0.0001222 -0.0056641 0.0024663 -0.0003857 0.0015343 0.0000685 0.0000875 -0.0008424 0.0012567 0.0001702 0.0005359 -0.0000462 0.0004291 0.0003853 0.0000404 -0.0099443 0.0067735 -0.0001414 -0.0004944 0.0001515 -0.0007223 0.0000571 0.0011813 -0.0001575 0.0007065 0.0001392 0.0010372 0.0020794 0.0001023 -0.0012761 0.0022383 0.0000835 0.0001948 -0.0000487 0.0004887 -0.0005011 0.0003289 -0.0001463 -0.0001403 -0.0002248 0.0000132 -0.0000586 -0.0004288 -0.0001289 -0.0004782 0.0004361 -0.0006049 0.0000943 0.0003024 0.0002538 -0.0001379 0.0001833 -0.0000785 -0.0003410 0.0072460 -0.0003802 -0.0000432 -0.0013129 0.0000365 0.0000234 -0.0008337 -0.0000951 -0.0000496 -0.0001622 -0.0004657 -0.0002241 -0.0004391 0.0001009 -0.0003120 -0.0000300 -0.0005335 0.0000546 -0.0002806 0.0001343 -0.0005397 -0.0049931 0.0025502 -0.0001842 -0.0008790 0.0006800 -0.0022509 -0.0000555 -0.0005787 -0.0007193 0.0006926 -0.0000848 0.0004820 -0.0000058 -0.0000114 0.0003990 -0.0007254 -0.0000089 -0.0005198 0.0079183 -0.0090565 -0.0002541 0.0000022 -0.0002915 -0.0002629 0.0001036 -0.0002245 0.0007316 -0.0013939 0.0006755 0.0004780 -0.0038914 0.0056484 -0.0001438 -0.0000868 -0.0002546 -0.0002739 -0.0000358 -0.0000359 -0.0071413 0.0092236 -0.0002426 -0.0000534 -0.0002534 -0.0006880 0.0005334 0.0001673 0.0027073 -0.0089952 -0.0000282 0.0003089 0.0011593 -0.0018986 -0.0000980 0.0001809 -0.0000119 -0.0007623 -0.0001343 -0.0002034 -0.0002098 -0.0001193 -0.0002887 0.0016467
-0.0000532 0.0002953 -0.0000361 0.0000860 -0.0000787 0.0004174 0.0000412 0.0004459 -0.0000436 -0.0006324 -0.0001892 -0.0001083 -0.0001381 0.0001153 0.0004134 0.0017241 -0.0001300 0.0002021 -0.0000156 0.0000799 -0.0000719 -0.0002392 -0.0000235 -0.0000030 -0.0000362 0.0000381 -0.0007341 -0.0011196 -0.0001654 0.0004117 0.0001170 -0.0022598 -0.0000861 0.0003535 -0.0001411 -0.0000678 0.0003250 0.0012145 -0.0007077 -0.0000008 0.0000087 0.0000309 -0.0002050 -0.0000942 -0.0002321 0.0000795 -0.0001836 -0.0002421 0.0000530 0.0008494 0.0000392 0.0004329 0.0001614 0.0005940 0.0000928 0.0006726 0.0000587 0.0006091 -0.0001484 0.0004015 0.0000339 0.0003129 0.0002784 -0.0002198 -0.0001186 -0.0001626 -0.0001614 0.0001026 0.0001600 -0.0005355 -0.0076778 0.0060780 0.0047360 0.0013237 0.0104607 -0.0175773 -0.0005388 0.0001856 -0.0000385 -0.0000953 -0.0036382 0.0024215 -0.0011196 0.0021252 0.0000689 0.0001476 -0.0014137 0.0001027 -0.0000489 0.0006399 -0.0002567 0.0005848 0.0004221 -0.0013277 -0.0011907 -0.0008194 -0.0001005 0.0000335 0.0002002 -0.0000774 -0.0005458 0.0006363 -0.0001438 0.0010714 0.0001087 0.0010353 0.0084829 -0.0054331 0.0054370 -0.0071922 0.0000099 0.0006183 -0.0000507 0.0001535 -0.0010278 0.0004334 -0.0001987 -0.0001449 -0.0000841 -0.0001834 0.0000272 -0.0002377 0.0001312 -0.0004173 0.0000290 0.0010013 -0.0002780 0.0003914 0.0000540 -0.0003489 0.0000866 -0.0006414 0.0016881 0.0051241 -0.0003848 -0.0003542 -0.0008886 -0.0003681 -0.0002038 -0.0002666 -0.0000136 0.0000088 -0.0000761 -0.0005720 -0.0002646 -0.0003148 0.0000023 -0.0000456 -0.0014675 0.0004202 -0.0002373 0.0000149 0.0001977 -0.0000120 0.0004922 0.0026832 -0.0002777 -0.0008644 0.0006052 -0.0015668 0.0001646 0.0001488 0.0000447 0.0007647 0.0000844 0.0006762 -0.0000838 0.0001824 0.0003382 -0.0002363 0.0000349 -0.0005419 0.0117782 -0.0129756 -0.0003293 0.0005347 -0.0000130 -0.0004299 0.0000823 -0.0000889 0.0007486 -0.0012232 0.0009564 0.0006286 0.0015147 -0.0030728 -0.0001198 0.0005333 0.0000444 0.0005241 -0.0000091 0.0002107 -0.0008643 0.0033124 -0.0000491 0.0002656 -0.0001272 -0.0000164 0.0003457 0.0005185 -0.0024002 -0.0089793 -0.0000494 0.0006400 -0.0000917 -0.0011427 -0.0001440 0.0007470 0.0001588 -0.0001943 -0.0000156 0.0001406 -0.0001934 0.0000856 -0.0003218 -0.0004063
-0.0000188 0.0001107 -0.0000620 -0.0001332 -0.0000953 0.0002024 0.0000300 0.0002922 -0.0000687 -0.0007988 -0.0002021 -0.0000703 -0.0001772 0.0000155 0.0003289 0.0012965 -0.0001055 0.0002066 -0.0000206 -0.0001150 -0.0000354 -0.0004624 -0.0000033 -0.0003192 -0.0000317 -0.0001880 -0.0004381 -0.0007333 -0.0001084 0.0002931 0.0001316 -0.0008607 0.0000128 0.0001234 -0.0001797 -0.0001658 0.0001670 0.0005322 -0.0006965 0.0002763 -0.0000021 -0.0000759 0.0000283 0.0003408 -0.0002943 -0.0001855 0.0000595 0.0005746 0.0003899 0.0014168 0.0000544 0.0004916 0.0001203 0.0004753 0.0001127 0.0005597 0.0000350 0.0005281 -0.0001448 0.0003843 0.0000694 0.0002309 0.0003881 -0.0004258 -0.0000431 -0.0003303 -0.0002390 0.0000751 0.0002854 -0.0007773 -0.0016919 0.0022163 -0.0182465 0.0118258 0.0009715 -0.0036313 -0.0006253 0.0003169 -0.0000967 0.0000513 0.0041827 -0.0022748 -0.0002246 0.0007884 0.0000540 0.0000968 -0.0010433 -0.0001144 -0.0004648 0.0008514 -0.0001840 0.0006297 0.0019375 -0.0028552 0.0017624 0.0002931 0.0000049 0.0001271 0.0003390 -0.0004288 -0.0004638 0.0003061 -0.0001072 0.0009743 0.0000869 0.0008268 0.0029167 0.0010488 0.0117055 -0.0275055 0.0001033 0.0012041 -0.0003436 0.0004181 -0.0009341 0.0007132 -0.0001692 -0.0001695 -0.0001350 -0.0000180 0.0000384 -0.0000518 0.0002884 -0.0003945 -0.0001137 0.0008230 -0.0001439 0.0002583 0.0000938 -0.0001068 0.0000193 -0.0005385 -0.0029312 0.0038115 -0.0002136 -0.0003028 -0.0002182 -0.0002576 -0.0004692 -0.0002950 -0.0000369 0.0000514 0.0001061 -0.0002657 -0.0002686 -0.0000313 0.0000609 0.0002324 -0.0015507 0.0003455 -0.0002563 0.0000890 -0.0000045 0.0002165 -0.0008543 -0.0001426 -0.0002136 -0.0007183 -0.0001133 -0.0005064 0.0001529 0.0005236 -0.0003009 0.0014404 -0.0000325 0.0012209 -0.0000304 0.0002136 0.0000229 0.0002095 0.0000570 -0.0001230 0.0048882 -0.0070834 0.0000617 0.0006176 0.0000920 -0.0001503 -0.0001014 0.0002609 -0.0002189 -0.0002180 0.0001524 0.0009252 -0.0047432 0.0026371 0.0004300 0.0006334 0.0000680 0.0009050 -0.0001910 0.0007819 0.0043649 -0.0048476 0.0001096 0.0006474 -0.0001057 0.0004685 0.0000890 0.0008102 -0.0037825 -0.0048603 0.0000371 0.0007892 0.0003069 -0.0010059 -0.0001790 0.0009072 0.0002009 0.0001429 0.0000289 0.0003123 -0.0001995 0.0003760 -0.0004368 -0.0007946
0.0000551 0.0003565 -0.0000327 0.0000836 -0.0001293 0.0002987 0.0000340 0.0001862 0.0000787 0.0012855 -0.0000993 0.0002598 -0.0001912 0.0002380 0.0001057 0.0007543 -0.0000556 0.0005008 -0.0000090 0.0000530 0.0000547 -0.0002677 0.0000150 -0.0000154 -0.0000708 -0.0001011 0.0000387 0.0004230 -0.0001893 -0.0000343 0.0001023 0.0008057 0.0002988 0.0006792 0.0003304 0.0008217 0.0003476 0.0002907 0.0005276 0.0001304 0.0000245 0.0000287 0.0001173 0.0006192 -0.0004473 0.0000342 0.0001435 0.0024834 0.0015862 0.0043938 -0.0000163 0.0003973 0.0000961 0.0004413 0.0000480 0.0002263 0.0000462 0.0004613 -0.0001163 0.0003877 0.0000524 0.0001268 -0.0001549 0.0000330 -0.0000510 -0.0003334 -0.0002892 0.0001940 0.0002547 -0.0009328 0.0036129 -0.0016427 0.0018618 -0.0065260 -0.0117163 0.0117260 -0.0000158 0.0001236 0.0000895 -0.0000326 0.0063640 -0.0092965 0.0001562 -0.0000658 0.0000995 0.0000131 -0.0002473 -0.0004523 0.0002836 0.0001074 -0.0000660 0.0005685 0.0018209 -0.0041312 0.0012160 0.0001355 0.0000845 0.0000138 0.0002669 -0.0009561 -0.0004618 0.0002046 -0.0002599 0.0010809 -0.0000301 0.0007403 -0.0054257 0.0133862 0.0005291 -0.0141682 0.0000953 0.0014616 -0.0001919 0.0002684 0.0003923 0.0000942 -0.0000767 -0.0003543 -0.0002271 -0.0000867 0.0000329 -0.0001247 -0.0005849 0.0002733 -0.0002898 -0.0001673 -0.0000990 0.0001260 0.0002701 -0.0001917 0.0000999 -0.0005981 -0.0014447 0.0036261 -0.0000280 -0.0004898 -0.0006697 -0.0003662 -0.0003416 -0.0007635 -0.0000198 -0.0000787 0.0000328 -0.0002118 -0.0002404 -0.0001564 0.0000372 0.0004369 0.0006093 -0.0013175 -0.0004433 0.0000875 0.0000950 0.0000079 -0.0076032 0.0011404 -0.0001385 -0.0006466 -0.0008530 0.0004122 0.0001786 0.0005571 -0.0007739 0.0019688 -0.0000367 0.0014189 -0.0001602 0.0003857 -0.0002769 0.0004057 0.0001099 -0.0000380 0.0016740 -0.0036350 -0.0004227 0.0011827 -0.0002834 0.0003044 -0.0002043 0.0004450 0.0000464 -0.0001934 0.0021105 -0.0010836 -0.0072237 0.0063852 0.0006684 0.0005007 0.0000195 0.0010661 -0.0001943 0.0008052 0.0068880 -0.0097931 0.0004342 0.0006141 -0.0000546 0.0005803 0.0002594 0.0005203 0.0024430 -0.0098344 -0.0000060 0.0008603 0.0020419 -0.0014280 -0.0001342 0.0008919 0.0002034 0.0003345 0.0000160 0.0004221 -0.0002167 0.0005732 -0.0003470 -0.0011082
0.0001224 0.0005233 0.0000019 0.0002278 -0.0001421 0.0003507 -0.0000132 0.0002488 0.0001324 0.0023777 -0.0000364 0.0004243 -0.0002015 0.0003573 -0.0000165 0.0005620 -0.0000179 0.0005913 0.0000122 0.0001736 0.0000814 -0.0001953 0.0000354 0.0001512 -0.0000972 -0.0000326 0.0001884 0.0009826 -0.0002119 -0.0001054 -0.0000865 0.0007233 0.0005441 0.0012674 0.0007825 0.0016226 0.0006607 0.0006954 0.0014137 -0.0003831 0.0000235 0.0001527 0.0001475 0.0007105 -0.0003111 0.0002096 -0.0001016 0.0031397 0.0022776 0.0062022 -0.0001056 0.0002323 0.0000884 0.0004717 0.0000045 0.0002252 0.0000606 0.0005765 -0.0001049 0.0005513 0.0000494 0.0002225 -0.0002271 0.0000814 -0.0000693 -0.0002321 -0.0002875 0.0003541 0.0009511 -0.0017433 0.0051384 -0.0032980 0.0024730 0.0052409 -0.0058433 0.0012961 -0.0000843 0.0003390 0.0001502 0.0001290 0.0057642 -0.0127717 0.0005612 -0.0004037 0.0001235 0.0001823 0.0000980 -0.0007522 0.0004326 0.0003959 -0.0000866 0.0008624 -0.0007004 -0.0018377 -0.0047871 0.0030852 0.0001869 -0.0000299 0.0000198 -0.0001461 -0.0003507 0.0002544 -0.0002473 0.0010620 -0.0000728 0.0008845 -0.0040087 0.0066570 -0.0068279 -0.0039338 0.0001466 0.0013897 0.0000172 0.0001067 0.0008798 -0.0003502 -0.0000311 -0.0002250 -0.0000576 -0.0001340 -0.0000764 0.0000159 -0.0002173 0.0001638 0.0013896 -0.0016796 0.0001848 -0.0000485 0.0003964 -0.0001973 0.0001191 -0.0004112 0.0060263 -0.0004588 0.0000826 -0.0006279 0.0012692 -0.0010148 0.0000527 -0.0010647 0.0000780 -0.0001581 -0.0001028 -0.0000039 -0.0002011 -0.0003065 0.0000150 0.0004887 0.0033516 -0.0042247 -0.0001924 -0.0004527 0.0001603 -0.0001523 -0.0142278 0.0104403 -0.0000982 -0.0004873 -0.0003892 -0.0001193 0.0001870 0.0005733 -0.0002854 0.0007470 0.0000694 0.0011268 -0.0002661 0.0004903 0.0001127 0.0000951 0.0000301 -0.0000299 0.0056551 -0.0080833 -0.0002757 0.0007060 0.0001070 -0.0001425 -0.0001470 0.0003825 0.0006603 -0.0005465 0.0038434 -0.0020595 -0.0066907 0.0060990 0.0007594 0.0001878 -0.0000169 0.0008810 -0.0001270 0.0005636 -0.0006485 -0.0008397 0.0006883 0.0003546 -0.0000909 0.0005094 0.0004034 -0.0000439 -0.0004443 -0.0085867 -0.0000397 0.0005771 0.0009849 -0.0012085 -0.0000886 0.0007858 0.0002614 0.0001689 -0.0000549 0.0003955 -0.0002460 0.0005024 -0.0002654 -0.0010367
0.0001592 0.0003070 -0.0000280 0.0001035 -0.0001088 0.0002406 -0.0001116 0.0002069 -0.0000042 0.0011561 -0.0000652 0.0003340 -0.0001794 0.0002844 0.0000059 0.0006324 -0.0000577 0.0004550 0.0000391 0.0000008 0.0000185 -0.0002294 0.0000475 -0.0000283 -0.0000822 -0.0002264 0.0000752 0.0006622 -0.0001720 -0.0001052 -0.0002332 0.0002049 0.0006235 0.0010416 0.0007716 0.0014589 0.0005369 0.0005472 0.0012027 -0.0006510 -0.0000151 0.0001494 0.0000455 0.0007330 -0.0002752 0.0002599 -0.0002168 0.0022175 0.0016857 0.0052219 -0.0000917 0.0001543 0.0001078 0.0004593 -0.0000015 0.0001995 0.0000595 0.0006108 -0.0001186 0.0005541 0.0000667 0.0001948 -0.0000635 -0.0000356 -0.0000134 -0.0003395 -0.0002935 0.0003297 0.0009517 -0.0017245 0.0036467 -0.0031342 0.0039682 -0.0022035 0.0015391 0.0021289 0.0002559 0.0000527 0.0001163 0.0001125 0.0012202 -0.0079762 0.0016438 -0.0019171 0.0001044 0.0002818 -0.0002185 -0.0005516 0.0004351 0.0003484 -0.0000088 0.0008942 -0.0013612 -0.0008814 0.0001158 -0.0006993 0.0002347 -0.0002846 -0.0004077 0.0003162 0.0000909 0.0001575 0.0000355 0.0007697 -0.0000070 0.0009468 -0.0042009 0.0032451 -0.0134622 0.0072791 0.0003161 0.0012805 -0.0001396 0.0003267 0.0004946 -0.0002541 -0.0000297 -0.0000806 -0.0000592 0.0000116 -0.0000272 -0.0000996 -0.0005126 0.0009766 0.0013507 -0.0013039 0.0004900 -0.0001287 0.0003964 -0.0000590 0.0000739 -0.0001506 0.0047007 -0.0020333 -0.0001379 -0.0002524 0.0018101 -0.0012462 0.0000824 -0.0008345 -0.0000060 0.0000430 -0.0002553 0.0002824 -0.0004105 0.0000604 -0.0000621 0.0006781 0.0024032 -0.0032998 -0.0000902 -0.0005344 -0.0000161 -0.0001111 0.0012445 -0.0027262 -0.0000651 -0.0003367 -0.0003079 -0.0003113 0.0000995 0.0007473 -0.0001792 0.0006599 0.0000261 0.0011928 -0.0002680 0.0005649 0.0001103 0.0000141 -0.0000073 0.0000194 -0.0014305 -0.0050698 -0.0000895 0.0007163 0.0003546 -0.0000314 -0.0002153 0.0004990 -0.0001699 0.0002203 0.0017867 -0.0007670 -0.0134118 0.0110084 0.0011456 0.0002550 -0.0000620 0.0009005 -0.0001091 0.0007013 -0.0067106 0.0089438 0.0000098 0.0007928 -0.0001274 0.0006153 -0.0000659 0.0009219 -0.0023071 -0.0033928 0.0000444 0.0005448 0.0005957 -0.0007536 -0.0002038 0.0008820 0.0001474 0.0003054 -0.0000837 0.0004844 -0.0002333 0.0005304 -0.0001400 -0.0007751
0.0001534 0.0003348 -0.0000567 0.0002186 -0.0000776 0.0003768 -0.0000946 0.0002749 -0.0000158 0.0007200 -0.0000412 0.0004029 -0.0001715 0.0003420 0.0000120 0.0008329 -0.0000642 0.0004774 0.0000020 0.0000037 0.0001063 -0.0002533 -0.0000301 -0.0000389 0.0000433 -0.0003596 0.0001047 0.0004425 -0.0001050 -0.0000799 -0.0003869 -0.0001873 0.0004542 0.0012047 0.0006930 0.0014910 0.0005694 0.0011057 0.0012921 -0.0007044 -0.0000230 0.0000877 0.0000025 0.0006563 -0.0001816 0.0002829 -0.0002056 0.0019980 0.0011745 0.0041095 -0.0001103 0.0000948 0.0001016 0.0004739 -0.0000126 0.0000256 0.0000369 0.0005089 -0.0001032 0.0003874 0.0000536 0.0000769 0.0004321 -0.0006228 0.0000521 -0.0004813 -0.0003430 0.0003638 0.0004496 -0.0010604 -0.0028519 0.0014765 0.0087546 -0.0156541 0.0073091 -0.0029924 0.0002921 -0.0001570 0.0000831 -0.0000271 -0.0028140 0.0014321 0.0008744 -0.0014000 0.0001052 0.0001420 -0.0008772 0.0003624 0.0004940 0.0001582 -0.0000142 0.0007569 0.0007096 -0.0024825 0.0034504 -0.0012992 0.0002815 -0.0005309 -0.0000082 -0.0002684 0.0003191 -0.0000304 0.0000829 0.0005788 0.0000307 0.0008564 -0.0005812 -0.0027265 -0.0069138 0.0124324 0.0000844 0.0011368 -0.0004517 0.0005635 0.0006457 0.0001740 -0.0000168 -0.0001122 -0.0000925 -0.0001316 -0.0000269 -0.0003058 -0.0000725 0.0005943 0.0002318 -0.0000095 0.0000591 0.0003368 0.0003209 0.0000466 0.0001778 -0.0001537 0.0067591 -0.0078865 -0.0000907 -0.0002743 0.0031231 -0.0032016 -0.0000564 -0.0005404 -0.0000008 0.0000250 -0.0000850 0.0001263 -0.0004148 0.0001526 -0.0001600 0.0007525 0.0005979 -0.0009636 0.0001725 -0.0007312 -0.0000155 -0.0002289 -0.0022689 -0.0044073 -0.0000770 -0.0002550 0.0005498 -0.0006467 0.0000737 0.0007457 -0.0003687 0.0013203 0.0000128 0.0011147 -0.0002578 0.0005567 0.0001941 -0.0002556 0.0000142 -0.0000928 -0.0047269 0.0019820 -0.0004623 0.0014864 0.0002390 0.0002909 -0.0002591 0.0005101 -0.0001934 0.0001863 -0.0020087 0.0041795 -0.0131284 0.0069892 0.0002901 0.0009039 -0.0000624 0.0007556 0.0000049 0.0005658 0.0042318 -0.0010949 -0.0001850 0.0010130 -0.0001707 0.0005968 -0.0004905 0.0015512 -0.0012138 -0.0036655 -0.0001058 0.0006101 0.0037740 -0.0038647 -0.0002214 0.0007757 -0.0000149 0.0004154 -0.0000541 0.0004306 -0.0002511 0.0004845 -0.0001634 -0.0005153
0.0001161 0.0003158 -0.0000632 0.0002787 -0.0000449 0.0004699 -0.0000712 0.0002778 -0.0000135 0.0002650 -0.0000418 0.0004707 -0.0001745 0.0004246 0.0000151 0.0009564 -0.0000257 0.0004493 -0.0000405 0.0000577 0.0001266 -0.0001181 -0.0000198 -0.0000395 0.0000806 -0.0003215 0.0001527 0.0003021 -0.0000019 0.0000681 -0.0005130 -0.0007852 0.0003027 0.0012609 0.0003703 0.0016308 0.0005604 0.0015961 0.0010805 -0.0002239 -0.0000297 0.0001150 -0.0000131 0.0005850 -0.0001245 0.0004016 -0.0002719 0.0017381 0.0002814 0.0029023 -0.0001108 0.0001052 0.0000815 0.0005209 -0.0000151 0.0000920 0.0000034 0.0006203 -0.0000887 0.0004957 0.0000500 0.0001851 0.0003978 -0.0006059 0.0000265 -0.0003444 -0.0003041 0.0004870 0.0001795 -0.0008452 -0.0050416 0.0026961 0.0099636 -0.0087370 0.0044000 -0.0146548 -0.0001839 0.0005737 0.0000728 0.0001351 0.0055236 -0.0044732 0.0002377 0.0002550 0.0001060 0.0002256 0.0000874 -0.0002272 -0.0001426 0.0009447 -0.0001987 0.0010335 0.0010880 -0.0001200 0.0060329 -0.0016372 -0.0000523 -0.0002244 -0.0005138 -0.0000011 0.0003575 -0.0001635 -0.0003032 0.0008268 0.0000448 0.0008545 0.0067086 -0.0127790 -0.0043986 0.0105254 -0.0001749 0.0012887 -0.0003263 0.0005468 0.0001612 0.0007170 0.0000165 -0.0000239 -0.0001381 -0.0001654 -0.0001380 -0.0002313 0.0008897 -0.0005616 0.0010564 -0.0004702 -0.0003103 0.0008223 0.0002081 0.0002813 0.0002468 -0.0000919 0.0003371 -0.0026102 0.0000844 -0.0005149 0.0034728 -0.0046828 -0.0003376 -0.0001886 0.0001376 -0.0001760 0.0000358 0.0000899 -0.0003330 -0.0000070 -0.0000807 0.0006243 -0.0000349 -0.0012725 0.0002977 -0.0009483 0.0001200 -0.0003641 -0.0200380 0.0083977 -0.0000754 -0.0002805 0.0010972 -0.0009086 0.0000550 0.0006634 -0.0002432 0.0010196 -0.0000083 0.0009659 -0.0002186 0.0004613 0.0002294 -0.0003578 -0.0000182 -0.0000615 0.0043833 -0.0087761 -0.0006663 0.0015633 0.0002585 0.0000126 -0.0001894 0.0003742 -0.0001409 0.0002469 0.0002475 0.0015944 -0.0003372 -0.0045509 0.0002682 0.0005262 -0.0000447 0.0005138 -0.0002179 0.0006501 0.0067452 -0.0066285 -0.0000255 0.0008586 -0.0001439 0.0003814 -0.0004028 0.0007269 -0.0008911 -0.0053881 -0.0000152 0.0002322 0.0035174 -0.0015406 -0.0001666 0.0005475 -0.0001267 0.0003312 -0.0000381 0.0002585 -0.0002771 0.0003119 -0.0003942 -0.0005505
0.0001079 0.0000271 -0.0000856 0.0001274 -0.0000326 0.0002769 -0.0000174 0.0002732 -0.0000357 -0.0002208 -0.0000900 0.0003009 -0.0001619 0.0003094 0.0000198 0.0007989 -0.0000262 0.0002715 -0.0000386 -0.0000131 0.0000347 -0.0000123 0.0000634 -0.0001308 0.0000873 -0.0003632 0.0000892 -0.0000536 0.0000535 0.0000947 -0.0004772 -0.0012289 0.0003927 0.0008688 0.0000824 0.0015662 0.0004387 0.0013800 0.0003814 -0.0001053 -0.0000190 0.0001155 -0.0000025 0.0004603 -0.0003374 0.0006287 -0.0003950 0.0010565 -0.0003085 0.0022132 -0.0000864 0.0000246 0.0000701 0.0004617 -0.0000235 0.0001404 -0.0000091 0.0006272 -0.0000860 0.0004896 0.0000457 0.0002107 0.0000353 -0.0002734 -0.0000630 -0.0002699 -0.0001989 0.0003446 0.0001586 -0.0008248 0.0000459 -0.0018726 0.0071765 -0.0129105 -0.0010549 -0.0029648 -0.0001399 0.0008867 0.0000308 0.0002850 0.0075304 -0.0073574 -0.0000970 0.0007038 0.0001139 0.0002440 0.0003141 -0.0008071 0.0001908 0.0007931 -0.0001737 0.0009999 0.0023139 -0.0009789 0.0059243 -0.0031549 -0.0003557 -0.0000644 -0.0019490 0.0014493 -0.0004346 0.0004379 -0.0002717 0.0006437 0.0000200 0.0008427 -0.0021982 -0.0062425 -0.0027223 -0.0002009 -0.0001096 0.0013589 -0.0002507 0.0005761 -0.0001372 0.0003062 0.0000165 0.0000884 -0.0004590 0.0002395 -0.0000811 -0.0002396 0.0003598 0.0002262 0.0002139 -0.0008766 -0.0001372 0.0007374 0.0002670 0.0003866 0.0001874 0.0001076 -0.0029850 -0.0014319 0.0001934 -0.0003298 -0.0004138 -0.0007267 -0.0001709 -0.0003487 0.0000888 0.0000388 -0.0001458 0.0005376 -0.0002361 0.0000453 -0.0000329 0.0007183 0.0001696 -0.0012543 0.0001328 -0.0007040 0.0000833 -0.0003094 0.0049455 -0.0135756 -0.0000863 -0.0001905 0.0004489 -0.0004228 0.0000689 0.0006004 -0.0001215 0.0014066 -0.0000094 0.0010246 -0.0003334 0.0006357 -0.0002676 0.0002164 0.0000625 0.0001016 0.0001358 -0.0052785 -0.0007648 0.0013597 -0.0002085 0.0006620 -0.0001613 0.0003697 -0.0017104 0.0018943 0.0000716 0.0002441 -0.0019796 0.0007770 0.0002266 0.0007216 -0.0001406 0.0005500 -0.0004721 0.0008545 0.0024259 -0.0026929 -0.0000473 0.0008932 -0.0001673 0.0003532 -0.0008489 0.0016007 0.0033261 -0.0086806 0.0000784 0.0001603 -0.0004938 0.0031682 -0.0002430 0.0005822 -0.0000490 0.0002653 -0.0000910 0.0003253 -0.0003085 0.0003566 -0.0002675 -0.0007414
0.0000959 0.0000580 -0.0001045 0.0001456 -0.0000512 0.0002860 0.0000069 0.0003615 -0.0000549 -0.0004776 -0.0001202 0.0001156 -0.0001471 0.0001740 0.0000280 0.0007089 -0.0000548 0.0000859 -0.0000363 -0.0000246 0.0000799 -0.0000050 0.0000661 -0.0001502 0.0000374 -0.0003037 -0.0000127 -0.0004547 0.0000171 0.0000309 -0.0003849 -0.0013132 0.0003034 0.0007555 0.0001041 0.0012527 0.0003816 0.0010972 0.0002196 -0.0004874 -0.0000112 0.0000682 0.0001221 0.0002680 -0.0002686 0.0003507 -0.0004711 0.0007826 -0.0002783 0.0018420 -0.0000711 -0.0000622 0.0000609 0.0003522 -0.0000139 0.0000335 -0.0000111 0.0004669 -0.0000715 0.0002892 0.0000299 0.0000687 -0.0001106 -0.0000842 -0.0000381 -0.0004065 -0.0001760 0.0001729 -0.0003696 0.0000626 0.0054254 -0.0051007 -0.0129227 0.0109761 0.0067525 -0.0062784 -0.0000875 0.0002392 0.0000481 0.0000768 0.0045266 -0.0020624 -0.0026103 0.0019184 0.0001095 0.0000373 -0.0005305 -0.0001909 0.0006722 0.0000687 -0.0000798 0.0006885 0.0024974 -0.0036715 0.0026736 -0.0025612 -0.0002646 -0.0003138 -0.0010350 0.0005058 -0.0005896 0.0005279 -0.0001464 0.0003501 0.0000175 0.0006507 0.0000062 -0.0059776 -0.0020836 0.0070440 -0.0000029 0.0010441 -0.0003383 0.0005073 0.0004820 -0.0001620 0.0000159 0.0000596 -0.0004453 0.0002458 -0.0000381 -0.0003380 0.0009865 -0.0002417 0.0012247 -0.0018037 0.0003865 0.0000913 0.0004045 0.0002619 0.0001309 0.0002258 0.0002525 -0.0088778 0.0001529 -0.0001954 -0.0020354 0.0018841 0.0000240 -0.0005355 -0.0000030 0.0001750 -0.0000361 0.0005125 -0.0002199 0.0000731 0.0000456 0.0005172 0.0007394 -0.0019223 0.0001206 -0.0008900 0.0000376 -0.0002617 0.0079468 -0.0135034 -0.0001133 -0.0001268 -0.0001304 -0.0000218 0.0000399 0.0004884 -0.0003908 0.0013161 -0.0000152 0.0009586 -0.0003254 0.0006240 -0.0003376 0.0003996 -0.0000177 0.0003588 0.0018643 -0.0045368 0.0003701 0.0005837 -0.0003371 0.0009396 -0.0001175 0.0003080 -0.0018262 0.0022804 -0.0020231 0.0017014 -0.0128747 0.0148302 -0.0004320 0.0013803 -0.0001688 0.0004937 -0.0002438 0.0004715 0.0057540 -0.0042163 0.0001295 0.0004243 -0.0002660 0.0003216 -0.0002765 0.0009470 -0.0010201 -0.0054686 0.0000436 0.0001623 -0.0002912 0.0010392 -0.0002740 0.0005349 0.0001259 0.0000540 -0.0001181 0.0003423 -0.0002811 0.0002875 -0.0000548 -0.0009318
0.0000713 0.0001025 -0.0000861 0.0001529 -0.0000572 0.0002777 -0.0000184 0.0002421 -0.0000619 -0.0006631 -0.0001160 0.0000810 -0.0001193 0.0000835 0.0000012 0.0005479 -0.0000801 -0.0000309 -0.0000408 0.0000808 0.0000811 0.0000556 0.0000046 0.0000038 0.0000220 -0.0002017 -0.0000501 -0.0005201 -0.0000208 0.0000217 -0.0003192 -0.0011645 0.0002410 0.0007739 0.0002679 0.0010203 0.0003353 0.0008790 0.0006895 -0.0004702 -0.0000165 0.0001509 0.0000983 0.0003952 -0.0001678 0.0003742 -0.0004996 0.0006951 -0.0002325 0.0017521 -0.0000889 0.0000117 0.0000575 0.0003275 -0.0000295 0.0001817 -0.0000466 0.0005979 -0.0000857 0.0004182 0.0000135 0.0001853 -0.0001459 0.0000336 -0.0000077 -0.0003062 -0.0002318 0.0003848 -0.0000893 0.0001446 -0.0038473 0.0040871 -0.0035058 0.0063280 0.0013761 -0.0053681 0.0000780 0.0002650 0.0001464 0.0001774 0.0024100 0.0003415 -0.0012266 0.0005284 0.0000631 0.0001273 -0.0003027 -0.0006285 0.0007091 -0.0001551 -0.0001370 0.0007506 -0.0021401 -0.0007940 0.0011852 -0.0004904 -0.0001249 -0.0003523 -0.0001132 -0.0009534 -0.0001806 0.0000290 -0.0002553 0.0004029 -0.0000037 0.0006610 0.0072094 -0.0050591 0.0029432 0.0030539 0.0000271 0.0011158 -0.0003499 0.0004502 -0.0000147 0.0001279 0.0000314 0.0001227 -0.0002004 0.0000955 -0.0000621 -0.0003741 0.0008934 -0.0005994 0.0014852 -0.0011676 0.0004068 0.0000021 0.0004108 0.0002010 0.0000656 0.0002950 -0.0058393 -0.0080186 -0.0000138 -0.0001047 -0.0002685 0.0012226 -0.0001796 -0.0002075 0.0000332 0.0000571 0.0002010 0.0001692 -0.0002740 0.0001195 -0.0000034 0.0004595 -0.0013956 0.0000821 0.0001474 -0.0009674 0.0000587 -0.0002796 -0.0015696 0.0007800 -0.0000671 -0.0002222 -0.0003688 0.0000785 -0.0000549 0.0004471 -0.0008656 0.0006247 -0.0000495 0.0007683 -0.0001731 0.0004025 0.0000492 0.0001817 -0.0001289 0.0003757 0.0049304 -0.0059540 0.0001935 0.0006466 0.0001645 0.0002936 -0.0001012 0.0002365 0.0002769 -0.0004764 -0.0019507 0.0018480 -0.0007177 0.0068808 -0.0000489 0.0006658 -0.0001040 0.0003025 -0.0001647 0.0001987 0.0070097 -0.0063293 -0.0000614 0.0004381 -0.0001962 0.0000619 0.0002333 0.0001331 0.0019026 -0.0060905 -0.0000673 -0.0000328 0.0000734 -0.0008743 -0.0002278 0.0003176 -0.0000566 0.0000241 -0.0000901 0.0001727 -0.0002344 -0.0000206 -0.0000335 -0.0010685
0.0000699 -0.0000794 -0.0000855 0.0000527 -0.0000116 0.0000785 -0.0000639 -0.0000492 -0.0000421 -0.0008528 -0.0000795 0.0000659 -0.0001007 0.0000262 -0.0000182 0.0002168 -0.0000417 -0.0001232 0.0000384 -0.0000114 0.0000597 0.0000387 0.0000007 -0.0000213 -0.0000146 -0.0001922 0.0000617 -0.0004195 0.0000323 -0.0000794 -0.0002913 -0.0008910 0.0002645 0.0006596 0.0003650 0.0008707 0.0002862 0.0006392 0.0007818 -0.0003430 -0.0000127 0.0001271 0.0001192 0.0004440 0.0000381 0.0002516 -0.0005214 0.0005356 -0.0004229 0.0017288 -0.0001107 0.0000742 0.0000334 0.0003372 -0.0000642 0.0001762 -0.0000674 0.0006742 -0.0001100 0.0004919 -0.0000185 0.0002307 0.0000218 -0.0001153 0.0000177 -0.0002241 -0.0002786 0.0004920 0.0003671 -0.0003976 -0.0046877 0.0049844 -0.0083800 0.0076328 -0.0087381 -0.0058353 0.0001643 0.0005018 0.0001860 0.0002900 0.0010524 0.0018717 0.0023477 -0.0018902 0.0000188 0.0001868 -0.0013223 0.0001591 0.0001677 0.0004462 -0.0001885 0.0007153 -0.0026572 0.0015661 -0.0035489 0.0022586 -0.0000934 -0.0004135 0.0005265 -0.0014464 -0.0006550 0.0000644 -0.0000239 -0.0000015 -0.0000436 0.0006819 0.0106348 -0.0079065 -0.0016455 0.0013159 -0.0000686 0.0013971 -0.0003477 0.0005908 -0.0003179 0.0001912 0.0000394 0.0002992 -0.0001221 0.0001826 -0.0000552 -0.0002375 -0.0008539 0.0004924 -0.0001657 0.0001233 0.0001963 0.0002672 0.0003114 0.0003341 0.0001367 0.0002241 -0.0032012 0.0009033 -0.0000083 0.0001224 0.0014099 0.0012419 0.0000509 -0.0000857 -0.0000011 0.0002280 0.0002603 0.0002597 -0.0001196 0.0003325 -0.0001071 0.0007407 -0.0006795 0.0009149 0.0000329 -0.0005393 -0.0001078 -0.0000248 0.0072611 -0.0004135 -0.0000122 -0.0001545 -0.0008044 0.0007159 -0.0000367 0.0005297 -0.0009825 0.0015533 -0.0000331 0.0008414 -0.0002123 0.0004660 0.0001140 0.0002796 -0.0000247 0.0004081 -0.0083292 0.0042789 -0.0001139 0.0008260 0.0001261 0.0004183 -0.0001537 0.0003020 0.0002227 -0.0004992 -0.0002581 0.0017929 0.0064679 -0.0034436 -0.0000485 0.0003824 -0.0001194 0.0002608 -0.0001327 0.0003273 0.0045713 -0.0031971 -0.0001257 0.0007528 -0.0001407 0.0001268 -0.0000134 0.0005129 0.0011572 -0.0007133 -0.0001980 0.0000616 -0.0013710 0.0014562 -0.0002026 0.0002651 -0.0001766 0.0001555 -0.0000759 0.0001682 -0.0002065 -0.0000175 -0.0000410 -0.0011983
0.0000807 -0.0000992 -0.0000740 0.0000985 0.0000098 0.0001071 -0.0000814 -0.0001600 -0.0000307 -0.0008537 -0.0000132 0.0001015 -0.0000899 0.0000599 -0.0000474 -0.0000009 0.0000286 -0.0001317 0.0000003 -0.0000230 0.0000552 -0.0000028 0.0000013 0.0000078 -0.0000104 -0.0001961 0.0001810 -0.0002920 0.0001039 -0.0001186 -0.0002868 -0.0006319 0.0002511 0.0005887 0.0003700 0.0007268 0.0002562 0.0004620 0.0008231 -0.0000653 -0.0000323 0.0000272 0.0002429 0.0004526 0.0004046 -0.0001953 -0.0004109 0.0005116 -0.0004502 0.0015011 -0.0001156 0.0000803 0.0000327 0.0002995 -0.0000919 -0.0000522 -0.0000716 0.0005471 -0.0001064 0.0003286 -0.0000520 0.0001349 0.0001607 -0.0001228 0.0000935 -0.0002707 -0.0002255 0.0004344 0.0000416 -0.0004427 0.0038647 -0.0023415 -0.0157243 0.0173430 -0.0241290 0.0159844 0.0000502 0.0003810 -0.0000485 0.0003151 -0.0031664 0.0075978 0.0026440 -0.0020397 0.0000086 0.0000851 -0.0008308 0.0003680 -0.0000378 0.0004905 -0.0000810 0.0005591 -0.0042417 0.0029071 -0.0006153 -0.0021628 -0.0000484 -0.0004171 0.0006844 -0.0005129 0.0001471 0.0000840 -0.0000285 -0.0001322 -0.0001143 0.0004555 0.0080085 -0.0014460 0.0008046 -0.0053137 0.0000649 0.0012045 -0.0001944 0.0006546 0.0006856 -0.0000633 0.0000155 0.0004508 0.0001130 -0.0000912 -0.0000427 -0.0003619 -0.0010860 0.0007430 -0.0000932 0.0000312 0.0001781 0.0002811 0.0003924 0.0003538 0.0000955 0.0004190 -0.0029241 0.0077986 0.0000019 0.0003085 0.0001021 0.0012928 0.0001335 0.0000932 0.0000354 0.0001997 0.0003387 0.0003930 -0.0000715 0.0005182 -0.0000622 0.0005401 0.0007641 -0.0001937 -0.0000262 -0.0003663 -0.0001359 -0.0001123 0.0068993 0.0029216 -0.0000494 0.0000253 -0.0011814 0.0011932 0.0000401 0.0005016 -0.0005170 0.0020364 -0.0000470 0.0010736 -0.0001636 0.0004417 0.0002301 0.0000750 0.0001580 0.0004949 -0.0073882 0.0001446 0.0003694 0.0010156 -0.0001249 0.0008810 -0.0001335 0.0002555 -0.0020347 0.0012256 0.0004705 0.0004009 0.0084816 -0.0097621 0.0003574 0.0001351 -0.0001300 0.0001197 0.0000863 0.0001378 0.0054466 -0.0040667 -0.0003716 0.0009591 -0.0001290 0.0003004 -0.0001652 0.0003197 -0.0001079 -0.0013450 -0.0001453 0.0000760 -0.0013160 0.0025191 -0.0001779 0.0001987 0.0000225 0.0000043 -0.0001647 0.0003092 -0.0001505 -0.0000275 0.0000976 -0.0012218
0.0000689 -0.0000649 -0.0000374 0.0001473 0.0000023 0.0001840 -0.0000748 -0.0000993 -0.0000430 -0.0008578 0.0000354 0.0001855 -0.0000925 0.0000440 -0.0000547 -0.0000631 0.0000422 -0.0000649 -0.0000198 0.0000502 0.0000772 -0.0000501 0.0000067 0.0001199 0.0000719 -0.0001342 0.0002429 -0.0002612 0.0001443 0.0000139 -0.0003056 -0.0000949 0.0003005 0.0006717 0.0002174 0.0008186 0.0002514 0.0005005 0.0003489 0.0006299 -0.0000410 0.0000762 0.0003698 0.0007344 -0.0000330 0.0002933 -0.0002876 0.0006264 -0.0003209 0.0013803 -0.0000958 0.0001670 0.0000302 0.0003727 -0.0000988 0.0001104 -0.0000805 0.0007196 -0.0000822 0.0004812 -0.0000872 0.0003133 -0.0000425 0.0000508 0.0000383 -0.0000787 -0.0001131 0.0005310 -0.0004532 0.0000562 -0.0021623 0.0023062 -0.0096979 0.0097810 -0.0103738 -0.0014557 0.0001916 0.0005521 -0.0003351 0.0006728 -0.0070330 0.0049255 -0.0003376 0.0019337 -0.0000053 0.0003134 -0.0002542 0.0003043 0.0002608 0.0004940 0.0001079 0.0006068 -0.0044120 0.0017587 0.0045988 -0.0047634 0.0001441 -0.0000997 -0.0011067 0.0011139 0.0006837 0.0002009 -0.0000658 0.0003556 -0.0001021 0.0003994 0.0002243 0.0037465 0.0039815 -0.0053628 0.0001012 0.0013441 0.0000826 0.0004963 0.0004080 0.0004930 -0.0000272 0.0006041 0.0000627 -0.0000623 -0.0001195 -0.0004519 0.0002330 0.0001060 0.0006183 -0.0007378 -0.0000458 0.0002757 0.0002028 0.0004789 0.0000542 0.0005551 -0.0084943 0.0064518 0.0001200 0.0002471 -0.0017592 0.0015803 0.0001854 0.0000658 0.0000364 0.0001188 0.0001987 0.0005438 -0.0001729 0.0005697 -0.0000574 0.0002997 0.0007841 -0.0002434 -0.0000119 -0.0002662 0.0000793 -0.0003168 -0.0079392 0.0098646 -0.0000501 0.0000420 -0.0005328 0.0007404 0.0000090 0.0004609 -0.0001045 0.0019013 -0.0000033 0.0009515 -0.0000687 0.0003145 0.0005096 0.0000634 0.0001161 0.0005456 -0.0012765 -0.0039449 -0.0000762 0.0016153 -0.0002757 0.0009974 -0.0001038 0.0001489 -0.0026131 0.0013909 0.0011046 -0.0008014 0.0072086 -0.0058432 0.0006791 -0.0001839 -0.0001401 -0.0000297 -0.0000079 -0.0000173 0.0055092 -0.0075737 -0.0005057 0.0009474 -0.0000837 0.0002598 -0.0002841 0.0002576 0.0014804 -0.0052291 -0.0001122 -0.0000237 -0.0010607 0.0009305 -0.0001870 0.0001131 0.0000919 -0.0001828 -0.0001012 0.0001955 -0.0001404 -0.0001188 0.0000960 -0.0012743
0.0000359 -0.0001329 -0.0000467 0.0001001 0.0000060 0.0001083 -0.0000815 -0.0000858 -0.0000434 -0.0009634 0.0000312 0.0002153 -0.0000950 -0.0000077 -0.0000331 -0.0001548 0.0000656 -0.0001025 -0.0000063 0.0000325 0.0000644 -0.0000653 0.0000159 0.0000454 0.0001059 -0.0001445 0.0002927 -0.0003483 0.0001991 0.0000452 -0.0003080 0.0003594 0.0003148 0.0006285 0.0002815 0.0006403 0.0002473 0.0004667 0.0001059 0.0012210 -0.0000217 0.0000363 0.0004053 0.0008866 -0.0005886 0.0006680 -0.0002571 0.0005696 -0.0002427 0.0014386 -0.0000828 0.0002092 0.0000014 0.0004604 -0.0001015 0.0002236 -0.0000890 0.0008436 -0.0000754 0.0005898 -0.0001099 0.0003998 -0.0003756 0.0004259 0.0000050 0.0000402 -0.0000780 0.0005653 0.0004145 -0.0008987 -0.0014367 0.0013329 0.0066905 -0.0121394 0.0103835 -0.0554724 0.0000421 0.0008197 -0.0003467 0.0008911 0.0006339 -0.0096628 -0.0014987 0.0036030 -0.0000274 0.0004448 0.0000681 0.0004511 -0.0001105 0.0009342 0.0000917 0.0005752 0.0007979 -0.0003378 0.0015512 0.0020858 0.0002527 -0.0001656 -0.0011115 0.0010626 -0.0001094 0.0007340 -0.0002415 0.0009172 -0.0000201 0.0002750 -0.0059722 -0.0022617 -0.0113352 0.0210407 0.0000142 0.0015875 0.0002103 0.0004544 -0.0004149 0.0011108 -0.0000441 0.0007654 -0.0000678 0.0001690 -0.0001757 -0.0002778 0.0002015 -0.0000674 0.0002211 -0.0003802 -0.0003306 0.0005490 0.0000593 0.0007326 -0.0000204 0.0007163 -0.0073450 0.0045758 0.0002106 0.0003398 0.0000112 0.0013955 -0.0000067 0.0002366 -0.0000823 0.0003758 -0.0000058 0.0007193 -0.0000274 0.0006385 -0.0000825 0.0003890 0.0005693 -0.0001620 0.0000525 -0.0000456 -0.0000605 -0.0001500 -0.0072046 0.0109424 -0.0000558 0.0001855 -0.0002430 0.0001991 -0.0000547 0.0005032 -0.0003269 0.0018036 0.0000599 0.0008631 -0.0002266 0.0004797 0.0000392 0.0006511 -0.0000241 0.0007807 0.0016236 -0.0006688 -0.0009982 0.0019114 -0.0003517 0.0011410 -0.0001146 0.0001742 -0.0032062 0.0021496 0.0017424 -0.0002910 0.0074523 -0.0024401 -0.0002099 0.0000780 -0.0001530 -0.0001403 -0.0002560 0.0002368 -0.0028028 0.0026943 -0.0001559 0.0005337 -0.0000811 0.0002398 0.0004337 -0.0003590 0.0001219 -0.0000046 0.0000457 -0.0002287 -0.0008093 -0.0001336 -0.0001960 0.0000909 -0.0001875 0.0001032 0.0000250 0.0000915 -0.0001200 0.0000147 -0.0000497 -0.0013829
0.0000219 -0.0001312 -0.0000467 0.0001234 0.0000019 0.0001238 -0.0000653 -0.0000682 -0.0000083 -0.0008962 0.0000119 0.0001831 -0.0000649 -0.0000026 -0.0000128 -0.0001695 0.0000924 -0.0001567 -0.0000470 0.0000541 0.0000329 -0.0000102 0.0000138 0.0000414 0.0001348 -0.0002234 0.0002657 -0.0003107 0.0002038 0.0000136 -0.0002632 0.0002442 0.0002903 0.0004694 0.0004770 0.0004359 0.0002404 0.0003671 0.0006807 0.0004372 -0.0000245 -0.0000675 0.0004301 0.0007771 -0.0003318 0.0003272 -0.0002173 0.0005191 -0.0004593 0.0013949 -0.0001206 0.0001889 -0.0000101 0.0004580 -0.0001213 0.0000954 -0.0001277 0.0007409 -0.0000932 0.0004260 -0.0001197 0.0002927 -0.0004403 0.0006356 0.0001011 0.0000053 -0.0001582 0.0005763 0.0007809 -0.0014888 0.0033072 -0.0020258 0.0051902 -0.0009629 0.0053590 -0.0132330 0.0007482 -0.0000370 -0.0003201 0.0007997 -0.0048568 -0.0012610 -0.0003468 0.0011957 -0.0000632 0.0003006 0.0010432 -0.0001214 -0.0004196 0.0006843 -0.0000096 0.0005020 0.0033166 -0.0000490 0.0002131 0.0031883 0.0000845 -0.0002198 0.0001439 0.0004022 -0.0002062 0.0010003 -0.0002099 0.0007831 -0.0001064 0.0001060 -0.0054292 -0.0023419 -0.0211464 0.0268079 -0.0001330 0.0016313 -0.0000984 0.0007409 -0.0000279 0.0006946 -0.0000730 0.0007797 0.0001333 -0.0000850 -0.0002046 -0.0002292 -0.0001041 -0.0009686 -0.0011237 0.0014316 -0.0003011 0.0007071 0.0002464 0.0007156 -0.0000314 0.0008815 0.0027307 -0.0004306 -0.0000008 0.0006050 -0.0002866 0.0020025 0.0000377 0.0002997 -0.0000297 0.0003300 0.0000657 0.0006233 0.0001612 0.0006453 -0.0001911 0.0004493 -0.0010634 0.0013518 -0.0001962 0.0001394 -0.0001412 -0.0001562 0.0075249 -0.0051158 -0.0000238 0.0003001 -0.0008353 0.0003904 -0.0000229 0.0003031 -0.0008687 0.0015116 0.0000515 0.0008062 -0.0003900 0.0006249 -0.0005460 0.0009644 -0.0000022 0.0008573 0.0084000 -0.0051872 -0.0007140 0.0013399 -0.0002982 0.0009752 -0.0000882 0.0001380 -0.0017803 0.0002480 0.0021105 -0.0014830 -0.0017293 0.0055259 0.0000892 -0.0004152 -0.0001708 -0.0004551 -0.0004152 0.0001775 -0.0030459 0.0049423 0.0001599 0.0001062 -0.0002074 0.0001055 0.0005140 -0.0006295 -0.0002442 0.0023041 0.0000032 -0.0003126 -0.0007611 0.0020105 -0.0001293 -0.0000701 -0.0003563 0.0001553 -0.0000590 0.0001678 -0.0001170 0.0001621 -0.0001453 -0.0008878
0.0000254 0.0000675 -0.0000488 0.0001844 -0.0000155 0.0002036 0.0000457 0.0002968 0.0000128 -0.0009449 -0.0000892 -0.0000482 -0.0000436 0.0000037 0.0001254 0.0003999 0.0000458 -0.0003329 0.0000016 0.0001702 0.0000061 0.0001197 0.0000180 0.0002267 0.0000523 -0.0000384 0.0000267 -0.0004595 0.0001450 0.0001954 -0.0001933 -0.0002765 0.0003281 0.0004148 0.0003978 0.0005971 0.0002605 0.0006274 0.0010445 -0.0005288 -0.0000438 0.0000471 0.0004074 0.0007507 -0.0002144 0.0002287 -0.0001733 0.0005784 -0.0009701 0.0014562 -0.0000783 0.0003242 -0.0000165 0.0005194 -0.0000330 0.0007257 -0.0001450 0.0009002 -0.0001234 0.0004889 -0.0001105 0.0005310 -0.0000652 0.0003526 0.0001068 0.0001446 -0.0000850 0.0005904 0.0008189 -0.0007001 0.0059397 -0.0031326 0.0025708 0.0063793 0.0055819 -0.0052663 0.0005697 -0.0000445 -0.0000014 0.0004572 -0.0130933 0.0094829 0.0003245 -0.0003297 -0.0000870 0.0002351 0.0003264 0.0005559 0.0002468 -0.0000717 0.0000699 0.0004120 0.0035020 -0.0006037 0.0027436 -0.0034531 0.0000530 -0.0002982 -0.0006198 0.0010420 0.0001287 0.0005347 -0.0000209 0.0003364 -0.0001984 0.0001410 -0.0037104 0.0033829 0.0018804 -0.0044036 -0.0002470 0.0016798 -0.0005490 0.0010057 0.0000706 0.0005297 -0.0001102 0.0006536 -0.0000658 -0.0000253 -0.0002349 -0.0002782 0.0004227 -0.0013991 -0.0007220 0.0011139 -0.0000836 0.0006253 0.0002896 0.0006462 0.0000883 0.0007719 -0.0021442 0.0035296 -0.0001046 0.0005374 -0.0024432 0.0031560 -0.0001905 0.0006222 -0.0000204 0.0002207 0.0000447 0.0006420 -0.0000188 0.0005456 -0.0002369 0.0004181 -0.0002475 0.0005940 -0.0005031 0.0001667 -0.0001110 -0.0000454 -0.0013329 0.0048689 0.0000293 0.0002624 -0.0011636 0.0001199 -0.0000379 0.0000945 -0.0002432 0.0004482 0.0000217 0.0004326 -0.0002316 0.0004039 -0.0003851 0.0008004 -0.0000457 0.0007798 0.0039059 -0.0033274 0.0002998 0.0002271 -0.0002302 0.0005334 -0.0001355 0.0001393 -0.0004508 -0.0001007 0.0010821 0.0002247 -0.0159596 0.0157527 0.0004285 -0.0003493 -0.0002669 -0.0007407 -0.0003137 -0.0001226 0.0018922 -0.0016142 0.0000497 -0.0001197 -0.0003152 -0.0001115 -0.0002632 -0.0000952 -0.0121798 0.0129484 -0.0001589 -0.0003983 0.0005378 -0.0004060 -0.0000711 -0.0003449 -0.0003679 -0.0001500 -0.0000188 -0.0000983 -0.0001260 0.0001065 -0.0001602 -0.0002838
0.0000212 0.0001410 -0.0000561 0.0001236 -0.0000302 0.0001312 0.0001261 0.0004898 0.0000395 -0.0009902 -0.0001649 -0.0002426 -0.0000392 0.0000009 0.0002230 0.0007130 -0.0000058 -0.0004763 0.0000081 0.0001649 0.0001548 0.0001163 0.0000054 0.0002539 -0.0001028 0.0001565 -0.0001741 -0.0006454 0.0001004 0.0003346 -0.0001161 -0.0006352 0.0003252 0.0002584 0.0003487 0.0005665 0.0002678 0.0007791 0.0014320 -0.0004903 -0.0000500 0.0000724 0.0002717 0.0007495 0.0000835 -0.0000029 -0.0001516 0.0005981 -0.0006648 0.0009165 0.0000224 0.0004546 -0.0000167 0.0005515 0.0000580 0.0011804 -0.0001439 0.0009826 -0.0001293 0.0004828 -0.0000796 0.0006649 -0.0000123 0.0003217 0.0000314 0.0002781 0.0000826 0.0003919 0.0001193 0.0005257 0.0072498 -0.0041687 0.0036979 0.0017292 -0.0060805 -0.0000873 -0.0007139 0.0009093 0.0003731 0.0001737 -0.0042095 0.0010603 0.0013096 -0.0012597 -0.0000801 0.0002273 0.0001964 0.0008538 0.0005723 -0.0000786 0.0000285 0.0004274 0.0010085 -0.0007518 0.0013881 -0.0002274 0.0002288 -0.0006238 -0.0007728 0.0008400 0.0001105 0.0005594 -0.0000732 0.0001669 -0.0002045 0.0001531 -0.0043176 0.0157193 0.0106035 -0.0187284 -0.0001831 0.0016422 -0.0005657 0.0011023 -0.0004441 0.0009031 -0.0001192 0.0006804 -0.0003179 0.0002267 -0.0001355 -0.0002520 0.0001056 -0.0002747 0.0007908 -0.0002972 -0.0003797 0.0009864 0.0003045 0.0007907 0.0000749 0.0009413 -0.0136656 0.0115799 0.0000886 0.0004129 -0.0011800 0.0017283 -0.0004293 0.0008211 -0.0001048 0.0003842 0.0000646 0.0006733 -0.0001936 0.0005718 -0.0000935 0.0003372 -0.0001160 0.0003465 -0.0003830 0.0000504 -0.0001069 -0.0000052 -0.0200824 0.0241650 0.0000235 0.0003469 -0.0005481 -0.0004795 -0.0001127 0.0000644 -0.0007528 0.0006334 -0.0001082 0.0003280 -0.0000170 0.0001416 -0.0002055 0.0005388 0.0000132 0.0005659 -0.0093544 0.0110766 0.0004679 -0.0000563 0.0000575 0.0000222 -0.0001351 0.0000853 -0.0022732 0.0025047 -0.0018536 0.0025676 0.0003141 -0.0008021 0.0002922 -0.0002131 -0.0003008 -0.0009720 -0.0002400 -0.0002100 0.0017436 0.0010471 -0.0005399 0.0003004 -0.0002814 -0.0002915 0.0003662 -0.0004752 -0.0184161 0.0177865 -0.0001755 -0.0005418 -0.0017886 0.0003883 -0.0000859 -0.0004669 -0.0003381 -0.0002934 -0.0001204 -0.0001807 -0.0000809 -0.0000725 -0.0001950 0.0003293
0.0000335 0.0000398 -0.0000336 0.0000580 -0.0000183 0.0000489 0.0000785 0.0002713 0.0000861 -0.0007756 -0.0000738 -0.0000620 -0.0000129 0.0000439 0.0001752 0.0004008 0.0000317 -0.0003930 -0.0000163 0.0000367 0.0001681 0.0000923 0.0000492 0.0000588 -0.0001283 0.0001524 -0.0000725 -0.0003816 0.0000961 0.0003056 -0.0000953 -0.0003887 0.0002590 0.0002980 0.0003168 0.0004445 0.0002524 0.0006899 0.0013200 -0.0003345 -0.0000448 -0.0001163 0.0001935 0.0006709 0.0001640 -0.0002627 -0.0002073 0.0005572 -0.0007105 0.0007415 0.0000567 0.0005081 -0.0000064 0.0005699 0.0000120 0.0007270 -0.0001349 0.0008766 -0.0000832 0.0003148 -0.0000634 0.0004017 -0.0002237 0.0005037 0.0000495 0.0001902 0.0000702 0.0002867 -0.0000481 -0.0000752 -0.0019487 0.0019102 -0.0045272 0.0065867 -0.0167774 0.0152108 -0.0001387 0.0004772 0.0002932 0.0000904 -0.0036610 0.0034597 0.0020891 -0.0022139 -0.0000541 0.0001262 0.0017938 -0.0002007 0.0003698 0.0000347 -0.0000104 0.0003101 -0.0014106 0.0015504 -0.0026238 0.0038109 0.0000582 -0.0004614 0.0004908 -0.0005830 0.0002678 0.0005635 -0.0000715 0.0001256 -0.0001810 0.0000369 0.0030912 0.0101672 -0.0006120 -0.0080331 -0.0002580 0.0015784 -0.0002739 0.0009889 -0.0004389 0.0007563 -0.0000961 0.0007022 -0.0002602 0.0001596 -0.0001413 -0.0000895 0.0011291 -0.0011483 0.0019035 -0.0012590 -0.0006661 0.0011990 0.0003860 0.0006792 0.0001590 0.0008991 -0.0067809 0.0010885 -0.0000089 0.0005186 -0.0015441 0.0018936 -0.0000784 0.0003676 -0.0001589 0.0004139 0.0002277 0.0004056 -0.0000887 0.0004517 -0.0000427 0.0002970 -0.0004201 0.0005846 -0.0002026 0.0000487 0.0000970 -0.0001420 0.0061949 -0.0113076 0.0000445 0.0003796 -0.0005932 -0.0000953 -0.0001463 0.0000402 -0.0005007 -0.0005448 -0.0001794 0.0002562 -0.0000951 0.0001815 -0.0004882 0.0005735 0.0000134 0.0004636 -0.0085230 0.0119036 0.0000626 0.0002370 0.0003913 -0.0005262 0.0000450 -0.0001546 -0.0014637 0.0019453 -0.0033544 0.0023374 0.0060903 -0.0064510 0.0002264 -0.0000667 -0.0002989 -0.0010113 -0.0001809 -0.0002839 0.0021272 0.0025926 -0.0006992 0.0004928 -0.0002657 -0.0002829 0.0006766 -0.0011763 -0.0075149 0.0086987 -0.0001898 -0.0004546 -0.0013950 0.0014033 -0.0000317 -0.0004460 -0.0002277 -0.0002743 -0.0002692 0.0000065 -0.0000572 -0.0000151 -0.0001899 0.0009287
0.0000226 0.0001657 -0.0000178 0.0001461 0.0000064 0.0001656 0.0000811 0.0004029 0.0000995 -0.0005702 0.0000075 0.0000915 0.0000179 0.0000753 0.0001873 0.0004577 0.0000892 -0.0002671 0.0000062 -0.0000100 0.0000479 0.0002036 0.0000793 0.0000259 -0.0000042 0.0000706 -0.0000188 -0.0002401 0.0000957 0.0004045 -0.0001161 -0.0002312 0.0002387 0.0003888 0.0002117 0.0004886 0.0002487 0.0007960 -0.0000606 0.0005384 -0.0000300 -0.0002283 0.0002663 0.0005840 -0.0000840 -0.0001294 -0.0002141 0.0005031 -0.0007805 0.0008335 0.0000267 0.0005512 0.0000015 0.0006454 -0.0000217 0.0004766 -0.0001425 0.0008131 -0.0000444 0.0002141 -0.0000591 0.0002331 -0.0000669 0.0003228 0.0000860 0.0000953 0.0000865 0.0002964 0.0008401 -0.0006223 -0.0031770 0.0022906 -0.0013432 -0.0068957 -0.0071419 0.0070505 0.0000995 0.0003269 0.0002178 -0.0001641 -0.0031200 0.0074742 -0.0008609 -0.0002661 -0.0000565 -0.0000638 0.0016163 -0.0001114 0.0000379 -0.0001135 0.0000115 -0.0000273 -0.0064908 0.0069465 -0.0042299 0.0034610 0.0000249 -0.0005302 -0.0000564 -0.0004266 -0.0000948 0.0008353 -0.0001442 0.0001472 -0.0001828 -0.0000851 0.0027487 -0.0059640 -0.0004167 -0.0058485 -0.0001911 0.0015473 -0.0002322 0.0009370 -0.0005401 0.0006626 -0.0000338 0.0004642 -0.0001012 -0.0001286 -0.0001427 -0.0001514 0.0010766 -0.0008078 -0.0000493 0.0006213 -0.0003106 0.0008377 0.0003509 0.0005382 0.0002241 0.0006668 -0.0012958 0.0020253 -0.0000209 0.0002591 -0.0033250 0.0031825 -0.0000951 0.0001727 -0.0000705 0.0001093 0.0001054 0.0002783 -0.0000716 0.0002737 -0.0000286 0.0000901 -0.0000779 -0.0002767 -0.0002235 0.0000916 -0.0000014 -0.0000476 0.0200649 -0.0442179 0.0001015 0.0002217 -0.0005698 -0.0002012 -0.0001149 -0.0000333 0.0004004 -0.0016671 -0.0001323 0.0000179 -0.0000495 0.0000573 -0.0001731 0.0002970 -0.0000699 0.0004114 -0.0051765 0.0054611 -0.0002195 0.0001371 0.0002357 -0.0003938 0.0001867 -0.0003298 0.0003038 -0.0001720 -0.0008348 0.0005675 -0.0010641 0.0039038 0.0001467 -0.0002813 -0.0002864 -0.0009868 -0.0002351 -0.0001120 -0.0011897 0.0061547 -0.0003733 0.0003022 -0.0002125 -0.0003074 -0.0001796 -0.0005200 0.0027110 -0.0013813 -0.0001535 -0.0003998 0.0034344 -0.0033855 -0.0000090 -0.0004148 -0.0001614 -0.0001683 -0.0001564 -0.0001230 -0.0000291 0.0000133 -0.0002225 0.0010752
0.0000200 0.0002064 -0.0000117 0.0001485 0.0000260 0.0001821 0.0001153 0.0005557 0.0001140 -0.0004590 0.0000726 0.0000716 0.0000307 0.0000636 0.0002177 0.0005718 0.0000839 -0.0001800 -0.0000059 -0.0000183 0.0001617 0.0001156 0.0000634 0.0000552 0.0001181 0.0000082 -0.0000586 -0.0002503 0.0000946 0.0004981 -0.0001077 -0.0002507 0.0002173 0.0004582 0.0001356 0.0005722 0.0002500 0.0009569 -0.0005524 0.0010786 -0.0000101 -0.0002038 0.0002507 0.0005925 -0.0001386 -0.0000715 -0.0001662 0.0005319 -0.0007313 0.0009297 0.0000190 0.0005887 -0.0000191 0.0007576 -0.0000085 0.0006453 -0.0001552 0.0008801 0.0000050 0.0002683 -0.0000408 0.0002986 0.0002424 0.0000181 0.0000210 0.0002132 0.0001864 0.0002331 -0.0005943 0.0016506 0.0035611 -0.0020001 0.0082452 -0.0341047 0.0042348 -0.0050356 -0.0001130 0.0003672 0.0002948 -0.0002064 -0.0000553 0.0040754 -0.0032632 0.0028348 -0.0000372 -0.0000128 0.0003375 0.0005007 -0.0003277 0.0001957 0.0000479 -0.0000288 -0.0076011 0.0082822 0.0055717 -0.0068998 -0.0000359 -0.0003804 -0.0003458 0.0001319 -0.0004053 0.0009369 -0.0002213 0.0001991 -0.0000667 -0.0000475 0.0015716 -0.0085584 0.0013950 -0.0007190 -0.0000997 0.0015546 -0.0003490 0.0010492 -0.0006513 0.0009138 -0.0000120 0.0003294 -0.0000734 -0.0001569 -0.0000295 -0.0002364 -0.0006481 0.0010325 -0.0015697 0.0023585 0.0001536 0.0005340 0.0002398 0.0005518 0.0001201 0.0006321 0.0046403 0.0009798 0.0001545 -0.0000791 -0.0003998 0.0008271 -0.0001966 0.0000530 -0.0000328 -0.0000541 0.0000020 0.0001693 -0.0002075 0.0002789 -0.0000377 -0.0001224 -0.0003340 0.0004844 -0.0000096 -0.0001881 -0.0000275 -0.0000707 0.0241321 -0.0566712 0.0000771 0.0000855 0.0002494 -0.0009485 -0.0000357 -0.0000984 -0.0000690 -0.0003865 -0.0000708 -0.0001323 0.0001128 -0.0001680 -0.0000189 0.0001500 -0.0001043 0.0002533 -0.0036978 -0.0015737 -0.0000478 -0.0001510 0.0001116 -0.0001320 0.0001627 -0.0003239 -0.0005918 -0.0000398 -0.0008083 0.0004988 -0.0045042 0.0075305 -0.0001354 -0.0003616 -0.0002155 -0.0009327 -0.0002734 -0.0002225 -0.0014377 0.0045434 0.0001788 -0.0003620 -0.0002260 -0.0002990 0.0001374 -0.0008529 0.0014080 -0.0021713 -0.0000800 -0.0004609 0.0022739 -0.0045318 -0.0001029 -0.0003567 -0.0001048 -0.0001444 -0.0001538 -0.0002450 0.0000051 -0.0001675 -0.0003596 0.0011713
0.0000495 0.0000280 -0.0000309 0.0000140 0.0000341 0.0000217 0.0001139 0.0004361 0.0001272 -0.0005214 0.0001099 0.0000894 0.0000152 0.0000278 0.0002154 0.0004175 0.0000544 -0.0001853 -0.0000076 -0.0001132 0.0001495 -0.0000206 0.0000537 -0.0000713 0.0000995 -0.0000413 -0.0000307 -0.0001752 0.0000926 0.0005063 -0.0000858 -0.0001476 0.0002585 0.0005309 0.0001326 0.0005915 0.0002493 0.0009444 0.0003292 0.0002986 0.0000072 -0.0002648 0.0001366 0.0006466 0.0002207 -0.0002410 -0.0001278 0.0005641 -0.0009890 0.0010636 0.0000143 0.0006062 -0.0000203 0.0007856 0.0000077 0.0006742 -0.0001697 0.0009198 0.0000500 0.0002670 -0.0000175 0.0002877 0.0000925 0.0000583 -0.0000116 0.0002569 0.0002240 0.0001010 -0.0015967 0.0017341 0.0016562 -0.0001053 0.0078077 -0.0198936 -0.0039346 0.0092916 0.0002136 0.0003319 0.0002096 -0.0000126 -0.0124370 0.0129599 -0.0008102 0.0014661 0.0000353 0.0000106 0.0002462 0.0005733 -0.0003238 0.0005636 0.0000745 0.0000807 -0.0015059 0.0037609 0.0011449 -0.0029447 -0.0003898 0.0000498 0.0009239 -0.0006862 -0.0002067 0.0006108 -0.0001063 0.0001061 -0.0000162 0.0000368 0.0002575 0.0096504 -0.0011541 -0.0011690 -0.0004194 0.0018237 -0.0002741 0.0011184 -0.0000420 0.0004352 0.0000207 0.0003619 -0.0001649 0.0000160 0.0000428 -0.0000948 -0.0008556 0.0010148 -0.0001964 0.0004354 0.0001438 0.0005400 0.0002928 0.0004617 0.0001463 0.0005784 0.0065873 -0.0034143 0.0002128 -0.0000007 0.0007187 0.0003778 -0.0002153 0.0001027 -0.0000015 0.0000043 0.0000634 0.0001139 -0.0001233 0.0002554 0.0000132 -0.0000582 -0.0001129 -0.0001424 0.0002054 -0.0002784 -0.0001625 0.0000884 0.0098188 -0.0227917 -0.0000208 0.0002124 0.0001448 -0.0008088 -0.0000299 -0.0000286 0.0005997 -0.0003380 -0.0000996 0.0000467 0.0000626 -0.0000931 -0.0003149 0.0002786 -0.0000928 0.0002566 0.0037935 -0.0075687 -0.0002807 -0.0000450 0.0001913 0.0000193 0.0000907 -0.0002100 0.0000578 -0.0000289 -0.0001812 0.0013402 -0.0030731 0.0051818 -0.0004969 0.0001373 -0.0002141 -0.0006871 -0.0001261 -0.0002441 0.0053640 -0.0020136 0.0003856 -0.0004213 -0.0001901 -0.0001582 0.0001737 -0.0009059 -0.0050405 0.0027487 -0.0001462 -0.0002795 0.0002749 -0.0022495 -0.0001375 -0.0002451 -0.0002255 0.0000981 -0.0001553 -0.0001945 -0.0000044 -0.0001576 -0.0002813 0.0011782
0.0000596 0.0000238 -0.0000400 0.0000088 0.0000453 0.0000432 0.0000992 0.0003851 0.0001193 -0.0004979 0.0001426 0.0001887 0.0000527 0.0000364 0.0002058 0.0003200 0.0000847 -0.0001051 -0.0000278 -0.0001910 -0.0000180 0.0000892 0.0000280 -0.0001485 0.0000413 -0.0000387 0.0000262 -0.0000564 0.0001138 0.0005415 -0.0000847 0.0000259 0.0002951 0.0004735 0.0001896 0.0005412 0.0002486 0.0008654 0.0003258 0.0006107 0.0000154 -0.0003593 0.0001034 0.0006019 0.0004022 -0.0003160 -0.0001214 0.0005001 -0.0007630 0.0006002 0.0000052 0.0005827 -0.0000148 0.0007617 -0.0000148 0.0004895 -0.0001900 0.0008260 0.0000731 0.0001248 0.0000066 0.0001104 -0.0002613 0.0003372 0.0000074 0.0001433 0.0001488 0.0000079 -0.0013514 0.0009785 0.0008635 0.0008958 -0.0000276 -0.0021514 0.0048572 -0.0026635 0.0008482 -0.0005243 0.0001841 -0.0000820 -0.0219227 0.0211999 -0.0000652 -0.0000969 0.0000652 -0.0001313 0.0003042 0.0002161 -0.0001387 0.0002945 0.0000107 0.0001087 0.0023067 -0.0013214 -0.0074788 0.0066135 -0.0002009 -0.0001486 -0.0004470 0.0001972 -0.0001920 0.0007360 0.0001777 -0.0000445 0.0000112 -0.0000717 -0.0077177 0.0203979 0.0061608 -0.0158644 -0.0007000 0.0021304 -0.0000712 0.0010196 0.0004039 -0.0002485 0.0000902 0.0002947 0.0000221 -0.0002352 0.0001101 -0.0000854 0.0002189 0.0001077 -0.0002727 -0.0002639 -0.0002175 0.0007623 0.0003289 0.0004183 0.0002314 0.0004800 -0.0073311 0.0095918 0.0002090 0.0000862 -0.0011554 0.0009152 -0.0001437 0.0002490 0.0000337 -0.0000438 0.0000315 0.0000954 0.0001565 -0.0000300 0.0001157 -0.0001052 -0.0004222 -0.0000270 0.0004221 -0.0004222 -0.0001875 0.0002165 -0.0011780 -0.0004716 0.0000150 0.0002653 -0.0011825 0.0004744 -0.0000344 0.0000456 0.0012879 -0.0015966 -0.0000660 0.0001521 0.0000572 -0.0000795 -0.0002342 0.0005045 -0.0000552 0.0001400 0.0095591 -0.0086453 -0.0001374 -0.0001761 0.0002297 0.0000880 0.0001005 -0.0001718 0.0002580 0.0004253 0.0013036 0.0009514 -0.0023158 0.0040923 -0.0003410 0.0001347 -0.0002383 -0.0005667 -0.0001867 0.0000610 0.0071602 -0.0020307 0.0003236 -0.0001094 -0.0000946 -0.0001697 0.0002185 0.0002813 -0.0072483 0.0086633 -0.0001328 -0.0001087 0.0009001 -0.0025540 -0.0001372 -0.0001291 -0.0002000 0.0001636 -0.0001838 -0.0000410 0.0000221 -0.0000532 -0.0003353 0.0011231
0.0000492 0.0001507 -0.0000138 0.0001104 0.0000694 0.0001674 0.0000829 0.0004112 0.0001131 -0.0003861 0.0001428 0.0003563 0.0000821 0.0001349 0.0001945 0.0003293 0.0000769 0.0001005 0.0000281 -0.0001471 -0.0000593 0.0002564 0.0000495 -0.0000352 0.0000211 0.0000764 0.0000655 0.0001160 0.0001223 0.0006061 -0.0000804 0.0003127 0.0001892 0.0006216 0.0001087 0.0007454 0.0002168 0.0008406 0.0003036 0.0012073 0.0000014 -0.0002152 0.0001056 0.0006980 0.0002800 -0.0001889 -0.0001435 0.0004420 -0.0005534 0.0005284 0.0000079 0.0006621 -0.0000332 0.0008104 -0.0000497 0.0006505 -0.0002136 0.0009808 0.0000863 0.0003210 -0.0000020 0.0003038 0.0000953 0.0001191 -0.0000074 0.0002319 0.0000241 0.0002839 -0.0003855 0.0016110 -0.0011798 0.0021800 -0.0047975 0.0046550 0.0112263 -0.0149639 0.0005584 -0.0002708 0.0002556 -0.0000354 -0.0058605 0.0070868 0.0007342 -0.0009922 0.0000800 0.0000789 0.0008246 0.0001745 -0.0000112 0.0002341 -0.0001310 0.0004572 -0.0019389 0.0023691 0.0028357 -0.0029563 0.0002543 -0.0001875 -0.0025478 0.0017234 0.0004268 0.0004177 0.0001939 0.0001266 0.0000677 0.0000794 -0.0139255 0.0154059 -0.0029484 -0.0013954 -0.0003997 0.0019552 -0.0000500 0.0009955 0.0004992 -0.0001691 0.0000821 0.0004285 0.0000032 -0.0001146 0.0000997 -0.0000258 0.0003884 0.0002819 0.0000716 -0.0004421 -0.0001762 0.0007963 0.0002356 0.0005965 0.0002096 0.0004797 -0.0065263 0.0077069 0.0001021 0.0001183 -0.0024776 0.0010427 -0.0002195 0.0004909 0.0000113 -0.0000567 -0.0001487 0.0002541 0.0000905 -0.0000034 0.0000922 -0.0001258 -0.0002057 0.0012745 0.0006626 -0.0006649 -0.0000558 0.0002790 -0.0046878 0.0043276 0.0000720 0.0001349 -0.0003887 -0.0003252 0.0000067 0.0000858 0.0010807 -0.0018000 -0.0000879 0.0003138 0.0001495 -0.0001645 -0.0000793 0.0005052 -0.0000341 0.0000546 0.0049520 -0.0040044 0.0004694 -0.0005469 0.0002625 0.0001337 0.0001144 -0.0001491 -0.0014610 0.0011621 -0.0007310 0.0010166 0.0008463 0.0030475 -0.0000783 0.0002085 -0.0002536 -0.0004829 -0.0002651 0.0002834 0.0071645 -0.0046223 0.0002154 -0.0000160 -0.0001224 -0.0000998 -0.0004008 0.0012115 -0.0047459 0.0094473 -0.0001390 -0.0000911 0.0019177 -0.0043552 -0.0001554 -0.0000635 -0.0001216 0.0000670 -0.0002516 0.0000407 0.0000486 -0.0000739 -0.0002397 0.0009698
0.0000413 0.0001585 -0.0000200 0.0001486 0.0000382 0.0002281 0.0000781 0.0004121 0.0001044 -0.0003766 0.0001338 0.0004662 0.0000457 0.0001841 0.0001972 0.0002892 0.0000578 0.0002005 0.0000662 -0.0000976 0.0000413 0.0001746 0.0000877 -0.0000322 0.0000250 0.0001238 0.0000573 0.0000880 0.0001021 0.0006122 -0.0000725 0.0002667 0.0001959 0.0006671 0.0001233 0.0008034 0.0001983 0.0008555 -0.0000197 0.0008012 -0.0000071 -0.0001650 0.0000714 0.0007036 0.0003436 -0.0002492 -0.0001215 0.0003661 -0.0006779 0.0007099 -0.0000170 0.0007246 -0.0000238 0.0007751 -0.0000443 0.0007026 -0.0002247 0.0010272 0.0000738 0.0004339 -0.0000415 0.0004203 0.0003180 -0.0001582 -0.0000147 0.0003103 0.0000994 0.0002193 0.0000490 0.0012821 0.0007954 0.0001954 -0.0047659 0.0037369 0.0021429 -0.0057648 -0.0001977 0.0005782 0.0002389 -0.0000552 0.0001098 -0.0014082 -0.0018211 0.0015693 0.0000822 0.0002621 0.0011867 0.0002529 -0.0001168 0.0004231 -0.0000885 0.0004873 -0.0043473 0.0052661 0.0052507 -0.0056322 0.0000522 0.0002254 -0.0006709 0.0008162 0.0003613 0.0005310 0.0000622 0.0003176 0.0000061 0.0003585 -0.0112200 0.0088559 -0.0235686 0.0188172 -0.0002074 0.0019151 -0.0004849 0.0014381 -0.0001769 0.0002091 0.0000349 0.0005756 -0.0001890 0.0001694 0.0000684 0.0000598 -0.0000580 0.0000944 0.0005397 -0.0005722 -0.0000922 0.0007878 0.0002683 0.0006383 0.0002189 0.0005032 0.0029447 -0.0007972 0.0001450 0.0002022 -0.0014482 0.0011549 0.0000373 0.0004342 0.0001108 -0.0000083 -0.0001184 0.0003583 0.0000630 0.0001862 0.0001315 -0.0000047 -0.0000018 0.0015999 0.0003448 -0.0002275 -0.0001834 0.0004456 -0.0141238 0.0120804 0.0000274 0.0002169 0.0007478 -0.0007731 0.0000132 0.0001912 0.0001634 -0.0003933 -0.0001371 0.0006291 0.0000955 -0.0000258 0.0000259 0.0000360 -0.0000936 0.0002462 -0.0033465 0.0048536 0.0003352 -0.0003640 0.0000415 0.0004269 0.0000042 0.0000314 -0.0009328 0.0006156 0.0001249 0.0017794 -0.0059001 0.0078325 0.0000429 0.0003081 -0.0002356 -0.0003514 -0.0003143 0.0004534 0.0050308 -0.0045168 -0.0001309 0.0005839 -0.0001479 0.0000478 -0.0009831 0.0013878 0.0009663 0.0023919 -0.0001386 -0.0000428 -0.0000635 -0.0000957 -0.0001285 -0.0000386 -0.0002048 0.0001273 -0.0002178 0.0000708 0.0000481 -0.0000020 -0.0000974 0.0008665
0.0000193 0.0002731 -0.0000110 0.0002547 0.0000142 0.0003924 0.0000486 0.0004397 0.0000937 -0.0003145 0.0001301 0.0006459 0.0000078 0.0003228 0.0001912 0.0003441 0.0000356 0.0003197 -0.0000134 0.0000733 0.0000983 0.0002183 0.0001076 0.0000766 0.0000621 0.0002154 0.0000345 0.0001316 0.0001004 0.0006347 -0.0000739 0.0001024 0.0002089 0.0006820 0.0002059 0.0008057 0.0001991 0.0008875 -0.0000574 0.0005666 -0.0000237 -0.0000796 0.0000909 0.0006610 0.0000367 0.0001289 -0.0001071 0.0003430 -0.0007526 0.0006465 -0.0000483 0.0007279 -0.0000148 0.0007139 -0.0000697 0.0005412 -0.0002275 0.0009017 0.0000351 0.0003812 -0.0000672 0.0003196 -0.0001883 0.0002455 -0.0000521 0.0003176 0.0002458 0.0000779 0.0001894 0.0005807 0.0006906 0.0011956 0.0026090 -0.0179342 0.0029565 -0.0081095 0.0002177 -0.0000431 0.0003056 -0.0001719 -0.0005872 0.0019752 -0.0036160 0.0035809 0.0000622 0.0002201 0.0005949 0.0002617 -0.0000933 0.0003595 0.0000323 0.0003773 0.0026044 -0.0037301 0.0005651 -0.0003046 0.0000084 0.0002739 0.0001996 0.0007720 0.0000281 0.0009126 -0.0002073 0.0006841 0.0000205 0.0003351 0.0040679 0.0035357 -0.0006869 0.0035223 -0.0002702 0.0019037 -0.0007139 0.0016381 -0.0005809 0.0004025 0.0000574 0.0004477 -0.0002720 0.0000908 0.0000501 -0.0000382 -0.0002267 -0.0007192 0.0013041 -0.0011666 -0.0000067 0.0006738 0.0003081 0.0005613 0.0002123 0.0004975 0.0043497 -0.0016380 0.0001038 0.0002737 -0.0025771 0.0034678 0.0005319 -0.0001591 0.0000997 -0.0000250 0.0000380 0.0002939 0.0001251 0.0001546 0.0000771 0.0001017 0.0004708 0.0011329 -0.0000158 0.0003295 -0.0001979 0.0004719 -0.0070896 0.0061701 0.0000007 0.0002128 0.0004436 -0.0005113 -0.0000445 0.0002931 -0.0000650 0.0006280 -0.0000192 0.0006042 -0.0000988 0.0002399 -0.0004426 0.0008134 -0.0001718 0.0003428 -0.0054990 0.0053371 0.0000894 0.0002466 -0.0002191 0.0006929 -0.0001327 0.0002044 0.0000435 0.0001313 0.0017301 0.0010108 -0.0172441 0.0102902 0.0000548 0.0002812 -0.0002348 -0.0002758 -0.0003942 0.0004336 -0.0026904 0.0021050 -0.0002159 0.0009606 -0.0001705 0.0001308 -0.0004678 0.0009550 0.0000341 0.0025353 0.0000346 -0.0001205 -0.0032509 0.0039562 -0.0000238 -0.0002008 -0.0001163 0.0000413 -0.0002469 0.0001178 0.0000586 -0.0000060 -0.0002785 0.0009025
-0.0000065 0.0003308 -0.0000097 0.0003321 0.0000007 0.0004657 0.0000265 0.0004070 0.0000834 -0.0003389 0.0000946 0.0006737 -0.0000399 0.0004110 0.0001831 0.0003444 0.0000323 0.0003558 -0.0000238 0.0001668 0.0000846 0.0003038 0.0001005 0.0002065 0.0000768 0.0002567 0.0000180 0.0000980 0.0000914 0.0006127 -0.0000449 0.0001273 0.0000335 0.0008877 0.0001933 0.0007852 0.0001426 0.0007091 -0.0006788 0.0017012 -0.0000114 0.0000565 0.0001453 0.0006308 -0.0000530 0.0002593 -0.0001230 0.0002521 -0.0007787 0.0007145 -0.0000594 0.0007043 -0.0000184 0.0006966 -0.0000721 0.0007612 -0.0002625 0.0009932 -0.0000145 0.0005552 -0.0000730 0.0004813 -0.0003934 0.0004419 -0.0000840 0.0004462 0.0002108 0.0003391 0.0003356 -0.0000173 -0.0000055 0.0022746 0.0283370 -0.0548284 0.0057806 -0.0188439 0.0006600 -0.0004824 0.0003154 0.0000351 -0.0051334 0.0063170 -0.0003238 0.0010561 0.0000470 0.0004121 0.0000288 0.0013463 0.0000658 0.0005787 -0.0000028 0.0007047 0.0042958 -0.0038088 0.0036688 -0.0032339 0.0004259 0.0001717 0.0000349 0.0011869 0.0003670 0.0006842 -0.0000542 0.0007194 0.0000645 0.0004112 0.0071484 -0.0085479 0.0053692 -0.0009393 -0.0003015 0.0020114 -0.0004681 0.0014388 -0.0000514 0.0005687 0.0000331 0.0005837 -0.0002347 0.0002256 -0.0001268 0.0002548 -0.0002772 0.0000642 0.0006491 -0.0000466 0.0002953 0.0004956 0.0002330 0.0006896 0.0001843 0.0005274 -0.0006809 0.0040413 0.0000425 0.0005120 -0.0020555 0.0026737 0.0006076 -0.0002263 -0.0000206 0.0002168 0.0000097 0.0004671 0.0000615 0.0004645 0.0000038 0.0003548 -0.0005627 0.0019661 0.0000410 0.0006287 -0.0000989 0.0005095 -0.0046842 0.0009962 -0.0000654 0.0002297 -0.0002575 -0.0001249 -0.0001235 0.0004697 0.0004171 0.0003565 -0.0000301 0.0008893 -0.0002965 0.0005442 -0.0003841 0.0011511 0.0000330 0.0004058 -0.0042890 0.0017223 0.0001903 0.0007760 -0.0001709 0.0008435 -0.0001370 0.0002827 -0.0001905 0.0000124 0.0005955 0.0008136 0.0037029 -0.0068732 0.0001965 0.0000903 -0.0002147 -0.0001831 -0.0002351 0.0004892 -0.0004019 0.0012856 -0.0002506 0.0009404 -0.0000524 0.0000567 -0.0002963 0.0007877 -0.0025707 0.0044667 -0.0000754 -0.0000012 -0.0031524 0.0017973 -0.0000474 -0.0001884 -0.0000978 0.0000244 -0.0002548 0.0000814 0.0000404 -0.0000783 -0.0002339 0.0007465
-0.0000023 0.0001859 -0.0000262 0.0002359 -0.0000244 0.0003568 0.0000156 0.0003150 0.0000586 -0.0004874 0.0000527 0.0005034 -0.0000689 0.0003325 0.0001848 0.0002248 0.0000422 0.0002159 -0.0000519 0.0001201 0.0000711 0.0002651 0.0000686 0.0001142 0.0001599 0.0000646 -0.0000041 -0.0001340 0.0000816 0.0005102 -0.0000167 0.0000486 0.0000022 0.0008850 0.0000890 0.0007295 0.0000961 0.0005165 -0.0013151 0.0018879 0.0000149 0.0000041 0.0001354 0.0004864 0.0000091 0.0001795 -0.0001279 0.0001041 -0.0009415 0.0006908 -0.0000535 0.0006050 -0.0000195 0.0006145 -0.0000608 0.0008483 -0.0003000 0.0010227 -0.0000406 0.0005803 -0.0000742 0.0005366 -0.0005193 0.0005955 -0.0000991 0.0004780 0.0001313 0.0004228 0.0006093 -0.0002420 0.0008057 0.0010473 0.0242689 -0.0355422 -0.0059740 0.0040236 0.0007764 -0.0005480 0.0001714 0.0001808 -0.0029900 0.0043156 0.0001610 -0.0002994 0.0000385 0.0005244 0.0007431 0.0010643 0.0001354 0.0006944 0.0000391 0.0007808 0.0053874 -0.0028280 0.0049132 -0.0052140 0.0005305 0.0002205 0.0001402 0.0014505 0.0002963 0.0008124 0.0004015 0.0003668 0.0000365 0.0004649 0.0067327 -0.0158568 0.0008121 0.0064956 -0.0000876 0.0018965 -0.0003555 0.0012826 -0.0000562 0.0008015 -0.0000122 0.0006729 0.0000197 0.0001251 -0.0001525 0.0003850 0.0004672 0.0000058 -0.0004724 0.0016094 0.0000407 0.0005907 0.0002426 0.0006812 0.0001757 0.0005041 -0.0097200 0.0087723 0.0000234 0.0006709 0.0009325 -0.0004581 0.0002416 0.0002027 -0.0001041 0.0003962 0.0001024 0.0003241 0.0000543 0.0005611 0.0000975 0.0003737 -0.0013787 0.0025588 -0.0000787 0.0008524 0.0000774 0.0003148 -0.0048253 0.0062214 -0.0001059 0.0003049 -0.0010147 0.0007670 -0.0000820 0.0004611 0.0001857 0.0001613 -0.0000637 0.0011807 -0.0003026 0.0006341 -0.0005640 0.0011516 0.0001340 0.0004863 -0.0101743 0.0089599 0.0000796 0.0009323 -0.0000447 0.0008708 -0.0001285 0.0003392 0.0003307 -0.0002609 -0.0005130 0.0010062 0.0043055 -0.0032550 0.0002144 0.0000531 -0.0002399 -0.0000993 -0.0001550 0.0005595 0.0026123 0.0014218 -0.0003321 0.0009820 0.0000037 0.0000188 0.0001895 0.0002804 -0.0001060 0.0010674 -0.0001480 0.0001634 -0.0047775 0.0032223 -0.0001078 -0.0000837 -0.0002314 0.0001920 -0.0002527 0.0001588 -0.0000137 0.0000488 -0.0001572 0.0007283
-0.0000187 0.0003444 -0.0000241 0.0003577 -0.0000470 0.0005212 -0.0000141 0.0003093 0.0000357 -0.0003949 0.0000199 0.0005980 -0.0000517 0.0004118 0.0001619 0.0002559 -0.0000083 0.0002942 -0.0000628 0.0002522 -0.0000900 0.0004535 0.0000622 0.0003067 0.0001382 0.0002278 -0.0000333 -0.0000487 0.0000844 0.0005199 -0.0000041 0.0000878 0.0000803 0.0007964 0.0000164 0.0009039 0.0000660 0.0005275 -0.0012492 0.0016987 0.0000048 0.0001670 0.0001377 0.0005631 0.0000220 0.0004161 -0.0001402 0.0001643 -0.0010922 0.0009524 -0.0000526 0.0006337 -0.0000350 0.0005979 -0.0001216 0.0009369 -0.0003195 0.0011245 -0.0000629 0.0007736 -0.0001022 0.0007106 -0.0006065 0.0008215 -0.0000925 0.0005550 -0.0000587 0.0006966 0.0001001 0.0004080 -0.0031795 0.0037465 0.0173825 -0.0252098 -0.0181127 0.0181394 0.0009449 -0.0002157 0.0000795 0.0004735 -0.0010584 0.0020387 -0.0008565 0.0004403 0.0000186 0.0006299 0.0009485 0.0004683 -0.0000294 0.0011176 0.0001139 0.0007551 0.0028429 -0.0016326 0.0011975 0.0002634 0.0001254 0.0007155 -0.0000057 0.0009641 0.0004173 0.0008582 0.0002660 0.0005503 0.0000024 0.0005595 0.0084171 -0.0194512 0.0073416 -0.0008543 -0.0002362 0.0016733 -0.0002537 0.0010980 -0.0004326 0.0009243 -0.0000270 0.0006375 0.0001223 -0.0000990 -0.0001367 0.0002999 -0.0001445 0.0001479 -0.0003426 0.0006341 -0.0004953 0.0008601 0.0002945 0.0005756 0.0001630 0.0004867 -0.0083070 0.0049485 -0.0000056 0.0006095 -0.0001316 -0.0000397 -0.0000273 0.0002928 -0.0001580 0.0002853 0.0001266 0.0002849 0.0001918 0.0003018 0.0000857 0.0003539 -0.0015715 0.0025573 -0.0001874 0.0007360 0.0000985 0.0003015 -0.0094336 0.0110436 -0.0000170 0.0001959 -0.0009446 0.0006474 -0.0000546 0.0003244 -0.0003835 0.0009296 -0.0000136 0.0010714 -0.0002709 0.0005839 -0.0006632 0.0013058 -0.0000880 0.0006948 -0.0032456 0.0030186 -0.0003131 0.0009134 0.0003513 0.0003204 -0.0002223 0.0004308 -0.0000592 0.0002268 -0.0025605 0.0023190 0.0023502 -0.0010026 -0.0000716 0.0005545 -0.0002930 -0.0001798 -0.0002259 0.0003588 -0.0019594 0.0059570 -0.0005704 0.0012329 -0.0000602 0.0000356 -0.0003310 0.0011249 -0.0010372 0.0023386 -0.0001258 0.0000411 -0.0031105 0.0024206 -0.0000923 -0.0002283 -0.0002040 0.0000331 -0.0002743 0.0001521 -0.0000209 -0.0000076 -0.0001251 0.0005051
-0.0000220 0.0003545 -0.0000237 0.0004053 -0.0000625 0.0005447 -0.0000132 0.0002162 0.0000249 -0.0003973 0.0000227 0.0005662 -0.0000507 0.0004449 0.0001557 0.0001906 -0.0000213 0.0002507 0.0000032 0.0002608 -0.0001045 0.0005168 0.0000942 0.0003619 0.0001202 0.0003195 -0.0000908 -0.0001057 0.0000672 0.0003895 0.0000277 -0.0001581 0.0000050 0.0006425 0.0001229 0.0007928 0.0000515 0.0004517 -0.0014691 0.0016640 0.0000120 0.0002547 0.0000950 0.0005578 0.0002892 0.0003055 -0.0001251 0.0001650 -0.0013464 0.0012247 -0.0000538 0.0006126 -0.0000440 0.0005650 -0.0001691 0.0009670 -0.0003310 0.0011379 -0.0000914 0.0009037 -0.0001293 0.0008100 -0.0001856 0.0005142 -0.0000690 0.0005675 -0.0000246 0.0007348 -0.0007616 0.0005470 -0.0056776 0.0059025 0.0028341 -0.0046575 -0.0032490 -0.0111997 0.0007836 0.0000817 -0.0000101 0.0007493 -0.0005868 -0.0029204 -0.0004152 0.0006962 0.0000070 0.0007602 0.0002427 0.0014356 0.0003854 0.0010606 0.0000674 0.0009132 -0.0018666 0.0019353 0.0043237 -0.0012898 -0.0001929 0.0011856 -0.0004032 0.0007598 0.0011968 0.0007411 0.0003990 0.0004988 -0.0000181 0.0006750 0.0071176 -0.0301397 0.0163000 -0.0265311 -0.0006334 0.0020665 -0.0003583 0.0011692 -0.0003888 0.0013634 -0.0000506 0.0007581 0.0000863 0.0000708 -0.0000900 0.0004044 -0.0007805 0.0006565 -0.0002261 -0.0005818 -0.0005388 0.0008380 0.0001794 0.0007809 0.0000845 0.0006177 0.0051677 -0.0076982 0.0000103 0.0007304 -0.0010245 -0.0000148 0.0000247 0.0004976 -0.0000912 0.0003659 0.0000459 0.0004800 0.0000649 0.0005859 -0.0001896 0.0005952 -0.0008171 0.0015781 -0.0001844 0.0008893 -0.0000989 0.0007059 -0.0106535 0.0036484 -0.0000199 0.0001117 -0.0003661 -0.0003189 -0.0000960 0.0004028 -0.0003042 0.0018880 0.0000744 0.0012087 -0.0002977 0.0006685 0.0002053 0.0010886 -0.0000963 0.0009283 0.0017383 0.0008459 -0.0002879 0.0010392 0.0002230 0.0005396 -0.0001721 0.0003897 0.0002371 -0.0013209 -0.0016023 0.0023096 0.0064286 -0.0031958 0.0000845 0.0005741 -0.0002170 0.0000235 -0.0002290 0.0005937 -0.0023799 0.0023164 -0.0002665 0.0011914 -0.0000945 0.0002530 -0.0006017 0.0018800 -0.0057579 0.0054806 -0.0002060 0.0003359 0.0002325 0.0001756 -0.0000991 -0.0000486 0.0000205 -0.0000276 -0.0003262 0.0002558 -0.0000310 -0.0000901 -0.0000923 0.0004875
-0.0000321 0.0003680 -0.0000360 0.0004339 -0.0000428 0.0005653 -0.0000617 0.0001409 0.0000208 -0.0004322 0.0000550 0.0006269 -0.0000779 0.0003915 0.0001303 -0.0000064 -0.0000387 0.0001472 -0.0000069 0.0001762 -0.0000245 0.0003046 0.0000801 0.0002259 0.0000968 0.0003128 -0.0000176 -0.0002791 0.0000389 0.0002099 -0.0000334 -0.0002292 -0.0001096 0.0005599 0.0001528 0.0006763 0.0000638 0.0004720 -0.0004737 0.0003407 0.0000176 0.0001926 -0.0000194 0.0004225 0.0002950 0.0001722 -0.0001568 0.0000065 -0.0008891 0.0008750 -0.0000384 0.0006050 -0.0000138 0.0006508 -0.0001723 0.0006409 -0.0003603 0.0008439 -0.0001213 0.0006588 -0.0001788 0.0005149 -0.0000722 0.0002113 -0.0000073 0.0004172 0.0000762 0.0006094 -0.0003317 0.0000887 0.0002524 0.0001299 -0.0241782 0.0279719 -0.0004982 -0.0183651 0.0001546 0.0002988 -0.0001092 0.0004661 -0.0014421 0.0031696 0.0010791 -0.0007541 0.0000397 0.0006915 0.0008655 0.0015876 0.0004536 0.0011633 0.0001118 0.0008506 -0.0008194 0.0007394 0.0068873 -0.0059578 -0.0000600 0.0013493 -0.0013768 0.0016018 0.0010935 0.0012404 0.0003137 0.0003879 -0.0000639 0.0006263 0.0078863 -0.0180216 -0.0043778 0.0014565 -0.0005928 0.0023140 -0.0003377 0.0011483 0.0006038 0.0009195 -0.0000659 0.0007262 0.0002559 0.0001023 -0.0000513 0.0004825 -0.0001698 -0.0002011 -0.0014505 0.0016298 0.0000105 0.0003477 0.0000858 0.0003743 0.0000483 0.0001837 0.0074051 -0.0055054 0.0000563 0.0006340 -0.0002565 0.0002999 -0.0001550 0.0008033 -0.0000335 0.0004368 -0.0000393 0.0003175 -0.0000938 0.0008355 -0.0001536 0.0006281 0.0005084 0.0001373 -0.0001951 0.0009476 -0.0000929 0.0010888 -0.0058329 -0.0074551 -0.0000440 0.0000282 -0.0004429 -0.0000417 -0.0000804 0.0004573 0.0000755 0.0017241 0.0000610 0.0013560 -0.0003401 0.0007680 0.0000871 0.0012603 -0.0001110 0.0007624 0.0013081 0.0014355 -0.0004627 0.0018940 -0.0000148 0.0011972 -0.0001861 0.0003768 0.0012622 -0.0015561 -0.0006512 0.0010572 0.0062443 -0.0070830 -0.0007775 0.0013091 -0.0000696 0.0004546 -0.0004840 0.0012682 -0.0022033 0.0014102 0.0001073 0.0008649 -0.0000854 0.0004218 -0.0009504 0.0020629 -0.0012491 0.0006434 -0.0001424 0.0007079 0.0006598 0.0012605 -0.0001265 0.0003470 0.0000047 0.0001669 -0.0002043 0.0004908 -0.0000357 0.0000133 -0.0000661 0.0001301
-0.0000693 0.0003704 -0.0000679 0.0004844 -0.0000663 0.0006246 -0.0001241 0.0001555 0.0000097 -0.0003873 0.0000496 0.0007487 -0.0001231 0.0003405 0.0000937 -0.0000501 -0.0000315 0.0000208 -0.0000092 0.0002353 -0.0000495 0.0000921 -0.0000437 0.0002599 0.0000137 0.0004578 0.0000693 -0.0003903 -0.0000007 0.0001069 -0.0001302 -0.0000764 -0.0002548 0.0007619 0.0000222 0.0007482 0.0000751 0.0007322 0.0001687 0.0002167 0.0000182 0.0003459 0.0000242 0.0004497 0.0001087 0.0001378 -0.0003095 -0.0001069 -0.0002102 0.0007707 -0.0000532 0.0006715 -0.0000034 0.0007653 -0.0001832 0.0006778 -0.0004526 0.0006589 -0.0001507 0.0006724 -0.0002273 0.0004363 -0.0002596 0.0003345 0.0000385 0.0004943 -0.0000613 0.0007476 -0.0008578 0.0011073 0.0043251 -0.0031438 -0.0209802 0.0294495 -0.0108950 0.0022801 -0.0000975 0.0006840 -0.0000463 0.0002174 -0.0037417 0.0112139 0.0009690 -0.0004875 0.0000158 0.0007110 0.0005972 0.0009832 -0.0003922 0.0018186 0.0000725 0.0008147 0.0001935 0.0020569 0.0049955 -0.0070100 0.0003006 0.0013257 -0.0013863 0.0021554 0.0007929 0.0004514 -0.0002678 -0.0001885 -0.0001053 0.0007101 -0.0011517 0.0023077 -0.0039521 0.0064282 -0.0006302 0.0024218 -0.0002380 0.0010470 0.0004811 0.0004569 -0.0001033 0.0006440 0.0001074 0.0002789 -0.0001305 0.0006461 -0.0006479 0.0010707 -0.0012604 0.0021549 0.0005055 0.0000794 -0.0000983 -0.0001479 -0.0000327 -0.0004782 -0.0044733 0.0065618 -0.0000371 0.0004846 -0.0013918 0.0023408 0.0000256 0.0005345 -0.0000644 0.0004345 -0.0000049 -0.0000654 0.0000751 0.0006150 0.0001072 0.0005285 0.0011345 -0.0003607 -0.0000688 0.0006989 0.0001290 0.0011749 -0.0008637 0.0007465 -0.0000757 -0.0000410 0.0000234 0.0006505 -0.0000284 0.0004576 -0.0006132 0.0025186 0.0000886 0.0013214 -0.0002695 0.0006746 -0.0001022 0.0012295 -0.0000354 0.0004581 0.0013119 -0.0008939 0.0001825 0.0014911 -0.0000188 0.0011891 -0.0002283 0.0004050 0.0013776 0.0000679 -0.0016437 0.0014747 0.0061186 -0.0083655 -0.0016884 0.0022060 0.0000773 0.0006605 -0.0002727 0.0010124 0.0013469 0.0027536 0.0003199 0.0003635 0.0000693 0.0002576 -0.0010067 0.0021177 -0.0047533 0.0076416 0.0001390 0.0007634 0.0014644 0.0002561 -0.0000937 0.0004169 -0.0000411 0.0002229 -0.0000545 0.0005598 0.0000076 -0.0000697 0.0001010 -0.0007419
-0.0000908 0.0001500 -0.0000688 0.0002929 -0.0001033 0.0003918 -0.0000854 0.0001558 -0.0000207 -0.0005441 -0.0000417 0.0005908 -0.0001303 0.0001795 0.0001196 -0.0000994 -0.0000611 -0.0002510 0.0000101 0.0001929 -0.0000592 -0.0000237 -0.0000619 0.0001256 -0.0000256 0.0004249 0.0000480 -0.0006011 -0.0000254 -0.0001218 -0.0001196 -0.0000688 -0.0002570 0.0006200 -0.0001339 0.0005982 0.0000277 0.0005084 -0.0006676 0.0009494 0.0000379 0.0003492 0.0000308 0.0003657 0.0003000 -0.0002000 -0.0004794 -0.0002415 -0.0004906 0.0013581 -0.0001122 0.0005409 -0.0000271 0.0006046 -0.0001993 0.0006932 -0.0005072 0.0004537 -0.0001572 0.0005719 -0.0002453 0.0002911 -0.0001796 0.0003279 0.0000414 0.0004411 -0.0001045 0.0005280 -0.0011475 0.0015097 0.0017375 -0.0005502 -0.0168583 0.0260230 -0.0136399 0.0186659 0.0004765 0.0003413 0.0001736 -0.0000026 0.0011846 0.0022301 -0.0003950 0.0001621 -0.0000599 0.0005954 -0.0003505 0.0000487 -0.0007879 0.0016175 -0.0000599 0.0006379 -0.0015823 0.0038243 0.0017388 -0.0024306 0.0002195 0.0012758 0.0010604 0.0001748 0.0002095 -0.0006464 -0.0005541 -0.0010319 -0.0000031 0.0006170 -0.0047526 0.0176204 0.0030265 -0.0069743 -0.0006634 0.0024173 -0.0002293 0.0009695 -0.0001092 0.0005170 -0.0001766 0.0006262 -0.0000696 0.0005194 -0.0000202 0.0007643 -0.0007440 0.0019396 0.0006021 -0.0004035 0.0004180 0.0002371 -0.0002510 -0.0002393 -0.0000669 -0.0007521 -0.0069677 0.0073720 0.0000092 0.0004434 -0.0007728 0.0011395 0.0000814 0.0004093 -0.0000135 0.0005495 0.0000550 -0.0002022 0.0001379 0.0005701 0.0000890 0.0006017 0.0007343 0.0003922 -0.0001829 0.0010896 0.0000411 0.0013657 0.0042385 0.0022318 -0.0000676 -0.0000916 0.0007930 0.0007517 0.0000278 0.0005453 -0.0001542 0.0022671 0.0000600 0.0012531 -0.0002754 0.0006761 0.0000418 0.0009968 0.0000215 0.0004975 -0.0075603 0.0077677 0.0002749 0.0010852 -0.0000090 0.0011511 -0.0001725 0.0003864 0.0014203 0.0006962 -0.0007438 0.0012741 0.0077666 -0.0026437 -0.0006185 0.0013372 0.0001804 0.0006245 -0.0001704 0.0009770 -0.0006376 0.0054356 0.0000820 0.0002972 0.0001031 0.0001601 -0.0000771 0.0010808 -0.0084319 0.0107754 0.0001924 0.0007432 0.0028848 -0.0018933 -0.0000364 0.0003591 -0.0000465 0.0002305 0.0000074 0.0005052 0.0000371 -0.0001526 0.0002837 -0.0006549
-0.0000971 0.0000231 -0.0000660 0.0000985 -0.0001060 0.0001877 -0.0000205 0.0001614 -0.0000530 -0.0007702 -0.0000603 0.0002017 -0.0001199 0.0000203 0.0001855 -0.0001008 -0.0000674 -0.0004941 -0.0000061 0.0000508 -0.0000846 -0.0001507 -0.0000694 -0.0000999 -0.0000758 0.0003301 0.0000560 -0.0008801 0.0000048 -0.0003035 -0.0001505 0.0000184 -0.0001883 0.0004064 -0.0001180 0.0001850 0.0000518 0.0003687 -0.0009768 0.0012316 0.0000327 0.0001067 0.0000008 0.0002231 0.0002243 -0.0004693 -0.0005481 -0.0003563 -0.0005351 0.0014976 -0.0001518 0.0003538 -0.0000630 0.0004040 -0.0001639 0.0004592 -0.0005003 0.0002672 -0.0001593 0.0002301 -0.0002707 -0.0000123 -0.0001020 0.0000617 0.0000147 0.0001771 -0.0001745 0.0002879 -0.0011069 0.0013382 -0.0000810 0.0008685 -0.0138357 0.0189623 -0.0148356 0.0177960 0.0007327 -0.0005737 -0.0001262 -0.0000657 -0.0016549 0.0032911 -0.0003101 0.0000344 -0.0000473 0.0002296 -0.0013113 0.0009829 -0.0004774 0.0008864 -0.0001319 0.0002706 -0.0002223 0.0022886 0.0001439 0.0009914 -0.0000191 0.0011663 0.0012450 -0.0004815 -0.0006895 -0.0004370 -0.0005397 -0.0010768 0.0000357 0.0003268 -0.0013572 0.0084928 0.0066984 -0.0073685 -0.0003890 0.0019840 -0.0000598 0.0007522 0.0003591 -0.0002617 -0.0002012 0.0004880 0.0000863 0.0001581 0.0000426 0.0006789 -0.0001653 0.0007420 0.0010224 -0.0001649 0.0001897 0.0002269 -0.0000306 -0.0005910 -0.0000679 -0.0007402 -0.0106670 0.0146390 0.0001704 0.0002213 -0.0032517 0.0021998 0.0000193 0.0003620 0.0000324 0.0004910 0.0000419 -0.0001652 -0.0000194 0.0007501 -0.0000015 0.0006334 0.0008573 0.0001628 -0.0000320 0.0010079 -0.0001945 0.0013864 0.0121942 -0.0243340 -0.0000121 -0.0000847 0.0006813 0.0012486 0.0000584 0.0005682 0.0008676 0.0003241 -0.0001317 0.0011319 -0.0002591 0.0006056 0.0001583 0.0008084 -0.0001595 0.0005576 -0.0071789 0.0059153 -0.0005481 0.0013705 -0.0000441 0.0012304 -0.0001712 0.0003246 0.0015429 -0.0000304 0.0001915 0.0015010 0.0074631 -0.0053512 0.0000345 0.0004805 0.0001748 0.0004710 -0.0000281 0.0008543 -0.0033121 0.0022582 -0.0003962 0.0007287 0.0001114 0.0001338 -0.0003429 0.0007442 -0.0001953 0.0020670 0.0001184 0.0005132 0.0007668 -0.0003764 -0.0000761 0.0003534 -0.0001101 0.0001522 0.0000160 0.0005701 0.0000404 0.0000095 0.0004335 -0.0006908
-0.0001043 -0.0000964 -0.0000717 0.0000215 -0.0001348 0.0001169 -0.0000001 0.0001081 -0.0001105 -0.0009089 -0.0000872 -0.0001227 -0.0001241 -0.0000795 0.0002127 -0.0000277 0.0000513 -0.0005197 0.0000191 -0.0000307 -0.0001520 -0.0001722 -0.0000847 -0.0001737 -0.0000855 0.0002577 0.0000606 -0.0011138 0.0000726 -0.0002592 -0.0002320 0.0000234 -0.0000456 0.0002613 -0.0000604 -0.0000166 0.0001425 0.0005335 -0.0005542 0.0012168 0.0000002 0.0000373 0.0001478 0.0004210 0.0002825 -0.0005655 -0.0003924 -0.0002164 -0.0000388 0.0012599 -0.0001287 0.0001205 -0.0001440 0.0001524 -0.0001887 0.0003794 -0.0005311 0.0002238 -0.0001807 0.0001477 -0.0002937 -0.0000556 0.0001243 -0.0002614 -0.0000330 0.0001266 -0.0000277 0.0001760 -0.0004569 0.0010378 0.0005471 0.0001763 -0.0030813 0.0043989 0.0025232 -0.0079294 0.0005004 -0.0008259 -0.0001741 -0.0000500 -0.0020114 0.0064256 -0.0006474 0.0011359 -0.0000355 0.0000175 0.0001755 -0.0001298 0.0004477 -0.0000537 -0.0001554 0.0001269 0.0035304 -0.0010165 -0.0009476 0.0019680 0.0000989 0.0009738 -0.0002003 0.0002584 -0.0009184 0.0000245 -0.0004826 -0.0009611 -0.0000052 0.0001565 0.0043614 -0.0089286 0.0123904 -0.0174642 -0.0001624 0.0016111 -0.0002803 0.0007891 -0.0001791 0.0005072 -0.0001426 0.0002979 0.0002638 -0.0002214 0.0000005 0.0004936 0.0000838 -0.0001300 0.0004795 -0.0001564 -0.0000129 0.0001691 -0.0000642 -0.0005530 -0.0001059 -0.0005305 -0.0200119 0.0253627 0.0002120 0.0000114 -0.0027725 0.0025461 0.0003283 0.0000578 0.0000147 0.0002643 0.0000014 -0.0000302 -0.0001272 0.0006410 -0.0000828 0.0005015 0.0001737 0.0005726 0.0002939 0.0004787 -0.0001743 0.0010434 0.0083797 -0.0298409 -0.0000150 -0.0000564 -0.0005350 0.0016398 0.0001095 0.0004506 0.0012044 -0.0007110 -0.0000504 0.0008996 -0.0001363 0.0003901 0.0001832 0.0007566 -0.0000757 0.0003255 -0.0028938 0.0023850 0.0001170 0.0003542 -0.0000121 0.0009531 -0.0001153 0.0001693 0.0003829 -0.0004032 0.0023135 -0.0006628 0.0032548 -0.0022128 -0.0002103 0.0005246 0.0001786 0.0002669 0.0002405 0.0002382 0.0028149 -0.0059919 -0.0003105 0.0008271 0.0001987 0.0000854 -0.0000237 0.0000904 0.0023991 -0.0003228 0.0002590 -0.0000038 -0.0019044 0.0029254 -0.0000337 0.0001455 0.0001839 -0.0001182 -0.0000007 0.0005220 0.0000837 -0.0001233 0.0003561 -0.0013493
-0.0000967 -0.0003650 -0.0000794 -0.0001297 -0.0001438 -0.0000962 0.0000154 -0.0000535 -0.0001633 -0.0011404 -0.0001048 -0.0004597 -0.0000921 -0.0003310 0.0002139 -0.0002507 0.0001170 -0.0005995 -0.0000149 -0.0001449 -0.0000401 -0.0003079 -0.0000609 -0.0003091 -0.0000369 0.0000650 0.0000270 -0.0014004 0.0001552 -0.0003630 -0.0002399 -0.0001590 0.0001371 -0.0002256 -0.0000978 -0.0001903 0.0001509 0.0002551 -0.0003875 0.0008148 -0.0000299 -0.0000417 0.0002348 0.0005676 0.0003930 -0.0005931 -0.0000763 -0.0000225 0.0002371 0.0008928 -0.0001199 -0.0001014 -0.0002006 -0.0001585 -0.0002243 0.0002817 -0.0005610 0.0001513 -0.0001471 0.0000475 -0.0002890 -0.0000832 0.0006130 -0.0007909 -0.0000840 0.0000753 0.0001000 -0.0001003 -0.0000432 0.0009010 0.0024336 -0.0012956 0.0004377 -0.0089259 0.0026481 -0.0063108 -0.0002792 -0.0000338 0.0001124 -0.0001468 0.0056006 -0.0043252 -0.0024365 0.0023962 -0.0000624 -0.0000073 -0.0000387 -0.0010081 0.0011496 -0.0006046 -0.0000853 0.0000764 0.0042578 -0.0028685 -0.0026445 0.0035410 0.0000848 0.0008296 0.0004138 0.0000587 -0.0010473 -0.0000170 -0.0003193 -0.0014267 -0.0001077 -0.0000952 -0.0046179 0.0080245 0.0136060 -0.0379317 -0.0003417 0.0017450 -0.0005159 0.0008191 0.0000131 0.0007296 -0.0000529 0.0002166 0.0001447 -0.0001762 -0.0000236 0.0004797 0.0002974 0.0000098 0.0003778 -0.0003515 -0.0001791 0.0002211 -0.0001466 -0.0002207 -0.0001003 -0.0002881 -0.0046687 0.0063966 0.0001724 0.0002377 0.0002860 0.0011646 0.0003256 0.0002988 0.0000009 0.0002778 -0.0000240 0.0002199 -0.0000230 0.0005897 0.0000196 0.0002968 -0.0012014 0.0019003 0.0003416 0.0004235 -0.0001830 0.0009037 0.0047074 -0.0103134 0.0000203 0.0000330 0.0000603 0.0006391 0.0001226 0.0004040 0.0002555 0.0004489 -0.0000061 0.0006982 -0.0001717 0.0003860 -0.0000831 0.0006499 0.0001374 0.0001698 0.0038439 -0.0075066 0.0001987 0.0002014 0.0004664 0.0002640 -0.0000234 0.0000345 0.0004005 -0.0009985 0.0004218 -0.0001857 -0.0002095 0.0063414 -0.0005776 0.0008375 0.0001879 -0.0001311 -0.0000443 0.0001043 0.0021621 -0.0029615 0.0002089 0.0000407 0.0002254 -0.0001144 0.0001969 -0.0005825 -0.0054664 0.0066379 0.0001128 -0.0005726 -0.0015830 0.0035385 0.0000296 -0.0002375 0.0003900 -0.0004464 0.0000328 0.0003048 0.0001572 -0.0003997 0.0000540 -0.0018273
-0.0000701 -0.0005978 -0.0000724 -0.0003752 -0.0001106 -0.0003850 0.0000435 -0.0002435 -0.0001874 -0.0014155 -0.0000702 -0.0008895 -0.0000447 -0.0006183 0.0002268 -0.0005488 0.0001131 -0.0008629 0.0000285 -0.0003634 0.0001935 -0.0005308 -0.0000575 -0.0004647 0.0000887 -0.0001568 -0.0000313 -0.0017880 0.0001959 -0.0006187 -0.0002307 -0.0004469 0.0002615 -0.0007128 0.0000356 -0.0006543 0.0001613 -0.0001774 0.0005194 -0.0006075 -0.0000235 -0.0003266 0.0003310 0.0004605 0.0000618 -0.0004526 0.0001680 -0.0000436 0.0004220 0.0002112 -0.0001435 -0.0002381 -0.0002247 -0.0004038 -0.0002002 0.0000782 -0.0005729 0.0000085 -0.0000984 -0.0002275 -0.0002715 -0.0002532 0.0000743 -0.0003852 -0.0000285 -0.0002070 0.0001767 -0.0005987 -0.0007430 0.0009774 0.0007266 0.0002250 0.0024079 -0.0162536 -0.0058960 -0.0007742 -0.0004131 0.0000902 0.0003665 -0.0006096 0.0053633 -0.0065325 -0.0007319 -0.0003540 -0.0000391 -0.0002159 -0.0013292 -0.0002564 0.0008122 -0.0001930 -0.0001090 -0.0001318 0.0022216 -0.0019284 -0.0031452 0.0028474 0.0000612 0.0004692 0.0005208 0.0004659 -0.0004683 -0.0009883 -0.0002698 -0.0018010 -0.0000885 -0.0005548 -0.0084298 0.0115761 0.0059056 -0.0388778 -0.0003453 0.0017519 -0.0005827 0.0006378 0.0011801 -0.0005570 -0.0000306 0.0000854 -0.0001161 -0.0002722 0.0000226 0.0003926 0.0007329 -0.0005895 0.0006914 -0.0003730 -0.0007040 0.0003387 0.0000525 -0.0002622 -0.0000904 -0.0002099 0.0060180 -0.0099436 0.0001359 0.0002235 0.0001744 -0.0008624 0.0002940 0.0000900 0.0000015 0.0001512 0.0000173 0.0001098 0.0000078 0.0006408 0.0000790 0.0000814 -0.0014142 0.0025309 0.0003215 0.0003359 -0.0002810 0.0006704 0.0025878 0.0027039 0.0000175 -0.0000117 -0.0000101 0.0006694 0.0001560 0.0002271 -0.0009204 0.0014778 -0.0000241 0.0005324 -0.0000870 0.0002246 -0.0005214 0.0010170 0.0001410 0.0001430 0.0113210 -0.0135394 -0.0005961 0.0009132 0.0004652 0.0001137 -0.0000139 -0.0000129 0.0003483 -0.0008659 -0.0020606 0.0011955 0.0018487 0.0035792 -0.0004969 0.0001884 0.0001130 -0.0003953 -0.0003084 0.0000562 -0.0001088 0.0016336 0.0000691 -0.0001020 0.0002156 -0.0002874 -0.0003220 -0.0006121 -0.0136235 0.0152653 -0.0000496 -0.0007304 0.0005689 0.0008477 0.0000581 -0.0004771 0.0002476 -0.0004141 0.0000883 0.0001781 0.0002188 -0.0004561 0.0000735 -0.0019532
-0.0000696 -0.0005430 -0.0000608 -0.0004422 -0.0000977 -0.0004622 0.0000492 -0.0002369 -0.0002005 -0.0014320 -0.0000673 -0.0010015 -0.0000196 -0.0007278 0.0002356 -0.0005534 0.0000926 -0.0010047 0.0000653 -0.0003567 0.0001759 -0.0004209 -0.0000210 -0.0003146 0.0000765 -0.0001304 -0.0001835 -0.0019809 0.0001268 -0.0006885 -0.0002025 -0.0009348 0.0002066 -0.0008070 0.0001545 -0.0008256 0.0001718 -0.0003492 0.0002286 -0.0004783 0.0000107 -0.0004047 0.0003441 0.0004056 0.0000302 -0.0004319 0.0002022 -0.0001969 0.0006693 -0.0002730 -0.0001345 -0.0002996 -0.0002708 -0.0005365 -0.0001947 -0.0000219 -0.0006009 -0.0001138 -0.0000867 -0.0004252 -0.0002907 -0.0003471 -0.0001193 -0.0002641 0.0000165 -0.0003374 0.0000461 -0.0007330 -0.0012524 0.0009271 -0.0026112 0.0021488 0.0092151 -0.0045859 -0.0055362 -0.0121622 -0.0002810 -0.0005324 0.0003787 -0.0009289 -0.0104578 0.0087489 0.0000386 -0.0013808 -0.0000424 -0.0004692 0.0006217 -0.0017166 -0.0003739 0.0005654 -0.0001053 -0.0004815 0.0005238 0.0013740 0.0015859 -0.0024019 -0.0000248 0.0002703 -0.0008050 0.0014174 0.0001176 -0.0017773 -0.0003821 -0.0018481 -0.0000486 -0.0009121 0.0094455 -0.0124804 -0.0112455 0.0025287 -0.0001436 0.0013316 -0.0005639 0.0004439 0.0009494 -0.0007789 -0.0000867 -0.0001219 0.0000130 -0.0005840 0.0001401 0.0001302 0.0000474 -0.0008148 0.0002505 -0.0000292 -0.0007968 0.0001589 0.0000857 -0.0004892 -0.0000255 -0.0004375 0.0052456 -0.0070758 0.0000926 -0.0001381 -0.0000837 0.0016485 0.0002764 -0.0002551 0.0000255 -0.0001363 -0.0000569 -0.0001068 0.0000139 0.0003642 -0.0000081 -0.0000492 -0.0012841 0.0020037 0.0002345 -0.0000049 -0.0001748 0.0003632 -0.0087818 0.0191972 0.0000253 -0.0002620 -0.0007806 0.0010700 0.0001833 -0.0000747 -0.0006883 0.0006293 0.0001514 0.0000884 0.0001332 -0.0001542 -0.0006722 0.0010494 0.0001092 -0.0001076 0.0066736 -0.0054904 -0.0001808 0.0006185 0.0001189 0.0002478 0.0001889 -0.0003205 0.0003371 -0.0005303 -0.0003250 0.0006427 0.0047764 -0.0004826 -0.0005271 -0.0003885 0.0001348 -0.0006097 -0.0002419 -0.0001006 -0.0028831 0.0046388 -0.0001647 0.0000945 0.0002138 -0.0004324 -0.0000067 -0.0012833 -0.0097577 0.0114721 -0.0000696 -0.0007476 0.0004325 -0.0003717 0.0000709 -0.0006035 0.0002821 -0.0004981 0.0001393 0.0000459 0.0002301 -0.0005371 0.0003028 -0.0019508
-0.0000550 -0.0005667 -0.0000619 -0.0005347 -0.0000736 -0.0006147 0.0000536 -0.0002204 -0.0001801 -0.0013834 -0.0000441 -0.0010577 -0.0000127 -0.0008645 0.0002555 -0.0006109 0.0000675 -0.0012051 -0.0000031 -0.0003442 0.0000646 -0.0004453 0.0000410 -0.0003071 0.0000307 -0.0001625 -0.0002878 -0.0020630 0.0000593 -0.0008001 -0.0001892 -0.0013680 0.0001005 -0.0009272 0.0001380 -0.0007398 0.0001516 -0.0004361 -0.0001912 -0.0004012 0.0000420 -0.0004100 0.0002408 0.0003163 0.0003043 -0.0006675 0.0001451 -0.0003798 0.0004522 -0.0001435 -0.0000598 -0.0002804 -0.0003156 -0.0004486 -0.0001871 0.0001143 -0.0006198 -0.0000190 -0.0000718 -0.0003927 -0.0003241 -0.0002253 0.0004279 -0.0007411 -0.0000184 -0.0003956 -0.0000988 -0.0006167 0.0001216 0.0000253 0.0010630 -0.0009643 0.0105483 -0.0040265 -0.0203866 0.0035130 -0.0001809 -0.0008624 0.0001680 -0.0008143 -0.0105260 0.0095044 -0.0010587 0.0001673 -0.0000450 -0.0004745 0.0009259 -0.0020220 -0.0007632 0.0007594 -0.0000812 -0.0005249 -0.0037270 0.0037511 -0.0021726 0.0030641 -0.0001074 0.0002274 -0.0002802 0.0007232 -0.0003072 -0.0013290 -0.0004032 -0.0019686 -0.0001463 -0.0008624 0.0085100 -0.0158084 -0.0134801 0.0109448 -0.0002065 0.0012571 -0.0005781 0.0006163 0.0008737 -0.0012677 -0.0000631 -0.0000887 -0.0000255 -0.0003017 0.0001459 0.0001627 -0.0007283 0.0002692 0.0003411 0.0004091 -0.0003855 -0.0001174 -0.0000435 -0.0003407 0.0001749 -0.0006669 0.0075437 -0.0125683 0.0001827 -0.0002443 -0.0012329 0.0037510 0.0004495 -0.0003978 0.0000570 -0.0001578 -0.0002334 0.0000098 0.0001613 0.0001871 0.0000341 -0.0000945 0.0000679 -0.0000327 0.0002615 -0.0001989 0.0000441 0.0000208 0.0044632 0.0060824 0.0000558 -0.0003481 0.0000901 0.0004310 0.0001105 -0.0000976 -0.0009975 0.0006583 0.0000810 -0.0001091 0.0002150 -0.0003291 -0.0002630 0.0005201 -0.0001576 -0.0000602 -0.0105716 0.0055589 -0.0004044 0.0004367 0.0003311 -0.0002225 0.0002959 -0.0004924 -0.0005219 0.0003281 0.0007284 0.0003552 -0.0019573 0.0033252 -0.0002421 -0.0005826 0.0002040 -0.0008420 0.0001127 -0.0006255 -0.0060769 0.0037925 0.0001239 -0.0003981 0.0002420 -0.0005690 0.0000712 -0.0012907 -0.0103374 0.0081747 -0.0000558 -0.0009270 -0.0011939 -0.0008166 0.0001064 -0.0007447 0.0004126 -0.0007397 0.0000940 -0.0000502 0.0002511 -0.0006715 0.0001829 -0.0018927
-0.0000252 -0.0006543 -0.0000384 -0.0006992 -0.0000281 -0.0008049 0.0000429 -0.0002732 -0.0001400 -0.0013694 -0.0000088 -0.0011152 0.0000428 -0.0010245 0.0002884 -0.0007721 0.0000725 -0.0014252 0.0000293 -0.0005364 0.0001102 -0.0006877 0.0000872 -0.0004705 0.0000818 -0.0003600 -0.0002880 -0.0021474 0.0000600 -0.0009868 -0.0001869 -0.0015985 0.0000849 -0.0012275 0.0001825 -0.0006966 0.0001267 -0.0006125 0.0006086 -0.0017274 0.0000810 -0.0005340 0.0001865 0.0001030 0.0002794 -0.0009374 0.0001043 -0.0005485 0.0000798 -0.0002518 -0.0000581 -0.0001691 -0.0002824 -0.0002818 -0.0001707 0.0001705 -0.0005935 0.0000842 -0.0000394 -0.0003793 -0.0003072 -0.0001878 0.0002546 -0.0006115 -0.0000192 -0.0005509 -0.0001015 -0.0006515 0.0012835 -0.0011602 0.0010480 -0.0016588 0.0058009 -0.0085238 0.0037835 -0.0084125 0.0004285 -0.0012073 0.0000687 -0.0006788 0.0013284 -0.0006563 -0.0021140 0.0015565 -0.0000377 -0.0005505 0.0010015 -0.0023344 -0.0002332 0.0002368 -0.0001597 -0.0005468 -0.0044272 0.0007838 -0.0086768 0.0090062 0.0001643 -0.0001671 0.0004648 -0.0002930 -0.0006620 -0.0008084 -0.0003564 -0.0020119 -0.0001079 -0.0010147 -0.0111228 0.0143390 0.0028753 -0.0120964 -0.0006724 0.0016422 -0.0007792 0.0009566 0.0008006 -0.0009993 -0.0000484 -0.0000188 -0.0000671 -0.0002888 0.0001579 0.0002175 -0.0009710 0.0009807 -0.0007893 0.0016812 -0.0002147 -0.0001382 -0.0000026 -0.0002800 0.0002079 -0.0006185 0.0078038 -0.0077593 0.0002788 -0.0002345 -0.0002292 0.0000622 0.0006127 -0.0007053 0.0000026 -0.0000800 -0.0002999 0.0000465 0.0002811 0.0001280 0.0000029 -0.0001538 0.0005684 -0.0002205 0.0002506 -0.0001852 0.0000033 -0.0000490 0.0057658 -0.0011950 0.0000582 -0.0003400 0.0001405 0.0008120 0.0001252 -0.0001103 -0.0012081 0.0009413 -0.0000212 -0.0001134 0.0001257 -0.0002464 -0.0002369 0.0002292 -0.0001888 -0.0000871 -0.0146044 0.0131783 0.0002266 -0.0003288 0.0002659 -0.0001086 0.0001269 -0.0003037 -0.0012395 0.0004139 0.0015124 -0.0005100 -0.0063397 0.0044153 -0.0003815 -0.0003058 0.0001777 -0.0007897 0.0002296 -0.0009381 -0.0036700 -0.0004250 0.0003230 -0.0007523 0.0002405 -0.0005412 -0.0007505 -0.0005451 -0.0015043 0.0042944 0.0001604 -0.0010156 -0.0009081 -0.0017391 0.0000920 -0.0006786 0.0003009 -0.0004747 0.0002195 -0.0001620 0.0002612 -0.0005275 0.0000503 -0.0014815
-0.0000370 -0.0004331 -0.0000257 -0.0005929 -0.0000305 -0.0006517 0.0000148 -0.0001429 -0.0001141 -0.0011197 0.0000603 -0.0009167 0.0000846 -0.0009102 0.0003002 -0.0006367 0.0000442 -0.0012725 0.0001085 -0.0004886 0.0002816 -0.0006933 0.0000548 -0.0002457 0.0001194 -0.0003410 -0.0002913 -0.0019789 0.0000169 -0.0009199 -0.0001765 -0.0016775 0.0000319 -0.0011193 0.0001767 -0.0005334 0.0001049 -0.0005566 0.0008619 -0.0015474 0.0000860 -0.0004559 0.0002150 -0.0000309 -0.0000092 -0.0007183 0.0000514 -0.0006233 -0.0000654 -0.0003571 -0.0001224 -0.0000233 -0.0002579 -0.0001530 -0.0001699 0.0001222 -0.0006102 0.0001426 -0.0000295 -0.0003990 -0.0003049 -0.0001928 -0.0002378 -0.0002490 0.0000641 -0.0006770 -0.0000696 -0.0007047 0.0012557 -0.0007380 -0.0028107 0.0019351 -0.0015885 -0.0008262 0.0028794 0.0003027 0.0006023 -0.0014919 -0.0001463 -0.0004985 -0.0060711 0.0035243 -0.0029575 0.0022231 -0.0000811 -0.0006576 0.0008583 -0.0028011 -0.0001041 -0.0001346 -0.0001304 -0.0007813 -0.0037405 0.0019546 -0.0057710 0.0050354 0.0002816 -0.0005743 0.0007674 -0.0007128 -0.0003731 -0.0013365 -0.0002967 -0.0024430 -0.0000202 -0.0013461 -0.0119871 0.0112867 0.0106031 -0.0212168 -0.0009406 0.0016669 -0.0008034 0.0011182 0.0004416 -0.0005270 -0.0000672 -0.0001088 0.0002722 -0.0008526 0.0001787 0.0000291 -0.0004818 0.0003591 -0.0007286 0.0013156 0.0001017 -0.0002467 0.0000396 -0.0002906 0.0000488 -0.0004568 0.0095679 -0.0088133 0.0001996 -0.0002237 0.0011044 -0.0006980 0.0005609 -0.0009468 0.0000162 -0.0002054 0.0000160 -0.0002244 0.0001428 0.0001152 0.0000133 -0.0003364 0.0015413 -0.0014226 0.0003613 -0.0005461 -0.0000793 0.0001058 -0.0026860 0.0026969 0.0000774 -0.0003432 -0.0000690 0.0012319 0.0001304 -0.0001721 -0.0006928 0.0001349 0.0001380 -0.0004410 0.0000773 -0.0002467 -0.0004924 -0.0000987 0.0000121 -0.0003829 -0.0045624 0.0081459 0.0005720 -0.0007137 -0.0001042 0.0001891 0.0002595 -0.0004903 0.0009242 -0.0027343 -0.0003468 0.0012758 -0.0080261 0.0027154 -0.0000909 -0.0007391 0.0001475 -0.0007473 0.0000434 -0.0008448 -0.0006600 -0.0018632 0.0003100 -0.0005357 0.0002836 -0.0006446 -0.0009917 -0.0004602 0.0024239 0.0000647 0.0001647 -0.0009168 -0.0004691 0.0004179 0.0000568 -0.0006070 0.0002721 -0.0003313 0.0002551 -0.0001503 0.0002446 -0.0004431 0.0001157 -0.0013727
-0.0000319 -0.0003430 -0.0000293 -0.0005568 -0.0000579 -0.0005575 -0.0000012 -0.0000293 -0.0000970 -0.0009701 0.0000798 -0.0007347 0.0000468 -0.0007672 0.0003135 -0.0005218 0.0000539 -0.0011769 0.0000794 -0.0004097 0.0003264 -0.0006985 0.0001027 -0.0002164 0.0000740 -0.0002590 -0.0002893 -0.0018466 0.0000154 -0.0008496 -0.0001643 -0.0017322 0.0000219 -0.0010422 0.0002289 -0.0005499 0.0001058 -0.0005060 0.0005077 -0.0008171 0.0000779 -0.0003720 0.0001505 0.0000041 0.0001797 -0.0006318 0.0000197 -0.0006187 -0.0003328 -0.0000158 -0.0001220 0.0000902 -0.0002767 -0.0000138 -0.0001869 0.0002738 -0.0006402 0.0003194 -0.0000532 -0.0002238 -0.0003240 -0.0000118 -0.0000730 -0.0005221 0.0001861 -0.0007678 0.0000589 -0.0007148 0.0014094 -0.0010326 -0.0055851 0.0039105 0.0023692 -0.0023895 -0.0101228 0.0076444 0.0000842 -0.0010113 0.0000097 -0.0005759 -0.0037638 0.0028634 -0.0006838 0.0005780 -0.0001228 -0.0005405 -0.0002948 -0.0016821 -0.0001520 -0.0000453 0.0000590 -0.0009337 -0.0113066 0.0081642 -0.0011154 0.0011688 0.0001260 -0.0004865 0.0006159 -0.0004489 -0.0003268 -0.0013560 -0.0001644 -0.0028495 0.0000425 -0.0013476 -0.0082747 -0.0037620 0.0035442 -0.0091154 -0.0007823 0.0015862 -0.0008055 0.0013147 0.0002833 -0.0002926 -0.0000854 0.0000442 0.0002248 -0.0006858 0.0000813 0.0000463 -0.0000506 -0.0001121 0.0002240 0.0004143 0.0001237 -0.0000383 0.0000182 -0.0000675 -0.0000275 -0.0002705 0.0052170 -0.0112501 0.0002542 -0.0001626 0.0031742 -0.0032699 0.0004504 -0.0009653 0.0000181 -0.0001270 0.0000452 -0.0001899 0.0001521 0.0002669 0.0001741 -0.0003409 0.0014312 -0.0026685 0.0007194 -0.0009250 0.0000812 -0.0000414 -0.0043051 0.0150179 0.0001217 -0.0002727 -0.0010276 0.0017875 0.0001142 -0.0000535 -0.0000242 -0.0003524 0.0001713 -0.0004171 0.0001584 -0.0003378 -0.0001441 -0.0004512 -0.0000310 -0.0004043 -0.0097285 0.0082319 -0.0002639 -0.0005456 -0.0000262 0.0000086 0.0002785 -0.0005126 0.0002405 -0.0023850 -0.0029453 0.0020657 -0.0064534 0.0023150 0.0002057 -0.0009111 0.0001632 -0.0006983 -0.0001014 -0.0007407 0.0030570 -0.0055038 -0.0003195 -0.0001827 0.0002956 -0.0006573 -0.0009428 -0.0001389 -0.0019474 0.0004737 0.0001128 -0.0007779 -0.0018061 0.0033272 0.0000591 -0.0005336 0.0003585 -0.0003763 0.0001348 -0.0000960 0.0002293 -0.0004406 0.0001875 -0.0015143
-0.0000266 -0.0004105 -0.0000172 -0.0006578 -0.0000594 -0.0006321 -0.0000180 -0.0000010 -0.0000966 -0.0009962 0.0000673 -0.0006873 0.0000517 -0.0007850 0.0003380 -0.0005297 0.0001394 -0.0012734 0.0000593 -0.0005516 0.0002726 -0.0008327 0.0001888 -0.0004968 0.0000628 -0.0004234 -0.0002713 -0.0018917 0.0000554 -0.0008644 -0.0001487 -0.0018404 0.0000632 -0.0011319 0.0003436 -0.0006913 0.0001143 -0.0005683 -0.0004208 -0.0003964 0.0000818 -0.0004768 0.0001458 -0.0001355 0.0003464 -0.0008682 0.0000080 -0.0007084 -0.0002242 -0.0003846 -0.0001160 0.0001770 -0.0002588 0.0000574 -0.0002114 0.0003405 -0.0006256 0.0003804 -0.0000976 -0.0001457 -0.0003397 0.0000590 0.0002759 -0.0010075 0.0001044 -0.0007628 0.0001778 -0.0008851 0.0010306 -0.0010606 -0.0071549 0.0048148 -0.0068689 0.0135257 -0.0168223 0.0104989 0.0003888 -0.0013091 0.0002147 -0.0006555 0.0017493 -0.0006360 0.0001838 -0.0002083 -0.0001237 -0.0005604 -0.0007561 -0.0004489 -0.0005944 0.0002362 0.0000541 -0.0009074 -0.0097844 0.0082378 -0.0006267 0.0012229 0.0001357 -0.0005273 0.0001121 -0.0005198 -0.0008667 -0.0007468 -0.0003443 -0.0027107 0.0000498 -0.0012587 -0.0174749 0.0171938 0.0020171 -0.0059288 -0.0007848 0.0017314 -0.0007666 0.0013031 0.0002495 -0.0002796 -0.0001306 0.0001654 0.0002706 -0.0005807 0.0001205 -0.0000411 -0.0004858 0.0002488 0.0000115 -0.0002323 -0.0002399 0.0002984 0.0000342 0.0000191 -0.0000266 -0.0001790 0.0011642 -0.0035275 0.0002388 -0.0001380 0.0024852 -0.0025679 0.0004279 -0.0006112 -0.0000602 -0.0000190 0.0000352 -0.0002419 0.0001173 0.0003241 0.0001423 -0.0002558 -0.0005932 -0.0016808 0.0006651 -0.0009429 0.0002356 -0.0003262 -0.0166513 0.0285921 0.0001580 -0.0002562 -0.0004721 0.0012407 0.0001171 0.0000302 0.0002485 -0.0004048 0.0001171 -0.0002508 0.0002263 -0.0004428 -0.0002829 -0.0003879 0.0000633 -0.0006272 -0.0085861 0.0047391 0.0001705 -0.0007327 0.0001074 -0.0001880 0.0001131 -0.0003011 -0.0006528 -0.0012713 -0.0012283 -0.0002642 0.0032796 -0.0062602 -0.0000848 -0.0003350 0.0001608 -0.0004761 -0.0002014 -0.0004938 0.0029682 -0.0020093 0.0001870 -0.0008214 0.0003194 -0.0005190 -0.0008440 0.0000540 -0.0009344 0.0038600 0.0000320 -0.0004523 -0.0059820 0.0053646 0.0000476 -0.0003265 0.0004129 -0.0001992 0.0001054 0.0000208 0.0002017 -0.0001705 0.0001148 -0.0012529
-0.0000504 -0.0002087 -0.0000163 -0.0005338 -0.0000537 -0.0004745 -0.0000327 0.0001214 -0.0001140 -0.0008534 0.0000538 -0.0004404 0.0000934 -0.0007080 0.0003333 -0.0003454 0.0001065 -0.0010574 0.0001018 -0.0005450 0.0000792 -0.0004705 0.0001504 -0.0003728 0.0001650 -0.0005038 -0.0002534 -0.0016940 0.0000652 -0.0007224 -0.0001578 -0.0017484 0.0000964 -0.0010281 0.0003457 -0.0004777 0.0001036 -0.0004568 -0.0000777 -0.0008251 0.0000961 -0.0004123 0.0002163 -0.0001045 0.0003316 -0.0008304 -0.0000042 -0.0006433 -0.0000655 -0.0003279 -0.0000943 0.0002766 -0.0002460 0.0001621 -0.0002273 0.0004862 -0.0006483 0.0005297 -0.0001394 0.0000687 -0.0003523 0.0002240 0.0004882 -0.0010304 0.0000480 -0.0006460 0.0000068 -0.0006470 0.0006725 -0.0004152 -0.0064393 0.0054934 -0.0089594 0.0187075 0.0016725 -0.0108447 0.0012543 -0.0018015 -0.0000382 -0.0001873 -0.0030451 0.0024418 0.0011135 -0.0018481 -0.0001326 -0.0004831 -0.0003550 -0.0008796 -0.0002409 -0.0000443 -0.0000823 -0.0006110 -0.0005933 0.0016310 -0.0023015 0.0006443 0.0001550 -0.0005858 0.0001266 -0.0009664 -0.0008659 -0.0007756 -0.0005964 -0.0024296 0.0000209 -0.0010990 -0.0022531 -0.0011469 -0.0000390 -0.0067011 -0.0006789 0.0016600 -0.0008293 0.0012801 0.0004157 -0.0006607 -0.0001931 0.0001718 0.0002327 -0.0006422 0.0001513 -0.0002488 0.0014743 -0.0015876 -0.0000342 -0.0007888 -0.0002537 0.0003457 0.0000483 -0.0000179 0.0001040 -0.0002911 0.0067268 -0.0104359 -0.0000431 -0.0000614 -0.0008144 0.0008039 0.0005033 -0.0007403 -0.0001330 -0.0000965 0.0003456 -0.0006959 -0.0000329 0.0001190 0.0000849 -0.0003611 0.0000577 -0.0019799 0.0000954 -0.0005992 0.0002757 -0.0006196 -0.0123153 0.0239713 0.0001392 -0.0002592 -0.0000655 0.0010597 0.0000908 0.0000305 -0.0007757 0.0006729 0.0001027 -0.0004551 0.0002618 -0.0005629 -0.0004878 -0.0002193 -0.0000073 -0.0006905 -0.0004310 -0.0020543 0.0007043 -0.0011529 0.0001374 -0.0005115 0.0001671 -0.0003632 -0.0005134 -0.0009631 0.0013972 -0.0018980 -0.0026812 0.0013889 0.0000945 -0.0006504 0.0001007 -0.0002320 0.0001662 -0.0007224 -0.0045722 0.0079513 0.0007405 -0.0010810 0.0003662 -0.0004462 -0.0001000 -0.0003655 0.0031305 -0.0005517 -0.0001222 -0.0001875 -0.0033356 0.0026182 0.0000756 -0.0001911 0.0003839 0.0000281 0.0000461 0.0001711 0.0001699 0.0000096 -0.0001300 -0.0010627
-0.0000627 -0.0000992 0.0000002 -0.0005065 -0.0000729 -0.0003813 -0.0000418 0.0001981 -0.0001197 -0.0007849 0.0000493 -0.0002527 0.0000888 -0.0006289 0.0003224 -0.0002074 0.0000561 -0.0008485 0.0001012 -0.0004791 0.0001208 -0.0003712 0.0001561 -0.0003314 0.0001553 -0.0005203 -0.0002406 -0.0015266 0.0000505 -0.0005859 -0.0001651 -0.0016920 0.0000148 -0.0008088 0.0001958 -0.0002228 0.0000858 -0.0003551 0.0001049 -0.0008962 0.0001062 -0.0003848 0.0001748 0.0000287 0.0002903 -0.0006815 -0.0000239 -0.0005637 0.0000919 -0.0001916 -0.0001064 0.0003424 -0.0002438 0.0002376 -0.0002178 0.0005473 -0.0006764 0.0006288 -0.0001781 0.0002223 -0.0003592 0.0003050 0.0006003 -0.0009318 0.0001071 -0.0006723 -0.0001862 -0.0003399 0.0004344 -0.0003955 -0.0047843 0.0039562 -0.0104435 0.0177203 0.0171017 -0.0324634 0.0008963 -0.0013363 -0.0002506 -0.0000046 -0.0002324 -0.0012109 0.0014247 -0.0028864 -0.0001308 -0.0003353 0.0009469 -0.0021046 -0.0000133 -0.0001918 -0.0001197 -0.0004017 -0.0003847 -0.0003732 -0.0018331 -0.0006216 -0.0000736 -0.0004231 -0.0012775 0.0000891 -0.0007072 -0.0008720 -0.0007054 -0.0021638 -0.0000525 -0.0008142 0.0045477 -0.0148115 0.0091404 -0.0156586 -0.0007015 0.0017669 -0.0007119 0.0012087 0.0002938 -0.0006949 -0.0002599 0.0003410 -0.0000193 -0.0004300 -0.0000190 -0.0001524 0.0018812 -0.0019820 0.0001312 -0.0000725 -0.0001793 0.0004989 0.0000628 0.0001031 0.0001512 -0.0002396 0.0024955 -0.0109757 -0.0001006 0.0001506 -0.0008441 -0.0017976 0.0006687 -0.0009826 -0.0002276 0.0001220 0.0003298 -0.0005599 -0.0000394 0.0001494 0.0000590 -0.0001261 0.0012854 -0.0026228 0.0003376 -0.0005653 0.0002892 -0.0004875 -0.0103402 0.0191581 0.0000444 -0.0000651 0.0001308 0.0007372 0.0001506 0.0001218 -0.0014067 0.0018762 0.0001243 -0.0003928 0.0002005 -0.0004336 -0.0001666 -0.0005641 -0.0001269 -0.0004276 0.0010122 0.0012072 0.0006533 -0.0015913 0.0000310 -0.0001166 0.0002009 -0.0003225 -0.0004056 -0.0009227 0.0032821 -0.0024118 -0.0054723 0.0082757 -0.0001918 0.0000026 0.0000349 0.0000577 0.0003685 -0.0005100 -0.0100561 0.0109115 0.0001788 -0.0001867 0.0002380 -0.0000828 0.0004251 -0.0006183 0.0056412 -0.0044970 -0.0000963 0.0000179 -0.0002171 -0.0019174 -0.0000125 0.0000672 0.0002338 0.0003297 -0.0000373 0.0003252 0.0000991 0.0002213 -0.0000276 -0.0011194
